-7.000000000000000000e+00,-1.700000000000000000e+01,-7.000000000000000000e+01,-1.000000000000000000e+01,0.000000000000000000e+00,1.000000000000000000e+00,-1.000000000000000000e+00,-1.000000000000000000e+00,-8.422851562500000000e-02,4.341430664062500000e-01,-1.083984375000000000e-01,8.902587890625000000e-01
3.000000000000000000e+00,1.200000000000000000e+01,3.400000000000000000e+01,-1.000000000000000000e+01,-4.000000000000000000e+00,-1.000000000000000000e+00,1.000000000000000000e+00,0.000000000000000000e+00,-8.422851562500000000e-02,4.341430664062500000e-01,-1.083984375000000000e-01,8.902587890625000000e-01
3.000000000000000000e+00,1.000000000000000000e+01,1.100000000000000000e+01,1.700000000000000000e+01,2.000000000000000000e+00,4.000000000000000000e+00,2.000000000000000000e+00,0.000000000000000000e+00,-8.422851562500000000e-02,4.341430664062500000e-01,-1.083984375000000000e-01,8.902587890625000000e-01
-4.000000000000000000e+00,-9.000000000000000000e+00,-1.600000000000000000e+01,-2.300000000000000000e+01,-1.200000000000000000e+01,-3.000000000000000000e+00,0.000000000000000000e+00,-8.000000000000000000e+00,-8.422851562500000000e-02,4.341430664062500000e-01,-1.083984375000000000e-01,8.902587890625000000e-01
-1.000000000000000000e+00,3.000000000000000000e+00,4.000000000000000000e+01,4.000000000000000000e+01,1.500000000000000000e+01,2.000000000000000000e+00,1.000000000000000000e+00,-2.000000000000000000e+00,-8.325195312500000000e-02,4.332275390625000000e-01,-1.086425781250000000e-01,8.908081054687500000e-01
-1.000000000000000000e+00,-1.200000000000000000e+01,-8.000000000000000000e+00,-3.500000000000000000e+01,-2.000000000000000000e+00,-4.000000000000000000e+00,-3.000000000000000000e+00,-4.000000000000000000e+00,-8.325195312500000000e-02,4.332275390625000000e-01,-1.086425781250000000e-01,8.908081054687500000e-01
-1.000000000000000000e+00,8.000000000000000000e+00,1.000000000000000000e+01,1.500000000000000000e+01,-7.000000000000000000e+00,-5.000000000000000000e+00,-5.000000000000000000e+00,0.000000000000000000e+00,-8.325195312500000000e-02,4.332275390625000000e-01,-1.086425781250000000e-01,8.908081054687500000e-01
-2.000000000000000000e+00,-4.000000000000000000e+00,-1.400000000000000000e+01,7.000000000000000000e+00,3.000000000000000000e+00,3.000000000000000000e+00,0.000000000000000000e+00,1.000000000000000000e+00,-8.325195312500000000e-02,4.332275390625000000e-01,-1.086425781250000000e-01,8.908081054687500000e-01
-1.000000000000000000e+00,-1.000000000000000000e+00,-1.200000000000000000e+01,-1.200000000000000000e+01,-4.000000000000000000e+00,1.000000000000000000e+00,-2.000000000000000000e+00,2.000000000000000000e+00,-8.264160156250000000e-02,4.323120117187500000e-01,-1.088256835937500000e-01,8.912963867187500000e-01
0.000000000000000000e+00,-8.000000000000000000e+00,1.500000000000000000e+01,3.000000000000000000e+00,-2.000000000000000000e+00,1.000000000000000000e+00,2.000000000000000000e+00,1.000000000000000000e+00,-8.264160156250000000e-02,4.323120117187500000e-01,-1.088256835937500000e-01,8.912963867187500000e-01
2.000000000000000000e+00,1.000000000000000000e+00,-3.500000000000000000e+01,-2.000000000000000000e+01,-2.000000000000000000e+00,-3.000000000000000000e+00,-1.000000000000000000e+00,-1.000000000000000000e+00,-8.264160156250000000e-02,4.323120117187500000e-01,-1.088256835937500000e-01,8.912963867187500000e-01
1.000000000000000000e+00,3.000000000000000000e+00,4.000000000000000000e+00,2.400000000000000000e+01,6.000000000000000000e+00,1.000000000000000000e+00,-4.000000000000000000e+00,-1.000000000000000000e+00,-8.264160156250000000e-02,4.323120117187500000e-01,-1.088256835937500000e-01,8.912963867187500000e-01
-4.000000000000000000e+00,-6.000000000000000000e+00,-1.200000000000000000e+01,-2.700000000000000000e+01,-3.000000000000000000e+00,0.000000000000000000e+00,0.000000000000000000e+00,0.000000000000000000e+00,-8.227539062500000000e-02,4.312133789062500000e-01,-1.089477539062500000e-01,8.918457031250000000e-01
-1.000000000000000000e+00,4.000000000000000000e+00,1.700000000000000000e+01,2.000000000000000000e+01,5.000000000000000000e+00,-1.000000000000000000e+00,-3.000000000000000000e+00,-4.000000000000000000e+00,-8.227539062500000000e-02,4.312133789062500000e-01,-1.089477539062500000e-01,8.918457031250000000e-01
4.000000000000000000e+00,-3.000000000000000000e+00,-1.400000000000000000e+01,-1.500000000000000000e+01,-6.000000000000000000e+00,-6.000000000000000000e+00,-5.000000000000000000e+00,-2.000000000000000000e+00,-8.227539062500000000e-02,4.312133789062500000e-01,-1.089477539062500000e-01,8.918457031250000000e-01
0.000000000000000000e+00,-1.200000000000000000e+01,-2.600000000000000000e+01,0.000000000000000000e+00,-6.000000000000000000e+00,-1.000000000000000000e+00,1.000000000000000000e+00,-4.000000000000000000e+00,-8.227539062500000000e-02,4.312133789062500000e-01,-1.089477539062500000e-01,8.918457031250000000e-01
-1.000000000000000000e+00,1.000000000000000000e+00,-1.400000000000000000e+01,2.000000000000000000e+00,9.000000000000000000e+00,2.000000000000000000e+00,1.000000000000000000e+00,-1.000000000000000000e+00,-8.325195312500000000e-02,4.302368164062500000e-01,-1.087646484375000000e-01,8.922119140625000000e-01
-3.000000000000000000e+00,-3.000000000000000000e+00,5.000000000000000000e+00,-2.000000000000000000e+01,-6.000000000000000000e+00,-4.000000000000000000e+00,1.000000000000000000e+00,-1.000000000000000000e+00,-8.325195312500000000e-02,4.302368164062500000e-01,-1.087646484375000000e-01,8.922119140625000000e-01
-2.000000000000000000e+00,1.000000000000000000e+01,3.300000000000000000e+01,3.200000000000000000e+01,5.000000000000000000e+00,3.000000000000000000e+00,1.000000000000000000e+00,0.000000000000000000e+00,-8.325195312500000000e-02,4.302368164062500000e-01,-1.087646484375000000e-01,8.922119140625000000e-01
-1.000000000000000000e+01,-6.000000000000000000e+00,-2.300000000000000000e+01,-5.000000000000000000e+00,-3.000000000000000000e+00,0.000000000000000000e+00,-2.000000000000000000e+00,3.000000000000000000e+00,-8.325195312500000000e-02,4.302368164062500000e-01,-1.087646484375000000e-01,8.922119140625000000e-01
1.700000000000000000e+01,1.000000000000000000e+00,-5.000000000000000000e+00,-2.000000000000000000e+00,-1.000000000000000000e+01,-4.000000000000000000e+00,2.000000000000000000e+00,-1.000000000000000000e+00,-8.465576171875000000e-02,4.294433593750000000e-01,-1.086425781250000000e-01,8.925170898437500000e-01
3.000000000000000000e+00,5.000000000000000000e+00,5.000000000000000000e+00,2.600000000000000000e+01,7.000000000000000000e+00,6.000000000000000000e+00,2.000000000000000000e+00,3.000000000000000000e+00,-8.465576171875000000e-02,4.294433593750000000e-01,-1.086425781250000000e-01,8.925170898437500000e-01
2.000000000000000000e+00,4.000000000000000000e+00,2.300000000000000000e+01,-8.000000000000000000e+00,0.000000000000000000e+00,1.000000000000000000e+00,1.000000000000000000e+00,-1.000000000000000000e+00,-8.465576171875000000e-02,4.294433593750000000e-01,-1.086425781250000000e-01,8.925170898437500000e-01
-6.000000000000000000e+00,-1.000000000000000000e+01,-1.300000000000000000e+01,0.000000000000000000e+00,4.000000000000000000e+00,-3.000000000000000000e+00,-1.000000000000000000e+00,-2.000000000000000000e+00,-8.465576171875000000e-02,4.294433593750000000e-01,-1.086425781250000000e-01,8.925170898437500000e-01
2.000000000000000000e+00,3.000000000000000000e+00,-5.000000000000000000e+00,-2.000000000000000000e+01,-7.000000000000000000e+00,-3.000000000000000000e+00,-3.000000000000000000e+00,-1.000000000000000000e+00,-8.532714843750000000e-02,4.288330078125000000e-01,-1.087646484375000000e-01,8.927001953125000000e-01
-1.200000000000000000e+01,-1.400000000000000000e+01,-9.000000000000000000e+00,5.000000000000000000e+00,0.000000000000000000e+00,-4.000000000000000000e+00,-3.000000000000000000e+00,0.000000000000000000e+00,-8.532714843750000000e-02,4.288330078125000000e-01,-1.087646484375000000e-01,8.927001953125000000e-01
-2.000000000000000000e+00,1.500000000000000000e+01,-2.100000000000000000e+01,-9.000000000000000000e+00,-1.000000000000000000e+00,4.000000000000000000e+00,2.000000000000000000e+00,0.000000000000000000e+00,-8.532714843750000000e-02,4.288330078125000000e-01,-1.087646484375000000e-01,8.927001953125000000e-01
5.000000000000000000e+00,-2.000000000000000000e+00,1.700000000000000000e+01,-2.000000000000000000e+00,-5.000000000000000000e+00,-1.000000000000000000e+00,0.000000000000000000e+00,-2.000000000000000000e+00,-8.532714843750000000e-02,4.288330078125000000e-01,-1.087646484375000000e-01,8.927001953125000000e-01
-7.000000000000000000e+00,-5.000000000000000000e+00,-3.000000000000000000e+00,2.500000000000000000e+01,1.300000000000000000e+01,7.000000000000000000e+00,5.000000000000000000e+00,0.000000000000000000e+00,-8.563232421875000000e-02,4.284667968750000000e-01,-1.090698242187500000e-01,8.928222656250000000e-01
8.000000000000000000e+00,7.000000000000000000e+00,-1.600000000000000000e+01,-2.400000000000000000e+01,-8.000000000000000000e+00,-1.000000000000000000e+01,-4.000000000000000000e+00,-2.000000000000000000e+00,-8.563232421875000000e-02,4.284667968750000000e-01,-1.090698242187500000e-01,8.928222656250000000e-01
-2.000000000000000000e+00,-1.000000000000000000e+01,1.300000000000000000e+01,-1.400000000000000000e+01,-2.100000000000000000e+01,-8.000000000000000000e+00,-5.000000000000000000e+00,0.000000000000000000e+00,-8.563232421875000000e-02,4.284667968750000000e-01,-1.090698242187500000e-01,8.928222656250000000e-01
-5.000000000000000000e+00,6.000000000000000000e+00,3.300000000000000000e+01,2.000000000000000000e+00,1.000000000000000000e+01,2.000000000000000000e+00,1.000000000000000000e+00,-1.000000000000000000e+00,-8.563232421875000000e-02,4.284667968750000000e-01,-1.090698242187500000e-01,8.928222656250000000e-01
-4.000000000000000000e+00,-7.000000000000000000e+00,-5.200000000000000000e+01,8.000000000000000000e+00,2.200000000000000000e+01,5.000000000000000000e+00,-2.000000000000000000e+00,-2.000000000000000000e+00,-8.544921875000000000e-02,4.278564453125000000e-01,-1.093750000000000000e-01,8.930664062500000000e-01
0.000000000000000000e+00,1.000000000000000000e+00,2.100000000000000000e+01,3.300000000000000000e+01,-4.000000000000000000e+00,1.000000000000000000e+00,-2.000000000000000000e+00,1.000000000000000000e+00,-8.544921875000000000e-02,4.278564453125000000e-01,-1.093750000000000000e-01,8.930664062500000000e-01
3.000000000000000000e+00,0.000000000000000000e+00,3.000000000000000000e+00,1.400000000000000000e+01,3.000000000000000000e+00,0.000000000000000000e+00,1.000000000000000000e+00,-2.000000000000000000e+00,-8.544921875000000000e-02,4.278564453125000000e-01,-1.093750000000000000e-01,8.930664062500000000e-01
5.000000000000000000e+00,1.000000000000000000e+00,-8.000000000000000000e+00,-5.100000000000000000e+01,-1.500000000000000000e+01,-2.000000000000000000e+00,-1.000000000000000000e+00,-1.000000000000000000e+00,-8.544921875000000000e-02,4.278564453125000000e-01,-1.093750000000000000e-01,8.930664062500000000e-01
-3.000000000000000000e+00,8.000000000000000000e+00,1.800000000000000000e+01,3.000000000000000000e+01,-9.000000000000000000e+00,-6.000000000000000000e+00,-3.000000000000000000e+00,-4.000000000000000000e+00,-8.520507812500000000e-02,4.271240234375000000e-01,-1.093750000000000000e-01,8.934326171875000000e-01
-1.000000000000000000e+00,0.000000000000000000e+00,-3.600000000000000000e+01,-1.400000000000000000e+01,1.000000000000000000e+00,-3.000000000000000000e+00,1.000000000000000000e+00,-1.000000000000000000e+00,-8.520507812500000000e-02,4.271240234375000000e-01,-1.093750000000000000e-01,8.934326171875000000e-01
-2.000000000000000000e+00,-4.000000000000000000e+00,-5.000000000000000000e+00,-1.100000000000000000e+01,-2.000000000000000000e+00,-3.000000000000000000e+00,1.000000000000000000e+00,3.000000000000000000e+00,-8.520507812500000000e-02,4.271240234375000000e-01,-1.093750000000000000e-01,8.934326171875000000e-01
1.000000000000000000e+00,1.000000000000000000e+00,2.900000000000000000e+01,3.400000000000000000e+01,1.000000000000000000e+00,0.000000000000000000e+00,0.000000000000000000e+00,3.000000000000000000e+00,-8.520507812500000000e-02,4.271240234375000000e-01,-1.093750000000000000e-01,8.934326171875000000e-01
-1.300000000000000000e+01,-6.000000000000000000e+00,0.000000000000000000e+00,-2.700000000000000000e+01,-1.000000000000000000e+00,-3.000000000000000000e+00,-5.000000000000000000e+00,-1.000000000000000000e+00,-8.593750000000000000e-02,4.265136718750000000e-01,-1.088867187500000000e-01,8.937377929687500000e-01
5.000000000000000000e+00,7.000000000000000000e+00,-1.200000000000000000e+01,-1.100000000000000000e+01,-5.000000000000000000e+00,2.000000000000000000e+00,0.000000000000000000e+00,0.000000000000000000e+00,-8.593750000000000000e-02,4.265136718750000000e-01,-1.088867187500000000e-01,8.937377929687500000e-01
-1.000000000000000000e+00,-6.000000000000000000e+00,-1.600000000000000000e+01,-2.000000000000000000e+00,2.000000000000000000e+00,-3.000000000000000000e+00,-4.000000000000000000e+00,-1.000000000000000000e+00,-8.593750000000000000e-02,4.265136718750000000e-01,-1.088867187500000000e-01,8.937377929687500000e-01
-1.000000000000000000e+00,-3.000000000000000000e+00,-5.000000000000000000e+00,6.000000000000000000e+00,3.000000000000000000e+00,0.000000000000000000e+00,3.000000000000000000e+00,-3.000000000000000000e+00,-8.593750000000000000e-02,4.265136718750000000e-01,-1.088867187500000000e-01,8.937377929687500000e-01
1.000000000000000000e+00,-3.000000000000000000e+00,-2.000000000000000000e+00,-1.200000000000000000e+01,-2.000000000000000000e+00,4.000000000000000000e+00,3.000000000000000000e+00,1.000000000000000000e+00,-8.709716796875000000e-02,4.257812500000000000e-01,-1.087036132812500000e-01,8.939819335937500000e-01
-9.000000000000000000e+00,-1.000000000000000000e+00,2.000000000000000000e+01,4.000000000000000000e+00,-3.000000000000000000e+00,-5.000000000000000000e+00,-5.000000000000000000e+00,-5.000000000000000000e+00,-8.709716796875000000e-02,4.257812500000000000e-01,-1.087036132812500000e-01,8.939819335937500000e-01
-4.000000000000000000e+00,-4.000000000000000000e+00,4.000000000000000000e+00,-1.000000000000000000e+00,8.000000000000000000e+00,1.000000000000000000e+00,-2.000000000000000000e+00,-1.000000000000000000e+00,-8.709716796875000000e-02,4.257812500000000000e-01,-1.087036132812500000e-01,8.939819335937500000e-01
-4.000000000000000000e+00,-3.000000000000000000e+00,-7.000000000000000000e+00,7.000000000000000000e+00,3.000000000000000000e+00,3.000000000000000000e+00,-2.000000000000000000e+00,0.000000000000000000e+00,-8.709716796875000000e-02,4.257812500000000000e-01,-1.087036132812500000e-01,8.939819335937500000e-01
1.000000000000000000e+00,1.000000000000000000e+00,1.200000000000000000e+01,-1.300000000000000000e+01,-1.200000000000000000e+01,-4.000000000000000000e+00,-5.000000000000000000e+00,1.000000000000000000e+00,-8.721923828125000000e-02,4.254150390625000000e-01,-1.088867187500000000e-01,8.941650390625000000e-01
3.000000000000000000e+00,-4.000000000000000000e+00,1.200000000000000000e+01,1.000000000000000000e+00,2.000000000000000000e+00,1.000000000000000000e+00,2.000000000000000000e+00,1.000000000000000000e+00,-8.721923828125000000e-02,4.254150390625000000e-01,-1.088867187500000000e-01,8.941650390625000000e-01
4.000000000000000000e+00,6.000000000000000000e+00,-2.000000000000000000e+01,-6.000000000000000000e+00,5.000000000000000000e+00,4.000000000000000000e+00,-1.000000000000000000e+00,-3.000000000000000000e+00,-8.721923828125000000e-02,4.254150390625000000e-01,-1.088867187500000000e-01,8.941650390625000000e-01
-2.000000000000000000e+00,-1.000000000000000000e+00,-5.000000000000000000e+00,-1.300000000000000000e+01,-1.600000000000000000e+01,-7.000000000000000000e+00,-4.000000000000000000e+00,0.000000000000000000e+00,-8.721923828125000000e-02,4.254150390625000000e-01,-1.088867187500000000e-01,8.941650390625000000e-01
0.000000000000000000e+00,-5.000000000000000000e+00,-1.000000000000000000e+00,1.500000000000000000e+01,-1.000000000000000000e+00,-1.000000000000000000e+00,-2.000000000000000000e+00,-2.000000000000000000e+00,-8.630371093750000000e-02,4.254150390625000000e-01,-1.087646484375000000e-01,8.942260742187500000e-01
0.000000000000000000e+00,-2.000000000000000000e+00,-8.000000000000000000e+00,1.400000000000000000e+01,2.100000000000000000e+01,4.000000000000000000e+00,-1.000000000000000000e+00,2.000000000000000000e+00,-8.630371093750000000e-02,4.254150390625000000e-01,-1.087646484375000000e-01,8.942260742187500000e-01
-9.000000000000000000e+00,-1.200000000000000000e+01,8.000000000000000000e+00,-4.000000000000000000e+00,-1.000000000000000000e+00,0.000000000000000000e+00,-1.000000000000000000e+00,-3.000000000000000000e+00,-8.630371093750000000e-02,4.254150390625000000e-01,-1.087646484375000000e-01,8.942260742187500000e-01
4.000000000000000000e+00,2.000000000000000000e+00,-7.000000000000000000e+00,-4.000000000000000000e+00,7.000000000000000000e+00,2.000000000000000000e+00,1.000000000000000000e+00,2.000000000000000000e+00,-8.630371093750000000e-02,4.254150390625000000e-01,-1.087646484375000000e-01,8.942260742187500000e-01
0.000000000000000000e+00,3.000000000000000000e+00,1.000000000000000000e+01,-2.000000000000000000e+01,-1.700000000000000000e+01,-1.000000000000000000e+00,1.000000000000000000e+00,-2.000000000000000000e+00,-8.593750000000000000e-02,4.257202148437500000e-01,-1.080932617187500000e-01,8.942260742187500000e-01
-1.000000000000000000e+00,0.000000000000000000e+00,1.000000000000000000e+00,-1.000000000000000000e+00,-7.000000000000000000e+00,-2.000000000000000000e+00,2.000000000000000000e+00,-3.000000000000000000e+00,-8.593750000000000000e-02,4.257202148437500000e-01,-1.080932617187500000e-01,8.942260742187500000e-01
-2.000000000000000000e+00,1.000000000000000000e+00,2.900000000000000000e+01,1.600000000000000000e+01,0.000000000000000000e+00,-5.000000000000000000e+00,-3.000000000000000000e+00,-3.000000000000000000e+00,-8.593750000000000000e-02,4.257202148437500000e-01,-1.080932617187500000e-01,8.942260742187500000e-01
-1.000000000000000000e+00,-2.000000000000000000e+00,-4.300000000000000000e+01,-2.500000000000000000e+01,-8.000000000000000000e+00,-2.000000000000000000e+00,1.000000000000000000e+00,-1.000000000000000000e+00,-8.593750000000000000e-02,4.257202148437500000e-01,-1.080932617187500000e-01,8.942260742187500000e-01
-4.000000000000000000e+00,0.000000000000000000e+00,1.400000000000000000e+01,6.000000000000000000e+00,3.000000000000000000e+00,-4.000000000000000000e+00,-4.000000000000000000e+00,3.000000000000000000e+00,-8.660888671875000000e-02,4.258422851562500000e-01,-1.074829101562500000e-01,8.941650390625000000e-01
-2.000000000000000000e+00,3.000000000000000000e+00,-3.000000000000000000e+00,-5.000000000000000000e+00,-2.000000000000000000e+00,-3.000000000000000000e+00,-2.000000000000000000e+00,0.000000000000000000e+00,-8.660888671875000000e-02,4.258422851562500000e-01,-1.074829101562500000e-01,8.941650390625000000e-01
3.000000000000000000e+00,-3.000000000000000000e+00,-3.500000000000000000e+01,-6.000000000000000000e+00,-3.000000000000000000e+00,-1.000000000000000000e+00,2.000000000000000000e+00,-2.000000000000000000e+00,-8.660888671875000000e-02,4.258422851562500000e-01,-1.074829101562500000e-01,8.941650390625000000e-01
1.000000000000000000e+00,1.000000000000000000e+00,1.500000000000000000e+01,7.000000000000000000e+00,1.000000000000000000e+00,-4.000000000000000000e+00,-1.000000000000000000e+00,-5.000000000000000000e+00,-8.660888671875000000e-02,4.258422851562500000e-01,-1.074829101562500000e-01,8.941650390625000000e-01
1.500000000000000000e+01,-3.000000000000000000e+00,-3.000000000000000000e+00,7.000000000000000000e+00,3.000000000000000000e+00,0.000000000000000000e+00,1.000000000000000000e+00,-3.000000000000000000e+00,-8.697509765625000000e-02,4.258422851562500000e-01,-1.074829101562500000e-01,8.941650390625000000e-01
-2.000000000000000000e+01,-9.000000000000000000e+00,-9.000000000000000000e+00,5.000000000000000000e+00,0.000000000000000000e+00,3.000000000000000000e+00,1.000000000000000000e+00,-2.000000000000000000e+00,-8.697509765625000000e-02,4.258422851562500000e-01,-1.074829101562500000e-01,8.941650390625000000e-01
-1.000000000000000000e+00,1.200000000000000000e+01,3.300000000000000000e+01,-9.000000000000000000e+00,-6.000000000000000000e+00,-3.000000000000000000e+00,-5.000000000000000000e+00,4.000000000000000000e+00,-8.697509765625000000e-02,4.258422851562500000e-01,-1.074829101562500000e-01,8.941650390625000000e-01
3.000000000000000000e+00,1.000000000000000000e+00,-1.300000000000000000e+01,-1.000000000000000000e+00,1.000000000000000000e+00,1.000000000000000000e+00,-3.000000000000000000e+00,-1.000000000000000000e+00,-8.697509765625000000e-02,4.258422851562500000e-01,-1.074829101562500000e-01,8.941650390625000000e-01
-2.000000000000000000e+00,-1.000000000000000000e+00,-1.900000000000000000e+01,-2.000000000000000000e+00,5.000000000000000000e+00,-2.000000000000000000e+00,-2.000000000000000000e+00,3.000000000000000000e+00,-8.618164062500000000e-02,4.260253906250000000e-01,-1.076660156250000000e-01,8.941040039062500000e-01
1.000000000000000000e+01,3.000000000000000000e+00,2.600000000000000000e+01,-1.600000000000000000e+01,-9.000000000000000000e+00,-2.000000000000000000e+00,0.000000000000000000e+00,4.000000000000000000e+00,-8.618164062500000000e-02,4.260253906250000000e-01,-1.076660156250000000e-01,8.941040039062500000e-01
2.000000000000000000e+00,-5.000000000000000000e+00,-1.800000000000000000e+01,1.700000000000000000e+01,3.000000000000000000e+00,-1.000000000000000000e+00,0.000000000000000000e+00,-3.000000000000000000e+00,-8.618164062500000000e-02,4.260253906250000000e-01,-1.076660156250000000e-01,8.941040039062500000e-01
-8.000000000000000000e+00,-4.000000000000000000e+00,1.400000000000000000e+01,7.000000000000000000e+00,5.000000000000000000e+00,-1.000000000000000000e+00,-4.000000000000000000e+00,-2.000000000000000000e+00,-8.618164062500000000e-02,4.260253906250000000e-01,-1.076660156250000000e-01,8.941040039062500000e-01
-3.000000000000000000e+00,1.000000000000000000e+00,-2.700000000000000000e+01,-9.000000000000000000e+00,-5.000000000000000000e+00,-3.000000000000000000e+00,-2.000000000000000000e+00,-5.000000000000000000e+00,-8.538818359375000000e-02,4.263916015625000000e-01,-1.074829101562500000e-01,8.940429687500000000e-01
4.000000000000000000e+00,-2.000000000000000000e+00,-3.000000000000000000e+00,-2.000000000000000000e+00,-5.000000000000000000e+00,-2.000000000000000000e+00,-1.000000000000000000e+00,-2.000000000000000000e+00,-8.538818359375000000e-02,4.263916015625000000e-01,-1.074829101562500000e-01,8.940429687500000000e-01
-1.000000000000000000e+00,6.000000000000000000e+00,-8.000000000000000000e+00,-7.000000000000000000e+00,3.000000000000000000e+00,1.000000000000000000e+00,4.000000000000000000e+00,2.000000000000000000e+00,-8.538818359375000000e-02,4.263916015625000000e-01,-1.074829101562500000e-01,8.940429687500000000e-01
3.000000000000000000e+00,4.000000000000000000e+00,1.600000000000000000e+01,1.000000000000000000e+00,-5.000000000000000000e+00,-1.000000000000000000e+00,-2.000000000000000000e+00,-1.000000000000000000e+00,-8.538818359375000000e-02,4.263916015625000000e-01,-1.074829101562500000e-01,8.940429687500000000e-01
-7.000000000000000000e+00,-6.000000000000000000e+00,4.000000000000000000e+00,5.000000000000000000e+00,-1.000000000000000000e+00,0.000000000000000000e+00,-2.000000000000000000e+00,0.000000000000000000e+00,-8.526611328125000000e-02,4.266967773437500000e-01,-1.069335937500000000e-01,8.939819335937500000e-01
1.000000000000000000e+00,4.000000000000000000e+00,-1.600000000000000000e+01,0.000000000000000000e+00,-2.000000000000000000e+00,-5.000000000000000000e+00,1.000000000000000000e+00,2.000000000000000000e+00,-8.526611328125000000e-02,4.266967773437500000e-01,-1.069335937500000000e-01,8.939819335937500000e-01
-2.000000000000000000e+00,-4.000000000000000000e+00,-2.000000000000000000e+00,-1.200000000000000000e+01,3.000000000000000000e+00,1.000000000000000000e+00,0.000000000000000000e+00,-2.000000000000000000e+00,-8.526611328125000000e-02,4.266967773437500000e-01,-1.069335937500000000e-01,8.939819335937500000e-01
1.000000000000000000e+00,-5.000000000000000000e+00,2.000000000000000000e+01,1.200000000000000000e+01,8.000000000000000000e+00,1.000000000000000000e+00,1.000000000000000000e+00,-1.000000000000000000e+00,-8.526611328125000000e-02,4.266967773437500000e-01,-1.069335937500000000e-01,8.939819335937500000e-01
0.000000000000000000e+00,8.000000000000000000e+00,5.000000000000000000e+00,1.000000000000000000e+00,1.500000000000000000e+01,2.000000000000000000e+00,-3.000000000000000000e+00,-4.000000000000000000e+00,-8.538818359375000000e-02,4.268798828125000000e-01,-1.065063476562500000e-01,8.939208984375000000e-01
1.000000000000000000e+00,1.000000000000000000e+00,-4.000000000000000000e+00,-1.000000000000000000e+00,-5.000000000000000000e+00,-1.000000000000000000e+00,-2.000000000000000000e+00,-1.000000000000000000e+00,-8.538818359375000000e-02,4.268798828125000000e-01,-1.065063476562500000e-01,8.939208984375000000e-01
0.000000000000000000e+00,1.000000000000000000e+00,5.000000000000000000e+00,-5.000000000000000000e+00,-6.000000000000000000e+00,-3.000000000000000000e+00,-2.000000000000000000e+00,1.000000000000000000e+00,-8.538818359375000000e-02,4.268798828125000000e-01,-1.065063476562500000e-01,8.939208984375000000e-01
0.000000000000000000e+00,1.000000000000000000e+00,-1.000000000000000000e+01,-6.000000000000000000e+00,1.000000000000000000e+00,2.000000000000000000e+00,2.000000000000000000e+00,0.000000000000000000e+00,-8.538818359375000000e-02,4.268798828125000000e-01,-1.065063476562500000e-01,8.939208984375000000e-01
-1.000000000000000000e+00,-3.000000000000000000e+00,2.900000000000000000e+01,6.000000000000000000e+00,-6.000000000000000000e+00,-2.000000000000000000e+00,-1.000000000000000000e+00,-1.000000000000000000e+00,-8.502197265625000000e-02,4.266967773437500000e-01,-1.066894531250000000e-01,8.939819335937500000e-01
1.000000000000000000e+00,-4.000000000000000000e+00,-4.400000000000000000e+01,-1.700000000000000000e+01,-1.000000000000000000e+00,-1.000000000000000000e+00,-2.000000000000000000e+00,-5.000000000000000000e+00,-8.502197265625000000e-02,4.266967773437500000e-01,-1.066894531250000000e-01,8.939819335937500000e-01
-3.000000000000000000e+00,-4.000000000000000000e+00,-1.000000000000000000e+00,1.000000000000000000e+00,-2.000000000000000000e+00,-2.000000000000000000e+00,-1.000000000000000000e+00,-3.000000000000000000e+00,-8.502197265625000000e-02,4.266967773437500000e-01,-1.066894531250000000e-01,8.939819335937500000e-01
-5.000000000000000000e+00,-1.000000000000000000e+00,2.000000000000000000e+01,4.000000000000000000e+00,-3.000000000000000000e+00,-1.000000000000000000e+00,2.000000000000000000e+00,-2.000000000000000000e+00,-8.502197265625000000e-02,4.266967773437500000e-01,-1.066894531250000000e-01,8.939819335937500000e-01
-1.000000000000000000e+00,-2.000000000000000000e+00,-8.000000000000000000e+00,1.000000000000000000e+00,-7.000000000000000000e+00,-6.000000000000000000e+00,-2.000000000000000000e+00,1.000000000000000000e+00,-8.453369140625000000e-02,4.261474609375000000e-01,-1.070556640625000000e-01,8.942871093750000000e-01
-2.000000000000000000e+00,-9.000000000000000000e+00,-2.100000000000000000e+01,-1.200000000000000000e+01,-4.000000000000000000e+00,-1.000000000000000000e+00,-6.000000000000000000e+00,-4.000000000000000000e+00,-8.453369140625000000e-02,4.261474609375000000e-01,-1.070556640625000000e-01,8.942871093750000000e-01
1.000000000000000000e+00,1.500000000000000000e+01,1.900000000000000000e+01,-6.000000000000000000e+00,-2.000000000000000000e+00,3.000000000000000000e+00,0.000000000000000000e+00,-1.000000000000000000e+00,-8.453369140625000000e-02,4.261474609375000000e-01,-1.070556640625000000e-01,8.942871093750000000e-01
-1.000000000000000000e+00,-2.000000000000000000e+00,-1.400000000000000000e+01,-1.000000000000000000e+00,-1.000000000000000000e+00,-1.000000000000000000e+00,-2.000000000000000000e+00,2.000000000000000000e+00,-8.453369140625000000e-02,4.261474609375000000e-01,-1.070556640625000000e-01,8.942871093750000000e-01
-2.000000000000000000e+00,-2.000000000000000000e+00,4.000000000000000000e+00,3.000000000000000000e+00,1.000000000000000000e+00,-2.000000000000000000e+00,6.000000000000000000e+00,2.000000000000000000e+00,-8.410644531250000000e-02,4.255981445312500000e-01,-1.074829101562500000e-01,8.945312500000000000e-01
-1.000000000000000000e+00,-4.000000000000000000e+00,1.800000000000000000e+01,-3.000000000000000000e+00,0.000000000000000000e+00,-1.000000000000000000e+00,-4.000000000000000000e+00,1.000000000000000000e+00,-8.410644531250000000e-02,4.255981445312500000e-01,-1.074829101562500000e-01,8.945312500000000000e-01
2.000000000000000000e+00,-6.000000000000000000e+00,-3.000000000000000000e+00,5.000000000000000000e+00,-3.000000000000000000e+00,-2.000000000000000000e+00,-3.000000000000000000e+00,3.000000000000000000e+00,-8.410644531250000000e-02,4.255981445312500000e-01,-1.074829101562500000e-01,8.945312500000000000e-01
1.000000000000000000e+00,-1.000000000000000000e+00,-2.000000000000000000e+00,-4.000000000000000000e+00,8.000000000000000000e+00,-1.000000000000000000e+00,-1.000000000000000000e+00,0.000000000000000000e+00,-8.410644531250000000e-02,4.255981445312500000e-01,-1.074829101562500000e-01,8.945312500000000000e-01
-1.000000000000000000e+00,-1.000000000000000000e+00,-1.000000000000000000e+01,-1.100000000000000000e+01,-6.000000000000000000e+00,4.000000000000000000e+00,-1.000000000000000000e+00,-3.000000000000000000e+00,-8.404541015625000000e-02,4.253540039062500000e-01,-1.077880859375000000e-01,8.945922851562500000e-01
1.000000000000000000e+00,2.000000000000000000e+00,-2.000000000000000000e+00,1.500000000000000000e+01,2.000000000000000000e+00,0.000000000000000000e+00,1.000000000000000000e+00,-2.000000000000000000e+00,-8.404541015625000000e-02,4.253540039062500000e-01,-1.077880859375000000e-01,8.945922851562500000e-01
-1.000000000000000000e+00,-2.000000000000000000e+00,1.000000000000000000e+00,1.000000000000000000e+00,0.000000000000000000e+00,0.000000000000000000e+00,2.000000000000000000e+00,-1.000000000000000000e+00,-8.404541015625000000e-02,4.253540039062500000e-01,-1.077880859375000000e-01,8.945922851562500000e-01
-2.000000000000000000e+00,1.000000000000000000e+00,5.000000000000000000e+00,-1.000000000000000000e+00,-6.000000000000000000e+00,-3.000000000000000000e+00,0.000000000000000000e+00,1.000000000000000000e+00,-8.404541015625000000e-02,4.253540039062500000e-01,-1.077880859375000000e-01,8.945922851562500000e-01
-3.000000000000000000e+00,-6.000000000000000000e+00,-4.000000000000000000e+00,-1.200000000000000000e+01,3.000000000000000000e+00,-2.000000000000000000e+00,1.000000000000000000e+00,0.000000000000000000e+00,-8.441162109375000000e-02,4.251098632812500000e-01,-1.079711914062500000e-01,8.946533203125000000e-01
-2.000000000000000000e+00,2.000000000000000000e+00,1.300000000000000000e+01,-2.000000000000000000e+00,-7.000000000000000000e+00,-1.000000000000000000e+00,0.000000000000000000e+00,-1.000000000000000000e+00,-8.441162109375000000e-02,4.251098632812500000e-01,-1.079711914062500000e-01,8.946533203125000000e-01
1.000000000000000000e+00,-2.000000000000000000e+00,-2.000000000000000000e+00,5.000000000000000000e+00,4.000000000000000000e+00,1.000000000000000000e+00,0.000000000000000000e+00,2.000000000000000000e+00,-8.441162109375000000e-02,4.251098632812500000e-01,-1.079711914062500000e-01,8.946533203125000000e-01
-1.000000000000000000e+00,0.000000000000000000e+00,-1.300000000000000000e+01,3.000000000000000000e+00,-3.000000000000000000e+00,-3.000000000000000000e+00,-1.000000000000000000e+00,-2.000000000000000000e+00,-8.441162109375000000e-02,4.251098632812500000e-01,-1.079711914062500000e-01,8.946533203125000000e-01
1.000000000000000000e+00,1.000000000000000000e+00,-1.500000000000000000e+01,-3.000000000000000000e+00,-3.000000000000000000e+00,0.000000000000000000e+00,-2.000000000000000000e+00,-2.000000000000000000e+00,-8.496093750000000000e-02,4.252319335937500000e-01,-1.081542968750000000e-01,8.945312500000000000e-01
3.000000000000000000e+00,-2.000000000000000000e+00,1.400000000000000000e+01,4.000000000000000000e+00,2.000000000000000000e+00,2.000000000000000000e+00,0.000000000000000000e+00,-4.000000000000000000e+00,-8.496093750000000000e-02,4.252319335937500000e-01,-1.081542968750000000e-01,8.945312500000000000e-01
0.000000000000000000e+00,-9.000000000000000000e+00,-1.700000000000000000e+01,0.000000000000000000e+00,-4.000000000000000000e+00,-4.000000000000000000e+00,-1.000000000000000000e+00,-2.000000000000000000e+00,-8.496093750000000000e-02,4.252319335937500000e-01,-1.081542968750000000e-01,8.945312500000000000e-01
-3.000000000000000000e+00,0.000000000000000000e+00,5.000000000000000000e+00,0.000000000000000000e+00,-2.000000000000000000e+00,-2.000000000000000000e+00,-3.000000000000000000e+00,0.000000000000000000e+00,-8.496093750000000000e-02,4.252319335937500000e-01,-1.081542968750000000e-01,8.945312500000000000e-01
-1.000000000000000000e+00,-5.000000000000000000e+00,-6.000000000000000000e+00,8.000000000000000000e+00,-1.000000000000000000e+00,-1.000000000000000000e+00,-2.000000000000000000e+00,1.000000000000000000e+00,-8.496093750000000000e-02,4.255981445312500000e-01,-1.084594726562500000e-01,8.942871093750000000e-01
3.000000000000000000e+00,6.000000000000000000e+00,-5.000000000000000000e+00,1.000000000000000000e+00,-6.000000000000000000e+00,-4.000000000000000000e+00,-4.000000000000000000e+00,2.000000000000000000e+00,-8.496093750000000000e-02,4.255981445312500000e-01,-1.084594726562500000e-01,8.942871093750000000e-01
-3.000000000000000000e+00,-4.000000000000000000e+00,-3.000000000000000000e+00,-5.000000000000000000e+00,1.000000000000000000e+00,-2.000000000000000000e+00,-3.000000000000000000e+00,-3.000000000000000000e+00,-8.496093750000000000e-02,4.255981445312500000e-01,-1.084594726562500000e-01,8.942871093750000000e-01
-3.000000000000000000e+00,1.000000000000000000e+00,-8.000000000000000000e+00,-3.000000000000000000e+00,-1.000000000000000000e+00,0.000000000000000000e+00,-1.000000000000000000e+00,-2.000000000000000000e+00,-8.496093750000000000e-02,4.255981445312500000e-01,-1.084594726562500000e-01,8.942871093750000000e-01
-4.000000000000000000e+00,2.000000000000000000e+00,3.300000000000000000e+01,1.000000000000000000e+00,-2.000000000000000000e+00,2.000000000000000000e+00,4.000000000000000000e+00,-3.000000000000000000e+00,-8.496093750000000000e-02,4.261474609375000000e-01,-1.084594726562500000e-01,8.940429687500000000e-01
-1.000000000000000000e+00,3.000000000000000000e+00,-1.800000000000000000e+01,2.000000000000000000e+00,3.000000000000000000e+00,-1.000000000000000000e+00,0.000000000000000000e+00,0.000000000000000000e+00,-8.496093750000000000e-02,4.261474609375000000e-01,-1.084594726562500000e-01,8.940429687500000000e-01
-3.000000000000000000e+00,0.000000000000000000e+00,1.800000000000000000e+01,6.000000000000000000e+00,3.000000000000000000e+00,0.000000000000000000e+00,-1.000000000000000000e+00,-2.000000000000000000e+00,-8.496093750000000000e-02,4.261474609375000000e-01,-1.084594726562500000e-01,8.940429687500000000e-01
-3.000000000000000000e+00,-5.000000000000000000e+00,-3.500000000000000000e+01,-1.500000000000000000e+01,-4.000000000000000000e+00,-3.000000000000000000e+00,1.000000000000000000e+00,1.000000000000000000e+00,-8.496093750000000000e-02,4.261474609375000000e-01,-1.084594726562500000e-01,8.940429687500000000e-01
-1.000000000000000000e+00,4.000000000000000000e+00,3.100000000000000000e+01,-5.000000000000000000e+00,-4.000000000000000000e+00,-4.000000000000000000e+00,-2.000000000000000000e+00,-2.000000000000000000e+00,-8.526611328125000000e-02,4.268188476562500000e-01,-1.082763671875000000e-01,8.937377929687500000e-01
-2.000000000000000000e+00,-6.000000000000000000e+00,-4.000000000000000000e+00,2.500000000000000000e+01,-3.000000000000000000e+00,-2.000000000000000000e+00,-1.000000000000000000e+00,2.000000000000000000e+00,-8.526611328125000000e-02,4.268188476562500000e-01,-1.082763671875000000e-01,8.937377929687500000e-01
3.000000000000000000e+00,5.000000000000000000e+00,-4.000000000000000000e+00,-3.000000000000000000e+00,-2.000000000000000000e+00,2.000000000000000000e+00,0.000000000000000000e+00,1.000000000000000000e+00,-8.526611328125000000e-02,4.268188476562500000e-01,-1.082763671875000000e-01,8.937377929687500000e-01
0.000000000000000000e+00,3.000000000000000000e+00,4.000000000000000000e+00,2.700000000000000000e+01,4.000000000000000000e+00,0.000000000000000000e+00,-2.000000000000000000e+00,-2.000000000000000000e+00,-8.526611328125000000e-02,4.268188476562500000e-01,-1.082763671875000000e-01,8.937377929687500000e-01
3.000000000000000000e+00,2.000000000000000000e+00,-1.000000000000000000e+00,-2.700000000000000000e+01,-5.000000000000000000e+00,2.000000000000000000e+00,-3.000000000000000000e+00,2.000000000000000000e+00,-8.581542968750000000e-02,4.274291992187500000e-01,-1.082763671875000000e-01,8.933715820312500000e-01
1.000000000000000000e+00,0.000000000000000000e+00,1.200000000000000000e+01,-1.200000000000000000e+01,1.000000000000000000e+00,-2.000000000000000000e+00,0.000000000000000000e+00,-2.000000000000000000e+00,-8.581542968750000000e-02,4.274291992187500000e-01,-1.082763671875000000e-01,8.933715820312500000e-01
-3.000000000000000000e+00,-6.000000000000000000e+00,-2.100000000000000000e+01,1.000000000000000000e+00,1.000000000000000000e+00,-4.000000000000000000e+00,-4.000000000000000000e+00,-6.000000000000000000e+00,-8.581542968750000000e-02,4.274291992187500000e-01,-1.082763671875000000e-01,8.933715820312500000e-01
0.000000000000000000e+00,-4.000000000000000000e+00,3.200000000000000000e+01,8.000000000000000000e+00,5.000000000000000000e+00,0.000000000000000000e+00,-1.000000000000000000e+00,-3.000000000000000000e+00,-8.581542968750000000e-02,4.274291992187500000e-01,-1.082763671875000000e-01,8.933715820312500000e-01
-2.000000000000000000e+00,-5.000000000000000000e+00,-6.200000000000000000e+01,-1.000000000000000000e+01,-2.000000000000000000e+00,-7.000000000000000000e+00,-2.000000000000000000e+00,-2.000000000000000000e+00,-8.599853515625000000e-02,4.277954101562500000e-01,-1.084594726562500000e-01,8.931884765625000000e-01
-4.000000000000000000e+00,-1.000000000000000000e+00,1.900000000000000000e+01,9.000000000000000000e+00,2.000000000000000000e+00,-1.000000000000000000e+00,-1.000000000000000000e+00,0.000000000000000000e+00,-8.599853515625000000e-02,4.277954101562500000e-01,-1.084594726562500000e-01,8.931884765625000000e-01
-2.000000000000000000e+00,5.000000000000000000e+00,1.000000000000000000e+00,-1.100000000000000000e+01,-4.000000000000000000e+00,-2.000000000000000000e+00,1.000000000000000000e+00,0.000000000000000000e+00,-8.599853515625000000e-02,4.277954101562500000e-01,-1.084594726562500000e-01,8.931884765625000000e-01
0.000000000000000000e+00,-1.000000000000000000e+00,-9.000000000000000000e+00,-1.700000000000000000e+01,-2.000000000000000000e+00,0.000000000000000000e+00,4.000000000000000000e+00,-1.000000000000000000e+00,-8.599853515625000000e-02,4.277954101562500000e-01,-1.084594726562500000e-01,8.931884765625000000e-01
1.000000000000000000e+00,2.000000000000000000e+00,1.400000000000000000e+01,1.800000000000000000e+01,1.000000000000000000e+00,-1.000000000000000000e+00,0.000000000000000000e+00,0.000000000000000000e+00,-8.636474609375000000e-02,4.281616210937500000e-01,-1.083984375000000000e-01,8.930053710937500000e-01
-1.000000000000000000e+00,-7.000000000000000000e+00,5.000000000000000000e+00,-2.500000000000000000e+01,-1.300000000000000000e+01,-3.000000000000000000e+00,-1.000000000000000000e+00,-4.000000000000000000e+00,-8.636474609375000000e-02,4.281616210937500000e-01,-1.083984375000000000e-01,8.930053710937500000e-01
0.000000000000000000e+00,3.000000000000000000e+00,0.000000000000000000e+00,3.900000000000000000e+01,4.000000000000000000e+00,2.000000000000000000e+00,-2.000000000000000000e+00,-4.000000000000000000e+00,-8.636474609375000000e-02,4.281616210937500000e-01,-1.083984375000000000e-01,8.930053710937500000e-01
-2.000000000000000000e+00,-2.000000000000000000e+00,1.000000000000000000e+01,-3.100000000000000000e+01,-2.000000000000000000e+00,4.000000000000000000e+00,3.000000000000000000e+00,-1.000000000000000000e+00,-8.636474609375000000e-02,4.281616210937500000e-01,-1.083984375000000000e-01,8.930053710937500000e-01
-3.000000000000000000e+00,-1.000000000000000000e+00,7.000000000000000000e+00,5.000000000000000000e+00,2.000000000000000000e+00,1.000000000000000000e+00,-1.000000000000000000e+00,-1.000000000000000000e+00,-8.660888671875000000e-02,4.285278320312500000e-01,-1.081542968750000000e-01,8.928222656250000000e-01
-1.000000000000000000e+00,-2.000000000000000000e+00,-1.900000000000000000e+01,1.000000000000000000e+01,4.000000000000000000e+00,-1.000000000000000000e+00,-1.000000000000000000e+00,4.000000000000000000e+00,-8.660888671875000000e-02,4.285278320312500000e-01,-1.081542968750000000e-01,8.928222656250000000e-01
-3.000000000000000000e+00,-5.000000000000000000e+00,2.500000000000000000e+01,-4.000000000000000000e+00,-2.000000000000000000e+00,-5.000000000000000000e+00,-1.000000000000000000e+00,0.000000000000000000e+00,-8.660888671875000000e-02,4.285278320312500000e-01,-1.081542968750000000e-01,8.928222656250000000e-01
3.000000000000000000e+00,1.000000000000000000e+00,6.000000000000000000e+00,-1.500000000000000000e+01,-1.000000000000000000e+01,-5.000000000000000000e+00,-3.000000000000000000e+00,0.000000000000000000e+00,-8.660888671875000000e-02,4.285278320312500000e-01,-1.081542968750000000e-01,8.928222656250000000e-01
1.000000000000000000e+00,-7.000000000000000000e+00,-7.500000000000000000e+01,-1.200000000000000000e+01,4.000000000000000000e+00,2.000000000000000000e+00,-1.000000000000000000e+00,-4.000000000000000000e+00,-8.728027343750000000e-02,4.291381835937500000e-01,-1.079101562500000000e-01,8.925170898437500000e-01
1.000000000000000000e+00,0.000000000000000000e+00,-5.000000000000000000e+00,0.000000000000000000e+00,-1.000000000000000000e+00,-2.000000000000000000e+00,-4.000000000000000000e+00,-2.000000000000000000e+00,-8.728027343750000000e-02,4.291381835937500000e-01,-1.079101562500000000e-01,8.925170898437500000e-01
-1.000000000000000000e+00,-6.000000000000000000e+00,0.000000000000000000e+00,-1.400000000000000000e+01,-6.000000000000000000e+00,0.000000000000000000e+00,-3.000000000000000000e+00,1.000000000000000000e+00,-8.728027343750000000e-02,4.291381835937500000e-01,-1.079101562500000000e-01,8.925170898437500000e-01
-2.000000000000000000e+00,1.200000000000000000e+01,-1.000000000000000000e+00,9.000000000000000000e+00,-4.000000000000000000e+00,0.000000000000000000e+00,-2.000000000000000000e+00,2.000000000000000000e+00,-8.728027343750000000e-02,4.291381835937500000e-01,-1.079101562500000000e-01,8.925170898437500000e-01
-4.000000000000000000e+00,-3.000000000000000000e+00,2.800000000000000000e+01,7.000000000000000000e+00,4.000000000000000000e+00,3.000000000000000000e+00,2.000000000000000000e+00,0.000000000000000000e+00,-8.721923828125000000e-02,4.296264648437500000e-01,-1.077270507812500000e-01,8.922729492187500000e-01
-2.000000000000000000e+00,1.000000000000000000e+00,-1.600000000000000000e+01,1.100000000000000000e+01,1.000000000000000000e+00,1.000000000000000000e+00,2.000000000000000000e+00,-3.000000000000000000e+00,-8.721923828125000000e-02,4.296264648437500000e-01,-1.077270507812500000e-01,8.922729492187500000e-01
-2.000000000000000000e+00,-5.000000000000000000e+00,-1.600000000000000000e+01,-2.700000000000000000e+01,-5.000000000000000000e+00,-4.000000000000000000e+00,-3.000000000000000000e+00,-3.000000000000000000e+00,-8.721923828125000000e-02,4.296264648437500000e-01,-1.077270507812500000e-01,8.922729492187500000e-01
1.000000000000000000e+00,-7.000000000000000000e+00,8.000000000000000000e+00,1.000000000000000000e+01,0.000000000000000000e+00,-1.000000000000000000e+00,-1.000000000000000000e+00,-2.000000000000000000e+00,-8.721923828125000000e-02,4.296264648437500000e-01,-1.077270507812500000e-01,8.922729492187500000e-01
1.000000000000000000e+00,-1.000000000000000000e+00,-2.000000000000000000e+00,1.300000000000000000e+01,1.000000000000000000e+00,-2.000000000000000000e+00,0.000000000000000000e+00,3.000000000000000000e+00,-8.691406250000000000e-02,4.301757812500000000e-01,-1.076049804687500000e-01,8.920288085937500000e-01
-1.000000000000000000e+00,-1.000000000000000000e+00,-1.200000000000000000e+01,1.500000000000000000e+01,6.000000000000000000e+00,4.000000000000000000e+00,5.000000000000000000e+00,2.000000000000000000e+00,-8.691406250000000000e-02,4.301757812500000000e-01,-1.076049804687500000e-01,8.920288085937500000e-01
0.000000000000000000e+00,2.000000000000000000e+00,-6.000000000000000000e+00,-4.500000000000000000e+01,-4.000000000000000000e+00,-1.000000000000000000e+00,2.000000000000000000e+00,-1.000000000000000000e+00,-8.691406250000000000e-02,4.301757812500000000e-01,-1.076049804687500000e-01,8.920288085937500000e-01
-3.000000000000000000e+00,0.000000000000000000e+00,-1.400000000000000000e+01,5.000000000000000000e+00,1.000000000000000000e+00,-1.000000000000000000e+00,-2.000000000000000000e+00,-3.000000000000000000e+00,-8.691406250000000000e-02,4.301757812500000000e-01,-1.076049804687500000e-01,8.920288085937500000e-01
-3.000000000000000000e+00,-7.000000000000000000e+00,1.300000000000000000e+01,0.000000000000000000e+00,-8.000000000000000000e+00,-4.000000000000000000e+00,-6.000000000000000000e+00,1.000000000000000000e+00,-8.691406250000000000e-02,4.309692382812500000e-01,-1.073608398437500000e-01,8.917236328125000000e-01
-1.000000000000000000e+00,1.000000000000000000e+00,5.000000000000000000e+00,-9.000000000000000000e+00,-4.000000000000000000e+00,-2.000000000000000000e+00,-1.000000000000000000e+00,1.000000000000000000e+00,-8.691406250000000000e-02,4.309692382812500000e-01,-1.073608398437500000e-01,8.917236328125000000e-01
-5.000000000000000000e+00,-5.000000000000000000e+00,-1.000000000000000000e+01,2.600000000000000000e+01,5.000000000000000000e+00,2.000000000000000000e+00,-1.000000000000000000e+00,-1.000000000000000000e+00,-8.691406250000000000e-02,4.309692382812500000e-01,-1.073608398437500000e-01,8.917236328125000000e-01
1.000000000000000000e+00,4.000000000000000000e+00,7.000000000000000000e+00,-1.300000000000000000e+01,1.000000000000000000e+01,6.000000000000000000e+00,-1.000000000000000000e+00,-1.000000000000000000e+00,-8.691406250000000000e-02,4.309692382812500000e-01,-1.073608398437500000e-01,8.917236328125000000e-01
1.000000000000000000e+00,5.000000000000000000e+00,2.000000000000000000e+01,-1.000000000000000000e+00,-8.000000000000000000e+00,-3.000000000000000000e+00,0.000000000000000000e+00,-3.000000000000000000e+00,-8.673095703125000000e-02,4.316406250000000000e-01,-1.072387695312500000e-01,8.914184570312500000e-01
-1.000000000000000000e+00,1.000000000000000000e+00,5.000000000000000000e+00,2.000000000000000000e+00,1.000000000000000000e+01,1.000000000000000000e+00,-3.000000000000000000e+00,-1.000000000000000000e+00,-8.673095703125000000e-02,4.316406250000000000e-01,-1.072387695312500000e-01,8.914184570312500000e-01
0.000000000000000000e+00,-3.000000000000000000e+00,6.000000000000000000e+00,2.000000000000000000e+00,6.000000000000000000e+00,4.000000000000000000e+00,3.000000000000000000e+00,1.000000000000000000e+00,-8.673095703125000000e-02,4.316406250000000000e-01,-1.072387695312500000e-01,8.914184570312500000e-01
-2.000000000000000000e+00,-6.000000000000000000e+00,-2.600000000000000000e+01,-3.000000000000000000e+00,0.000000000000000000e+00,-2.000000000000000000e+00,-3.000000000000000000e+00,-2.000000000000000000e+00,-8.673095703125000000e-02,4.316406250000000000e-01,-1.072387695312500000e-01,8.914184570312500000e-01
-1.000000000000000000e+00,1.000000000000000000e+00,8.000000000000000000e+00,1.800000000000000000e+01,3.000000000000000000e+00,-1.000000000000000000e+00,-1.000000000000000000e+00,-3.000000000000000000e+00,-8.648681640625000000e-02,4.319458007812500000e-01,-1.070556640625000000e-01,8.912963867187500000e-01
-1.000000000000000000e+00,-3.000000000000000000e+00,-7.000000000000000000e+00,-1.200000000000000000e+01,-5.000000000000000000e+00,0.000000000000000000e+00,-1.000000000000000000e+00,0.000000000000000000e+00,-8.648681640625000000e-02,4.319458007812500000e-01,-1.070556640625000000e-01,8.912963867187500000e-01
-1.000000000000000000e+00,-1.000000000000000000e+00,-2.000000000000000000e+00,2.200000000000000000e+01,-1.000000000000000000e+00,-5.000000000000000000e+00,-4.000000000000000000e+00,1.000000000000000000e+00,-8.648681640625000000e-02,4.319458007812500000e-01,-1.070556640625000000e-01,8.912963867187500000e-01
0.000000000000000000e+00,-1.100000000000000000e+01,1.500000000000000000e+01,3.000000000000000000e+00,-3.000000000000000000e+00,-4.000000000000000000e+00,-2.000000000000000000e+00,-2.000000000000000000e+00,-8.648681640625000000e-02,4.319458007812500000e-01,-1.070556640625000000e-01,8.912963867187500000e-01
-2.000000000000000000e+00,1.000000000000000000e+00,1.000000000000000000e+01,-1.600000000000000000e+01,-3.000000000000000000e+00,-1.000000000000000000e+00,0.000000000000000000e+00,-3.000000000000000000e+00,-8.685302734375000000e-02,4.318237304687500000e-01,-1.071166992187500000e-01,8.913574218750000000e-01
-2.000000000000000000e+00,-4.000000000000000000e+00,-1.800000000000000000e+01,-5.000000000000000000e+00,-4.000000000000000000e+00,-3.000000000000000000e+00,0.000000000000000000e+00,0.000000000000000000e+00,-8.685302734375000000e-02,4.318237304687500000e-01,-1.071166992187500000e-01,8.913574218750000000e-01
0.000000000000000000e+00,0.000000000000000000e+00,-6.000000000000000000e+00,-1.700000000000000000e+01,-3.000000000000000000e+00,2.000000000000000000e+00,0.000000000000000000e+00,1.000000000000000000e+00,-8.685302734375000000e-02,4.318237304687500000e-01,-1.071166992187500000e-01,8.913574218750000000e-01
-4.000000000000000000e+00,-6.000000000000000000e+00,9.000000000000000000e+00,2.100000000000000000e+01,2.000000000000000000e+00,1.000000000000000000e+00,3.000000000000000000e+00,1.000000000000000000e+00,-8.685302734375000000e-02,4.318237304687500000e-01,-1.071166992187500000e-01,8.913574218750000000e-01
-4.000000000000000000e+00,0.000000000000000000e+00,7.000000000000000000e+00,1.100000000000000000e+01,-2.000000000000000000e+00,-5.000000000000000000e+00,-3.000000000000000000e+00,-5.000000000000000000e+00,-8.752441406250000000e-02,4.315185546875000000e-01,-1.072998046875000000e-01,8.913574218750000000e-01
-1.000000000000000000e+00,0.000000000000000000e+00,1.000000000000000000e+01,-1.200000000000000000e+01,4.000000000000000000e+00,0.000000000000000000e+00,-1.000000000000000000e+00,-3.000000000000000000e+00,-8.752441406250000000e-02,4.315185546875000000e-01,-1.072998046875000000e-01,8.913574218750000000e-01
1.000000000000000000e+00,2.000000000000000000e+00,7.000000000000000000e+00,1.400000000000000000e+01,-3.000000000000000000e+00,0.000000000000000000e+00,1.000000000000000000e+00,-1.000000000000000000e+00,-8.752441406250000000e-02,4.315185546875000000e-01,-1.072998046875000000e-01,8.913574218750000000e-01
2.000000000000000000e+00,0.000000000000000000e+00,-1.200000000000000000e+01,-1.700000000000000000e+01,-6.000000000000000000e+00,-1.000000000000000000e+00,-1.000000000000000000e+00,3.000000000000000000e+00,-8.752441406250000000e-02,4.315185546875000000e-01,-1.072998046875000000e-01,8.913574218750000000e-01
1.000000000000000000e+00,1.000000000000000000e+00,-7.000000000000000000e+00,-6.000000000000000000e+00,1.000000000000000000e+00,1.000000000000000000e+00,1.000000000000000000e+00,1.000000000000000000e+00,-8.752441406250000000e-02,4.315185546875000000e-01,-1.072998046875000000e-01,8.913574218750000000e-01
1.000000000000000000e+00,-1.000000000000000000e+00,5.000000000000000000e+00,-1.000000000000000000e+00,-5.000000000000000000e+00,-3.000000000000000000e+00,-5.000000000000000000e+00,-2.000000000000000000e+00,-8.752441406250000000e-02,4.315185546875000000e-01,-1.072998046875000000e-01,8.913574218750000000e-01
0.000000000000000000e+00,-1.000000000000000000e+00,-5.000000000000000000e+00,2.000000000000000000e+00,-4.000000000000000000e+00,0.000000000000000000e+00,-2.000000000000000000e+00,-1.000000000000000000e+00,-8.752441406250000000e-02,4.315185546875000000e-01,-1.072998046875000000e-01,8.913574218750000000e-01
-2.000000000000000000e+00,-2.000000000000000000e+00,-1.000000000000000000e+01,-2.000000000000000000e+00,-6.000000000000000000e+00,-1.000000000000000000e+00,-3.000000000000000000e+00,-2.000000000000000000e+00,-8.752441406250000000e-02,4.315185546875000000e-01,-1.072998046875000000e-01,8.913574218750000000e-01
-3.000000000000000000e+00,-5.000000000000000000e+00,-3.000000000000000000e+00,1.400000000000000000e+01,5.000000000000000000e+00,3.000000000000000000e+00,-2.000000000000000000e+00,1.000000000000000000e+00,-8.770751953125000000e-02,4.314575195312500000e-01,-1.071777343750000000e-01,8.914184570312500000e-01
1.000000000000000000e+00,5.000000000000000000e+00,1.300000000000000000e+01,-9.000000000000000000e+00,-4.000000000000000000e+00,-1.000000000000000000e+00,0.000000000000000000e+00,-2.000000000000000000e+00,-8.770751953125000000e-02,4.314575195312500000e-01,-1.071777343750000000e-01,8.914184570312500000e-01
2.000000000000000000e+00,-8.000000000000000000e+00,-1.100000000000000000e+01,2.000000000000000000e+00,9.000000000000000000e+00,-2.000000000000000000e+00,-2.000000000000000000e+00,-2.000000000000000000e+00,-8.770751953125000000e-02,4.314575195312500000e-01,-1.071777343750000000e-01,8.914184570312500000e-01
-2.000000000000000000e+00,5.000000000000000000e+00,2.000000000000000000e+00,1.000000000000000000e+01,-7.000000000000000000e+00,-4.000000000000000000e+00,-1.000000000000000000e+00,-2.000000000000000000e+00,-8.770751953125000000e-02,4.314575195312500000e-01,-1.071777343750000000e-01,8.914184570312500000e-01
2.000000000000000000e+00,-4.000000000000000000e+00,-2.000000000000000000e+00,-3.400000000000000000e+01,-6.000000000000000000e+00,-7.000000000000000000e+00,0.000000000000000000e+00,1.000000000000000000e+00,-8.801269531250000000e-02,4.310913085937500000e-01,-1.070556640625000000e-01,8.915405273437500000e-01
1.000000000000000000e+00,1.000000000000000000e+00,1.000000000000000000e+01,6.000000000000000000e+00,-1.000000000000000000e+00,0.000000000000000000e+00,1.000000000000000000e+00,-1.000000000000000000e+00,-8.801269531250000000e-02,4.310913085937500000e-01,-1.070556640625000000e-01,8.915405273437500000e-01
-3.000000000000000000e+00,-2.000000000000000000e+00,1.000000000000000000e+00,-6.000000000000000000e+00,-5.000000000000000000e+00,0.000000000000000000e+00,0.000000000000000000e+00,-1.000000000000000000e+00,-8.801269531250000000e-02,4.310913085937500000e-01,-1.070556640625000000e-01,8.915405273437500000e-01
-1.000000000000000000e+00,3.000000000000000000e+00,-7.000000000000000000e+00,1.000000000000000000e+01,1.000000000000000000e+00,-1.000000000000000000e+00,1.000000000000000000e+00,1.000000000000000000e+00,-8.801269531250000000e-02,4.310913085937500000e-01,-1.070556640625000000e-01,8.915405273437500000e-01
3.000000000000000000e+00,2.000000000000000000e+00,1.000000000000000000e+00,2.000000000000000000e+00,-1.000000000000000000e+00,0.000000000000000000e+00,-3.000000000000000000e+00,0.000000000000000000e+00,-8.807373046875000000e-02,4.306030273437500000e-01,-1.072998046875000000e-01,8.917846679687500000e-01
-4.000000000000000000e+00,-7.000000000000000000e+00,6.000000000000000000e+00,1.000000000000000000e+00,0.000000000000000000e+00,1.000000000000000000e+00,0.000000000000000000e+00,0.000000000000000000e+00,-8.807373046875000000e-02,4.306030273437500000e-01,-1.072998046875000000e-01,8.917846679687500000e-01
-2.000000000000000000e+00,3.000000000000000000e+00,-1.000000000000000000e+00,2.000000000000000000e+00,0.000000000000000000e+00,-4.000000000000000000e+00,0.000000000000000000e+00,0.000000000000000000e+00,-8.807373046875000000e-02,4.306030273437500000e-01,-1.072998046875000000e-01,8.917846679687500000e-01
0.000000000000000000e+00,-3.000000000000000000e+00,-1.800000000000000000e+01,-9.000000000000000000e+00,2.000000000000000000e+00,-1.000000000000000000e+00,-4.000000000000000000e+00,0.000000000000000000e+00,-8.807373046875000000e-02,4.306030273437500000e-01,-1.072998046875000000e-01,8.917846679687500000e-01
-1.000000000000000000e+00,-3.000000000000000000e+00,2.200000000000000000e+01,1.100000000000000000e+01,-2.000000000000000000e+00,0.000000000000000000e+00,1.000000000000000000e+00,0.000000000000000000e+00,-8.752441406250000000e-02,4.304199218750000000e-01,-1.075439453125000000e-01,8.919067382812500000e-01
-2.000000000000000000e+00,-2.000000000000000000e+00,-2.200000000000000000e+01,-9.000000000000000000e+00,0.000000000000000000e+00,-1.000000000000000000e+00,-2.000000000000000000e+00,-3.000000000000000000e+00,-8.752441406250000000e-02,4.304199218750000000e-01,-1.075439453125000000e-01,8.919067382812500000e-01
-4.000000000000000000e+00,-1.000000000000000000e+00,1.600000000000000000e+01,-1.000000000000000000e+00,-2.000000000000000000e+00,-1.000000000000000000e+00,0.000000000000000000e+00,-2.000000000000000000e+00,-8.752441406250000000e-02,4.304199218750000000e-01,-1.075439453125000000e-01,8.919067382812500000e-01
1.000000000000000000e+00,0.000000000000000000e+00,-1.000000000000000000e+01,0.000000000000000000e+00,-2.000000000000000000e+00,-5.000000000000000000e+00,-4.000000000000000000e+00,1.000000000000000000e+00,-8.752441406250000000e-02,4.304199218750000000e-01,-1.075439453125000000e-01,8.919067382812500000e-01
-3.000000000000000000e+00,8.000000000000000000e+00,3.000000000000000000e+00,8.000000000000000000e+00,-5.000000000000000000e+00,-1.000000000000000000e+00,-2.000000000000000000e+00,-1.000000000000000000e+00,-8.715820312500000000e-02,4.304199218750000000e-01,-1.074218750000000000e-01,8.919067382812500000e-01
-3.000000000000000000e+00,0.000000000000000000e+00,7.000000000000000000e+00,-1.200000000000000000e+01,-4.000000000000000000e+00,0.000000000000000000e+00,-4.000000000000000000e+00,-2.000000000000000000e+00,-8.715820312500000000e-02,4.304199218750000000e-01,-1.074218750000000000e-01,8.919067382812500000e-01
0.000000000000000000e+00,-2.000000000000000000e+00,7.000000000000000000e+00,-8.000000000000000000e+00,3.000000000000000000e+00,3.000000000000000000e+00,1.000000000000000000e+00,-1.000000000000000000e+00,-8.715820312500000000e-02,4.304199218750000000e-01,-1.074218750000000000e-01,8.919067382812500000e-01
0.000000000000000000e+00,-4.000000000000000000e+00,-9.000000000000000000e+00,-1.600000000000000000e+01,-3.000000000000000000e+00,-1.000000000000000000e+00,1.000000000000000000e+00,-2.000000000000000000e+00,-8.715820312500000000e-02,4.304199218750000000e-01,-1.074218750000000000e-01,8.919067382812500000e-01
1.000000000000000000e+00,-4.000000000000000000e+00,2.000000000000000000e+00,1.000000000000000000e+00,-1.000000000000000000e+00,-2.000000000000000000e+00,-1.000000000000000000e+00,0.000000000000000000e+00,-8.764648437500000000e-02,4.306640625000000000e-01,-1.068115234375000000e-01,8.918457031250000000e-01
0.000000000000000000e+00,0.000000000000000000e+00,9.000000000000000000e+00,0.000000000000000000e+00,-3.000000000000000000e+00,-4.000000000000000000e+00,-1.000000000000000000e+00,-1.000000000000000000e+00,-8.764648437500000000e-02,4.306640625000000000e-01,-1.068115234375000000e-01,8.918457031250000000e-01
-2.000000000000000000e+00,1.000000000000000000e+00,-1.800000000000000000e+01,-7.000000000000000000e+00,-2.000000000000000000e+00,0.000000000000000000e+00,-2.000000000000000000e+00,-1.000000000000000000e+00,-8.764648437500000000e-02,4.306640625000000000e-01,-1.068115234375000000e-01,8.918457031250000000e-01
-1.000000000000000000e+00,1.000000000000000000e+00,2.200000000000000000e+01,1.600000000000000000e+01,2.000000000000000000e+00,-2.000000000000000000e+00,0.000000000000000000e+00,-3.000000000000000000e+00,-8.764648437500000000e-02,4.306640625000000000e-01,-1.068115234375000000e-01,8.918457031250000000e-01
0.000000000000000000e+00,-3.000000000000000000e+00,-2.500000000000000000e+01,-9.000000000000000000e+00,-4.000000000000000000e+00,0.000000000000000000e+00,2.000000000000000000e+00,-2.000000000000000000e+00,-8.825683593750000000e-02,4.306640625000000000e-01,-1.069946289062500000e-01,8.917846679687500000e-01
0.000000000000000000e+00,-2.000000000000000000e+00,-3.000000000000000000e+00,-2.000000000000000000e+00,-2.000000000000000000e+00,-4.000000000000000000e+00,-3.000000000000000000e+00,-1.000000000000000000e+00,-8.825683593750000000e-02,4.306640625000000000e-01,-1.069946289062500000e-01,8.917846679687500000e-01
0.000000000000000000e+00,-1.000000000000000000e+00,-2.000000000000000000e+00,-3.000000000000000000e+00,-1.000000000000000000e+00,-1.000000000000000000e+00,-5.000000000000000000e+00,1.000000000000000000e+00,-8.825683593750000000e-02,4.306640625000000000e-01,-1.069946289062500000e-01,8.917846679687500000e-01
-1.000000000000000000e+00,2.000000000000000000e+00,0.000000000000000000e+00,1.000000000000000000e+01,0.000000000000000000e+00,2.000000000000000000e+00,-3.000000000000000000e+00,1.000000000000000000e+00,-8.825683593750000000e-02,4.306640625000000000e-01,-1.069946289062500000e-01,8.917846679687500000e-01
1.000000000000000000e+00,-3.000000000000000000e+00,-1.000000000000000000e+00,-1.000000000000000000e+01,-1.000000000000000000e+00,-2.000000000000000000e+00,-2.000000000000000000e+00,-2.000000000000000000e+00,-8.825683593750000000e-02,4.305419921875000000e-01,-1.074218750000000000e-01,8.917236328125000000e-01
-2.000000000000000000e+00,-2.000000000000000000e+00,1.200000000000000000e+01,1.400000000000000000e+01,3.000000000000000000e+00,2.000000000000000000e+00,1.000000000000000000e+00,2.000000000000000000e+00,-8.825683593750000000e-02,4.305419921875000000e-01,-1.074218750000000000e-01,8.917236328125000000e-01
1.000000000000000000e+00,0.000000000000000000e+00,1.500000000000000000e+01,3.000000000000000000e+00,-1.000000000000000000e+00,-1.000000000000000000e+00,2.000000000000000000e+00,0.000000000000000000e+00,-8.825683593750000000e-02,4.305419921875000000e-01,-1.074218750000000000e-01,8.917236328125000000e-01
-4.000000000000000000e+00,0.000000000000000000e+00,-2.000000000000000000e+01,1.400000000000000000e+01,-1.000000000000000000e+00,-4.000000000000000000e+00,-1.000000000000000000e+00,-1.000000000000000000e+00,-8.825683593750000000e-02,4.305419921875000000e-01,-1.074218750000000000e-01,8.917236328125000000e-01
0.000000000000000000e+00,3.000000000000000000e+00,-2.300000000000000000e+01,-3.900000000000000000e+01,-5.000000000000000000e+00,-2.000000000000000000e+00,-2.000000000000000000e+00,-3.000000000000000000e+00,-8.758544921875000000e-02,4.307250976562500000e-01,-1.075439453125000000e-01,8.917236328125000000e-01
-3.000000000000000000e+00,-1.100000000000000000e+01,-1.000000000000000000e+00,3.000000000000000000e+00,-1.000000000000000000e+00,-3.000000000000000000e+00,1.000000000000000000e+00,-6.000000000000000000e+00,-8.758544921875000000e-02,4.307250976562500000e-01,-1.075439453125000000e-01,8.917236328125000000e-01
0.000000000000000000e+00,7.000000000000000000e+00,1.700000000000000000e+01,4.100000000000000000e+01,5.000000000000000000e+00,1.000000000000000000e+00,-3.000000000000000000e+00,-2.000000000000000000e+00,-8.758544921875000000e-02,4.307250976562500000e-01,-1.075439453125000000e-01,8.917236328125000000e-01
2.000000000000000000e+00,-1.000000000000000000e+00,-9.000000000000000000e+00,-3.200000000000000000e+01,-3.000000000000000000e+00,5.000000000000000000e+00,4.000000000000000000e+00,3.000000000000000000e+00,-8.758544921875000000e-02,4.307250976562500000e-01,-1.075439453125000000e-01,8.917236328125000000e-01
0.000000000000000000e+00,2.000000000000000000e+00,8.000000000000000000e+00,1.000000000000000000e+01,-5.000000000000000000e+00,-5.000000000000000000e+00,0.000000000000000000e+00,1.000000000000000000e+00,-8.819580078125000000e-02,4.310913085937500000e-01,-1.070556640625000000e-01,8.915405273437500000e-01
-1.000000000000000000e+00,4.000000000000000000e+00,-4.000000000000000000e+00,-1.000000000000000000e+01,5.000000000000000000e+00,0.000000000000000000e+00,1.000000000000000000e+00,1.000000000000000000e+00,-8.819580078125000000e-02,4.310913085937500000e-01,-1.070556640625000000e-01,8.915405273437500000e-01
-1.000000000000000000e+00,-7.000000000000000000e+00,9.000000000000000000e+00,-3.000000000000000000e+00,-1.000000000000000000e+00,-4.000000000000000000e+00,0.000000000000000000e+00,3.000000000000000000e+00,-8.819580078125000000e-02,4.310913085937500000e-01,-1.070556640625000000e-01,8.915405273437500000e-01
0.000000000000000000e+00,-2.000000000000000000e+00,1.000000000000000000e+00,1.000000000000000000e+01,0.000000000000000000e+00,0.000000000000000000e+00,0.000000000000000000e+00,-2.000000000000000000e+00,-8.819580078125000000e-02,4.310913085937500000e-01,-1.070556640625000000e-01,8.915405273437500000e-01
-4.000000000000000000e+00,-4.000000000000000000e+00,-1.000000000000000000e+01,-4.000000000000000000e+00,1.000000000000000000e+00,1.000000000000000000e+00,0.000000000000000000e+00,-1.000000000000000000e+00,-8.905029296875000000e-02,4.311523437500000000e-01,-1.068115234375000000e-01,8.914794921875000000e-01
1.000000000000000000e+00,3.000000000000000000e+00,-7.000000000000000000e+00,-8.000000000000000000e+00,-1.000000000000000000e+00,-3.000000000000000000e+00,-1.000000000000000000e+00,-2.000000000000000000e+00,-8.905029296875000000e-02,4.311523437500000000e-01,-1.068115234375000000e-01,8.914794921875000000e-01
-1.000000000000000000e+00,-1.000000000000000000e+00,-9.000000000000000000e+00,-5.000000000000000000e+00,-5.000000000000000000e+00,-4.000000000000000000e+00,1.000000000000000000e+00,-4.000000000000000000e+00,-8.905029296875000000e-02,4.311523437500000000e-01,-1.068115234375000000e-01,8.914794921875000000e-01
-2.000000000000000000e+00,0.000000000000000000e+00,-7.000000000000000000e+00,-8.000000000000000000e+00,-1.000000000000000000e+00,0.000000000000000000e+00,-2.000000000000000000e+00,0.000000000000000000e+00,-8.905029296875000000e-02,4.311523437500000000e-01,-1.068115234375000000e-01,8.914794921875000000e-01
0.000000000000000000e+00,-3.000000000000000000e+00,-1.000000000000000000e+00,1.600000000000000000e+01,-3.000000000000000000e+00,-1.000000000000000000e+00,0.000000000000000000e+00,0.000000000000000000e+00,-8.966064453125000000e-02,4.309692382812500000e-01,-1.071777343750000000e-01,8.914184570312500000e-01
-3.000000000000000000e+00,-4.000000000000000000e+00,-1.800000000000000000e+01,-1.900000000000000000e+01,-4.000000000000000000e+00,0.000000000000000000e+00,-5.000000000000000000e+00,-3.000000000000000000e+00,-8.966064453125000000e-02,4.309692382812500000e-01,-1.071777343750000000e-01,8.914184570312500000e-01
0.000000000000000000e+00,-1.000000000000000000e+00,-8.000000000000000000e+00,-1.000000000000000000e+01,-2.000000000000000000e+00,-1.000000000000000000e+00,-1.000000000000000000e+00,2.000000000000000000e+00,-8.966064453125000000e-02,4.309692382812500000e-01,-1.071777343750000000e-01,8.914184570312500000e-01
1.000000000000000000e+00,-3.000000000000000000e+00,3.000000000000000000e+00,7.000000000000000000e+00,2.000000000000000000e+00,-2.000000000000000000e+00,-1.000000000000000000e+00,-1.000000000000000000e+00,-8.966064453125000000e-02,4.309692382812500000e-01,-1.071777343750000000e-01,8.914184570312500000e-01
1.000000000000000000e+00,6.000000000000000000e+00,3.100000000000000000e+01,1.000000000000000000e+00,-4.000000000000000000e+00,-2.000000000000000000e+00,1.000000000000000000e+00,2.000000000000000000e+00,-8.917236328125000000e-02,4.309082031250000000e-01,-1.076049804687500000e-01,8.914794921875000000e-01
-2.000000000000000000e+00,-8.000000000000000000e+00,-4.500000000000000000e+01,3.000000000000000000e+00,0.000000000000000000e+00,-2.000000000000000000e+00,0.000000000000000000e+00,-1.000000000000000000e+00,-8.917236328125000000e-02,4.309082031250000000e-01,-1.076049804687500000e-01,8.914794921875000000e-01
1.000000000000000000e+00,6.000000000000000000e+00,1.300000000000000000e+01,-9.000000000000000000e+00,-4.000000000000000000e+00,0.000000000000000000e+00,3.000000000000000000e+00,0.000000000000000000e+00,-8.917236328125000000e-02,4.309082031250000000e-01,-1.076049804687500000e-01,8.914794921875000000e-01
-5.000000000000000000e+00,-4.000000000000000000e+00,1.100000000000000000e+01,-3.000000000000000000e+00,-2.000000000000000000e+00,-3.000000000000000000e+00,-3.000000000000000000e+00,-2.000000000000000000e+00,-8.917236328125000000e-02,4.309082031250000000e-01,-1.076049804687500000e-01,8.914794921875000000e-01
1.000000000000000000e+00,4.000000000000000000e+00,2.000000000000000000e+01,5.000000000000000000e+00,7.000000000000000000e+00,2.000000000000000000e+00,-2.000000000000000000e+00,2.000000000000000000e+00,-8.862304687500000000e-02,4.310913085937500000e-01,-1.076660156250000000e-01,8.914184570312500000e-01
0.000000000000000000e+00,0.000000000000000000e+00,-2.900000000000000000e+01,-5.000000000000000000e+00,-7.000000000000000000e+00,-4.000000000000000000e+00,-1.000000000000000000e+00,-2.000000000000000000e+00,-8.862304687500000000e-02,4.310913085937500000e-01,-1.076660156250000000e-01,8.914184570312500000e-01
4.000000000000000000e+00,-3.000000000000000000e+00,5.000000000000000000e+00,-3.700000000000000000e+01,-1.500000000000000000e+01,-1.000000000000000000e+00,-1.000000000000000000e+00,-1.000000000000000000e+00,-8.862304687500000000e-02,4.310913085937500000e-01,-1.076660156250000000e-01,8.914184570312500000e-01
-2.000000000000000000e+00,-8.000000000000000000e+00,-3.800000000000000000e+01,2.300000000000000000e+01,1.300000000000000000e+01,1.000000000000000000e+00,-1.000000000000000000e+00,-5.000000000000000000e+00,-8.862304687500000000e-02,4.310913085937500000e-01,-1.076660156250000000e-01,8.914184570312500000e-01
-1.000000000000000000e+00,-3.000000000000000000e+00,-5.000000000000000000e+00,8.000000000000000000e+00,8.000000000000000000e+00,2.000000000000000000e+00,-3.000000000000000000e+00,-4.000000000000000000e+00,-8.911132812500000000e-02,4.310913085937500000e-01,-1.072998046875000000e-01,8.914184570312500000e-01
0.000000000000000000e+00,-2.000000000000000000e+00,2.600000000000000000e+01,4.000000000000000000e+00,1.000000000000000000e+00,-1.000000000000000000e+00,-2.000000000000000000e+00,0.000000000000000000e+00,-8.911132812500000000e-02,4.310913085937500000e-01,-1.072998046875000000e-01,8.914184570312500000e-01
1.000000000000000000e+00,-8.000000000000000000e+00,-5.000000000000000000e+00,-8.000000000000000000e+00,-1.000000000000000000e+00,2.000000000000000000e+00,1.000000000000000000e+00,2.000000000000000000e+00,-8.911132812500000000e-02,4.310913085937500000e-01,-1.072998046875000000e-01,8.914184570312500000e-01
0.000000000000000000e+00,6.000000000000000000e+00,9.000000000000000000e+00,-1.100000000000000000e+01,-9.000000000000000000e+00,-2.000000000000000000e+00,-1.000000000000000000e+00,1.000000000000000000e+00,-8.911132812500000000e-02,4.310913085937500000e-01,-1.072998046875000000e-01,8.914184570312500000e-01
-4.000000000000000000e+00,-2.000000000000000000e+00,-1.000000000000000000e+00,-3.000000000000000000e+00,-4.000000000000000000e+00,-2.000000000000000000e+00,0.000000000000000000e+00,-1.000000000000000000e+00,-8.959960937500000000e-02,4.309692382812500000e-01,-1.070556640625000000e-01,8.914794921875000000e-01
-1.000000000000000000e+00,-2.000000000000000000e+00,-3.000000000000000000e+00,1.100000000000000000e+01,0.000000000000000000e+00,1.000000000000000000e+00,-1.000000000000000000e+00,-4.000000000000000000e+00,-8.959960937500000000e-02,4.309692382812500000e-01,-1.070556640625000000e-01,8.914794921875000000e-01
-3.000000000000000000e+00,2.000000000000000000e+00,0.000000000000000000e+00,-1.100000000000000000e+01,1.000000000000000000e+00,-1.000000000000000000e+00,-1.000000000000000000e+00,-6.000000000000000000e+00,-8.959960937500000000e-02,4.309692382812500000e-01,-1.070556640625000000e-01,8.914794921875000000e-01
0.000000000000000000e+00,-3.000000000000000000e+00,1.300000000000000000e+01,7.000000000000000000e+00,3.000000000000000000e+00,0.000000000000000000e+00,-1.000000000000000000e+00,-2.000000000000000000e+00,-8.959960937500000000e-02,4.309692382812500000e-01,-1.070556640625000000e-01,8.914794921875000000e-01
-1.000000000000000000e+00,-4.000000000000000000e+00,-1.900000000000000000e+01,-1.000000000000000000e+00,4.000000000000000000e+00,0.000000000000000000e+00,2.000000000000000000e+00,-1.000000000000000000e+00,-8.966064453125000000e-02,4.309082031250000000e-01,-1.070556640625000000e-01,8.914794921875000000e-01
-2.000000000000000000e+00,1.000000000000000000e+00,1.500000000000000000e+01,-4.000000000000000000e+00,-6.000000000000000000e+00,-1.000000000000000000e+00,0.000000000000000000e+00,2.000000000000000000e+00,-8.966064453125000000e-02,4.309082031250000000e-01,-1.070556640625000000e-01,8.914794921875000000e-01
-2.000000000000000000e+00,-1.000000000000000000e+00,-1.000000000000000000e+01,9.000000000000000000e+00,-1.000000000000000000e+00,-4.000000000000000000e+00,-2.000000000000000000e+00,-2.000000000000000000e+00,-8.966064453125000000e-02,4.309082031250000000e-01,-1.070556640625000000e-01,8.914794921875000000e-01
-3.000000000000000000e+00,-5.000000000000000000e+00,0.000000000000000000e+00,-1.100000000000000000e+01,-4.000000000000000000e+00,-3.000000000000000000e+00,-1.000000000000000000e+00,0.000000000000000000e+00,-8.966064453125000000e-02,4.309082031250000000e-01,-1.070556640625000000e-01,8.914794921875000000e-01
-3.000000000000000000e+00,-3.000000000000000000e+00,-1.400000000000000000e+01,-1.200000000000000000e+01,-3.000000000000000000e+00,2.000000000000000000e+00,0.000000000000000000e+00,-1.000000000000000000e+00,-8.947753906250000000e-02,4.309082031250000000e-01,-1.072387695312500000e-01,8.914794921875000000e-01
2.000000000000000000e+00,2.000000000000000000e+00,3.400000000000000000e+01,2.100000000000000000e+01,6.000000000000000000e+00,1.000000000000000000e+00,0.000000000000000000e+00,2.000000000000000000e+00,-8.947753906250000000e-02,4.309082031250000000e-01,-1.072387695312500000e-01,8.914794921875000000e-01
-1.000000000000000000e+00,2.000000000000000000e+00,1.800000000000000000e+01,1.300000000000000000e+01,3.000000000000000000e+00,-2.000000000000000000e+00,-2.000000000000000000e+00,-3.000000000000000000e+00,-8.947753906250000000e-02,4.309082031250000000e-01,-1.072387695312500000e-01,8.914794921875000000e-01
0.000000000000000000e+00,0.000000000000000000e+00,-1.400000000000000000e+01,-2.700000000000000000e+01,-1.100000000000000000e+01,0.000000000000000000e+00,-3.000000000000000000e+00,1.000000000000000000e+00,-8.947753906250000000e-02,4.309082031250000000e-01,-1.072387695312500000e-01,8.914794921875000000e-01
-3.000000000000000000e+00,-3.000000000000000000e+00,-4.000000000000000000e+00,9.000000000000000000e+00,-1.000000000000000000e+00,-3.000000000000000000e+00,-2.000000000000000000e+00,-1.000000000000000000e+00,-8.941650390625000000e-02,4.309692382812500000e-01,-1.071777343750000000e-01,8.914794921875000000e-01
0.000000000000000000e+00,6.000000000000000000e+00,1.300000000000000000e+01,6.000000000000000000e+00,0.000000000000000000e+00,1.000000000000000000e+00,1.000000000000000000e+00,1.000000000000000000e+00,-8.941650390625000000e-02,4.309692382812500000e-01,-1.071777343750000000e-01,8.914794921875000000e-01
-5.000000000000000000e+00,-9.000000000000000000e+00,0.000000000000000000e+00,-1.500000000000000000e+01,-1.000000000000000000e+00,-2.000000000000000000e+00,0.000000000000000000e+00,0.000000000000000000e+00,-8.941650390625000000e-02,4.309692382812500000e-01,-1.071777343750000000e-01,8.914794921875000000e-01
4.000000000000000000e+00,1.000000000000000000e+01,-1.900000000000000000e+01,1.000000000000000000e+01,1.100000000000000000e+01,4.000000000000000000e+00,1.000000000000000000e+00,-1.000000000000000000e+00,-8.941650390625000000e-02,4.309692382812500000e-01,-1.071777343750000000e-01,8.914794921875000000e-01
0.000000000000000000e+00,-5.000000000000000000e+00,-6.000000000000000000e+00,-1.000000000000000000e+01,-3.000000000000000000e+00,-2.000000000000000000e+00,-1.000000000000000000e+00,-4.000000000000000000e+00,-8.996582031250000000e-02,4.310913085937500000e-01,-1.067504882812500000e-01,8.914184570312500000e-01
2.000000000000000000e+00,0.000000000000000000e+00,-1.000000000000000000e+01,-5.000000000000000000e+00,0.000000000000000000e+00,0.000000000000000000e+00,-3.000000000000000000e+00,0.000000000000000000e+00,-8.996582031250000000e-02,4.310913085937500000e-01,-1.067504882812500000e-01,8.914184570312500000e-01
