-1.000000000000000000e+00,0.000000000000000000e+00,-7.000000000000000000e+00,-4.000000000000000000e+00,-7.000000000000000000e+00,-2.000000000000000000e+00,0.000000000000000000e+00,1.000000000000000000e+00,-2.911987304687500000e-01,4.367065429687500000e-01,4.442749023437500000e-01,7.260131835937500000e-01
-3.000000000000000000e+00,-2.000000000000000000e+01,-1.000000000000000000e+01,-6.000000000000000000e+00,-3.000000000000000000e+00,0.000000000000000000e+00,-1.000000000000000000e+00,-3.000000000000000000e+00,-2.911987304687500000e-01,4.367065429687500000e-01,4.442749023437500000e-01,7.260131835937500000e-01
0.000000000000000000e+00,1.200000000000000000e+01,-5.000000000000000000e+00,-5.000000000000000000e+00,-3.000000000000000000e+00,-3.000000000000000000e+00,0.000000000000000000e+00,-1.000000000000000000e+00,-2.911987304687500000e-01,4.367065429687500000e-01,4.442749023437500000e-01,7.260131835937500000e-01
-1.000000000000000000e+00,-6.000000000000000000e+00,3.000000000000000000e+00,7.000000000000000000e+00,-3.000000000000000000e+00,2.000000000000000000e+00,-1.000000000000000000e+00,-2.000000000000000000e+00,-2.911987304687500000e-01,4.367065429687500000e-01,4.442749023437500000e-01,7.260131835937500000e-01
2.000000000000000000e+00,1.800000000000000000e+01,4.000000000000000000e+00,0.000000000000000000e+00,-1.000000000000000000e+00,-4.000000000000000000e+00,-3.000000000000000000e+00,0.000000000000000000e+00,-2.923583984375000000e-01,4.351806640625000000e-01,4.439697265625000000e-01,7.265625000000000000e-01
-2.000000000000000000e+00,8.000000000000000000e+00,-2.000000000000000000e+00,1.000000000000000000e+00,4.000000000000000000e+00,-1.000000000000000000e+00,-2.000000000000000000e+00,0.000000000000000000e+00,-2.923583984375000000e-01,4.351806640625000000e-01,4.439697265625000000e-01,7.265625000000000000e-01
-4.000000000000000000e+00,-2.200000000000000000e+01,4.000000000000000000e+00,-3.000000000000000000e+00,2.000000000000000000e+00,1.000000000000000000e+00,-1.000000000000000000e+00,-1.000000000000000000e+00,-2.923583984375000000e-01,4.351806640625000000e-01,4.439697265625000000e-01,7.265625000000000000e-01
1.000000000000000000e+00,1.100000000000000000e+01,-2.000000000000000000e+00,-5.000000000000000000e+00,-6.000000000000000000e+00,-6.000000000000000000e+00,-3.000000000000000000e+00,-1.000000000000000000e+00,-2.923583984375000000e-01,4.351806640625000000e-01,4.439697265625000000e-01,7.265625000000000000e-01
0.000000000000000000e+00,-2.400000000000000000e+01,-2.000000000000000000e+00,9.000000000000000000e+00,1.200000000000000000e+01,8.000000000000000000e+00,5.000000000000000000e+00,2.000000000000000000e+00,-2.930908203125000000e-01,4.334106445312500000e-01,4.434814453125000000e-01,7.276611328125000000e-01
1.000000000000000000e+00,1.000000000000000000e+00,-3.000000000000000000e+00,-2.000000000000000000e+00,-4.000000000000000000e+00,0.000000000000000000e+00,0.000000000000000000e+00,1.000000000000000000e+00,-2.930908203125000000e-01,4.334106445312500000e-01,4.434814453125000000e-01,7.276611328125000000e-01
0.000000000000000000e+00,7.000000000000000000e+00,6.000000000000000000e+00,0.000000000000000000e+00,-5.000000000000000000e+00,-4.000000000000000000e+00,-3.000000000000000000e+00,-3.000000000000000000e+00,-2.930908203125000000e-01,4.334106445312500000e-01,4.434814453125000000e-01,7.276611328125000000e-01
-4.000000000000000000e+00,-1.700000000000000000e+01,-4.000000000000000000e+00,-5.000000000000000000e+00,-6.000000000000000000e+00,-2.000000000000000000e+00,-1.000000000000000000e+00,0.000000000000000000e+00,-2.930908203125000000e-01,4.334106445312500000e-01,4.434814453125000000e-01,7.276611328125000000e-01
0.000000000000000000e+00,1.900000000000000000e+01,0.000000000000000000e+00,-7.000000000000000000e+00,-7.000000000000000000e+00,-3.000000000000000000e+00,-5.000000000000000000e+00,-4.000000000000000000e+00,-2.930297851562500000e-01,4.316406250000000000e-01,4.425659179687500000e-01,7.293090820312500000e-01
-1.000000000000000000e+00,-3.000000000000000000e+00,2.000000000000000000e+00,4.000000000000000000e+00,5.000000000000000000e+00,3.000000000000000000e+00,2.000000000000000000e+00,0.000000000000000000e+00,-2.930297851562500000e-01,4.316406250000000000e-01,4.425659179687500000e-01,7.293090820312500000e-01
-4.000000000000000000e+00,-8.000000000000000000e+00,-6.000000000000000000e+00,7.000000000000000000e+00,9.000000000000000000e+00,4.000000000000000000e+00,-1.000000000000000000e+00,-1.000000000000000000e+00,-2.930297851562500000e-01,4.316406250000000000e-01,4.425659179687500000e-01,7.293090820312500000e-01
2.000000000000000000e+00,2.500000000000000000e+01,2.300000000000000000e+01,1.000000000000000000e+00,1.000000000000000000e+01,1.000000000000000000e+00,-2.000000000000000000e+00,-1.000000000000000000e+00,-2.930297851562500000e-01,4.316406250000000000e-01,4.425659179687500000e-01,7.293090820312500000e-01
-4.000000000000000000e+00,-1.900000000000000000e+01,-1.200000000000000000e+01,-1.000000000000000000e+00,2.000000000000000000e+00,0.000000000000000000e+00,0.000000000000000000e+00,-1.000000000000000000e+00,-2.925415039062500000e-01,4.298706054687500000e-01,4.414672851562500000e-01,7.312011718750000000e-01
-3.000000000000000000e+00,-3.000000000000000000e+00,-8.000000000000000000e+00,-9.000000000000000000e+00,-1.000000000000000000e+01,-5.000000000000000000e+00,-3.000000000000000000e+00,-2.000000000000000000e+00,-2.925415039062500000e-01,4.298706054687500000e-01,4.414672851562500000e-01,7.312011718750000000e-01
2.000000000000000000e+00,3.000000000000000000e+00,3.000000000000000000e+00,0.000000000000000000e+00,-7.000000000000000000e+00,-2.000000000000000000e+00,-2.000000000000000000e+00,1.000000000000000000e+00,-2.925415039062500000e-01,4.298706054687500000e-01,4.414672851562500000e-01,7.312011718750000000e-01
-1.000000000000000000e+00,-1.300000000000000000e+01,-1.200000000000000000e+01,1.000000000000000000e+00,-4.000000000000000000e+00,-1.000000000000000000e+00,-1.000000000000000000e+00,-2.000000000000000000e+00,-2.925415039062500000e-01,4.298706054687500000e-01,4.414672851562500000e-01,7.312011718750000000e-01
-5.000000000000000000e+00,8.000000000000000000e+00,1.100000000000000000e+01,9.000000000000000000e+00,1.400000000000000000e+01,-1.000000000000000000e+00,-2.000000000000000000e+00,-2.000000000000000000e+00,-2.921752929687500000e-01,4.283447265625000000e-01,4.400634765625000000e-01,7.330932617187500000e-01
4.000000000000000000e+00,1.200000000000000000e+01,-1.000000000000000000e+00,-7.000000000000000000e+00,-1.000000000000000000e+00,0.000000000000000000e+00,-1.000000000000000000e+00,-1.000000000000000000e+00,-2.921752929687500000e-01,4.283447265625000000e-01,4.400634765625000000e-01,7.330932617187500000e-01
-3.000000000000000000e+00,-1.700000000000000000e+01,-7.000000000000000000e+00,-1.000000000000000000e+00,-4.000000000000000000e+00,-7.000000000000000000e+00,-4.000000000000000000e+00,-3.000000000000000000e+00,-2.921752929687500000e-01,4.283447265625000000e-01,4.400634765625000000e-01,7.330932617187500000e-01
1.000000000000000000e+00,-1.000000000000000000e+00,-8.000000000000000000e+00,-5.000000000000000000e+00,2.000000000000000000e+00,3.000000000000000000e+00,1.000000000000000000e+00,-1.000000000000000000e+00,-2.921752929687500000e-01,4.283447265625000000e-01,4.400634765625000000e-01,7.330932617187500000e-01
1.000000000000000000e+00,9.000000000000000000e+00,1.500000000000000000e+01,0.000000000000000000e+00,-4.000000000000000000e+00,-1.000000000000000000e+00,1.000000000000000000e+00,1.000000000000000000e+00,-2.929077148437500000e-01,4.269409179687500000e-01,4.394531250000000000e-01,7.339477539062500000e-01
-2.000000000000000000e+00,-2.600000000000000000e+01,-9.000000000000000000e+00,-1.000000000000000000e+00,-1.000000000000000000e+00,-3.000000000000000000e+00,-3.000000000000000000e+00,1.000000000000000000e+00,-2.929077148437500000e-01,4.269409179687500000e-01,4.394531250000000000e-01,7.339477539062500000e-01
-3.000000000000000000e+00,2.200000000000000000e+01,-2.000000000000000000e+00,2.000000000000000000e+00,-2.000000000000000000e+00,0.000000000000000000e+00,-1.000000000000000000e+00,1.000000000000000000e+00,-2.929077148437500000e-01,4.269409179687500000e-01,4.394531250000000000e-01,7.339477539062500000e-01
2.000000000000000000e+00,2.000000000000000000e+01,2.200000000000000000e+01,-1.000000000000000000e+00,-1.000000000000000000e+00,-3.000000000000000000e+00,1.000000000000000000e+00,0.000000000000000000e+00,-2.929077148437500000e-01,4.269409179687500000e-01,4.394531250000000000e-01,7.339477539062500000e-01
0.000000000000000000e+00,-5.000000000000000000e+00,-1.300000000000000000e+01,-1.000000000000000000e+00,0.000000000000000000e+00,-1.000000000000000000e+00,0.000000000000000000e+00,-1.000000000000000000e+00,-2.940673828125000000e-01,4.255371093750000000e-01,4.393920898437500000e-01,7.343750000000000000e-01
-2.000000000000000000e+00,-6.000000000000000000e+00,1.000000000000000000e+00,-1.000000000000000000e+00,1.000000000000000000e+00,-2.000000000000000000e+00,-1.000000000000000000e+00,-2.000000000000000000e+00,-2.940673828125000000e-01,4.255371093750000000e-01,4.393920898437500000e-01,7.343750000000000000e-01
-1.000000000000000000e+00,1.300000000000000000e+01,-7.000000000000000000e+00,-3.000000000000000000e+00,-3.000000000000000000e+00,1.000000000000000000e+00,-1.000000000000000000e+00,-1.000000000000000000e+00,-2.940673828125000000e-01,4.255371093750000000e-01,4.393920898437500000e-01,7.343750000000000000e-01
0.000000000000000000e+00,-7.000000000000000000e+00,-3.000000000000000000e+00,-3.000000000000000000e+00,0.000000000000000000e+00,0.000000000000000000e+00,-3.000000000000000000e+00,0.000000000000000000e+00,-2.940673828125000000e-01,4.255371093750000000e-01,4.393920898437500000e-01,7.343750000000000000e-01
3.000000000000000000e+00,-8.000000000000000000e+00,3.000000000000000000e+00,4.000000000000000000e+00,0.000000000000000000e+00,0.000000000000000000e+00,2.000000000000000000e+00,0.000000000000000000e+00,-2.956542968750000000e-01,4.245605468750000000e-01,4.389038085937500000e-01,7.346191406250000000e-01
-5.000000000000000000e+00,-5.000000000000000000e+00,1.000000000000000000e+00,2.000000000000000000e+00,-5.000000000000000000e+00,-4.000000000000000000e+00,-3.000000000000000000e+00,-4.000000000000000000e+00,-2.956542968750000000e-01,4.245605468750000000e-01,4.389038085937500000e-01,7.346191406250000000e-01
0.000000000000000000e+00,-1.300000000000000000e+01,-5.000000000000000000e+00,-1.000000000000000000e+00,5.000000000000000000e+00,1.000000000000000000e+00,-1.000000000000000000e+00,0.000000000000000000e+00,-2.956542968750000000e-01,4.245605468750000000e-01,4.389038085937500000e-01,7.346191406250000000e-01
-4.000000000000000000e+00,1.000000000000000000e+00,-8.000000000000000000e+00,-1.000000000000000000e+01,-2.000000000000000000e+00,0.000000000000000000e+00,0.000000000000000000e+00,-1.000000000000000000e+00,-2.956542968750000000e-01,4.245605468750000000e-01,4.389038085937500000e-01,7.346191406250000000e-01
-2.000000000000000000e+00,-1.000000000000000000e+00,-1.000000000000000000e+00,4.000000000000000000e+00,-2.000000000000000000e+00,0.000000000000000000e+00,-3.000000000000000000e+00,-2.000000000000000000e+00,-2.960815429687500000e-01,4.248657226562500000e-01,4.381103515625000000e-01,7.347412109375000000e-01
-1.000000000000000000e+00,5.000000000000000000e+00,0.000000000000000000e+00,4.000000000000000000e+00,-4.000000000000000000e+00,-1.000000000000000000e+00,0.000000000000000000e+00,1.000000000000000000e+00,-2.960815429687500000e-01,4.248657226562500000e-01,4.381103515625000000e-01,7.347412109375000000e-01
-3.000000000000000000e+00,-7.000000000000000000e+00,1.000000000000000000e+01,4.000000000000000000e+00,0.000000000000000000e+00,0.000000000000000000e+00,-1.000000000000000000e+00,-3.000000000000000000e+00,-2.960815429687500000e-01,4.248657226562500000e-01,4.381103515625000000e-01,7.347412109375000000e-01
2.000000000000000000e+00,4.000000000000000000e+00,-7.000000000000000000e+00,0.000000000000000000e+00,0.000000000000000000e+00,-1.000000000000000000e+00,1.000000000000000000e+00,-2.000000000000000000e+00,-2.960815429687500000e-01,4.248657226562500000e-01,4.381103515625000000e-01,7.347412109375000000e-01
1.000000000000000000e+00,-6.000000000000000000e+00,-8.000000000000000000e+00,-1.000000000000000000e+01,-6.000000000000000000e+00,-1.000000000000000000e+00,-2.000000000000000000e+00,0.000000000000000000e+00,-2.962036132812500000e-01,4.259033203125000000e-01,4.373779296875000000e-01,7.345581054687500000e-01
0.000000000000000000e+00,3.000000000000000000e+00,-4.000000000000000000e+00,-4.000000000000000000e+00,0.000000000000000000e+00,0.000000000000000000e+00,0.000000000000000000e+00,0.000000000000000000e+00,-2.962036132812500000e-01,4.259033203125000000e-01,4.373779296875000000e-01,7.345581054687500000e-01
-3.000000000000000000e+00,-1.100000000000000000e+01,0.000000000000000000e+00,-2.000000000000000000e+00,0.000000000000000000e+00,1.000000000000000000e+00,-1.000000000000000000e+00,-3.000000000000000000e+00,-2.962036132812500000e-01,4.259033203125000000e-01,4.373779296875000000e-01,7.345581054687500000e-01
0.000000000000000000e+00,-1.000000000000000000e+00,-1.100000000000000000e+01,-4.000000000000000000e+00,-3.000000000000000000e+00,1.000000000000000000e+00,1.000000000000000000e+00,-1.000000000000000000e+00,-2.962036132812500000e-01,4.259033203125000000e-01,4.373779296875000000e-01,7.345581054687500000e-01
-2.000000000000000000e+00,-1.400000000000000000e+01,1.200000000000000000e+01,1.300000000000000000e+01,6.000000000000000000e+00,0.000000000000000000e+00,-1.000000000000000000e+00,0.000000000000000000e+00,-2.965698242187500000e-01,4.266357421875000000e-01,4.372558593750000000e-01,7.340087890625000000e-01
0.000000000000000000e+00,2.200000000000000000e+01,1.000000000000000000e+00,1.000000000000000000e+00,-2.000000000000000000e+00,-1.000000000000000000e+00,-1.000000000000000000e+00,0.000000000000000000e+00,-2.965698242187500000e-01,4.266357421875000000e-01,4.372558593750000000e-01,7.340087890625000000e-01
1.000000000000000000e+00,-5.000000000000000000e+00,-2.000000000000000000e+00,-2.000000000000000000e+00,-1.000000000000000000e+00,-1.000000000000000000e+00,0.000000000000000000e+00,2.000000000000000000e+00,-2.965698242187500000e-01,4.266357421875000000e-01,4.372558593750000000e-01,7.340087890625000000e-01
-2.000000000000000000e+00,-1.000000000000000000e+01,-7.000000000000000000e+00,-8.000000000000000000e+00,-4.000000000000000000e+00,-4.000000000000000000e+00,-2.000000000000000000e+00,-3.000000000000000000e+00,-2.965698242187500000e-01,4.266357421875000000e-01,4.372558593750000000e-01,7.340087890625000000e-01
-1.000000000000000000e+00,1.000000000000000000e+00,-1.700000000000000000e+01,-1.400000000000000000e+01,-3.000000000000000000e+00,-3.000000000000000000e+00,-1.000000000000000000e+00,-1.000000000000000000e+00,-2.973022460937500000e-01,4.274291992187500000e-01,4.376220703125000000e-01,7.330322265625000000e-01
2.000000000000000000e+00,3.000000000000000000e+00,9.000000000000000000e+00,1.100000000000000000e+01,2.000000000000000000e+00,0.000000000000000000e+00,0.000000000000000000e+00,0.000000000000000000e+00,-2.973022460937500000e-01,4.274291992187500000e-01,4.376220703125000000e-01,7.330322265625000000e-01
0.000000000000000000e+00,-7.000000000000000000e+00,6.000000000000000000e+00,-3.000000000000000000e+00,-3.000000000000000000e+00,1.000000000000000000e+00,0.000000000000000000e+00,-1.000000000000000000e+00,-2.973022460937500000e-01,4.274291992187500000e-01,4.376220703125000000e-01,7.330322265625000000e-01
-3.000000000000000000e+00,1.900000000000000000e+01,1.400000000000000000e+01,1.300000000000000000e+01,4.000000000000000000e+00,0.000000000000000000e+00,-4.000000000000000000e+00,-2.000000000000000000e+00,-2.973022460937500000e-01,4.274291992187500000e-01,4.376220703125000000e-01,7.330322265625000000e-01
-3.000000000000000000e+00,-7.000000000000000000e+00,-8.000000000000000000e+00,0.000000000000000000e+00,-2.000000000000000000e+00,-3.000000000000000000e+00,-2.000000000000000000e+00,-4.000000000000000000e+00,-2.980346679687500000e-01,4.279785156250000000e-01,4.379272460937500000e-01,7.322387695312500000e-01
-3.000000000000000000e+00,-1.100000000000000000e+01,7.000000000000000000e+00,-1.000000000000000000e+01,-5.000000000000000000e+00,-3.000000000000000000e+00,-4.000000000000000000e+00,-1.000000000000000000e+00,-2.980346679687500000e-01,4.279785156250000000e-01,4.379272460937500000e-01,7.322387695312500000e-01
1.000000000000000000e+00,1.100000000000000000e+01,-1.000000000000000000e+01,-7.000000000000000000e+00,-3.000000000000000000e+00,-3.000000000000000000e+00,-1.000000000000000000e+00,-1.000000000000000000e+00,-2.980346679687500000e-01,4.279785156250000000e-01,4.379272460937500000e-01,7.322387695312500000e-01
0.000000000000000000e+00,-1.100000000000000000e+01,-5.000000000000000000e+00,5.000000000000000000e+00,4.000000000000000000e+00,2.000000000000000000e+00,0.000000000000000000e+00,1.000000000000000000e+00,-2.980346679687500000e-01,4.279785156250000000e-01,4.379272460937500000e-01,7.322387695312500000e-01
-2.000000000000000000e+00,7.000000000000000000e+00,-1.000000000000000000e+00,-7.000000000000000000e+00,-2.000000000000000000e+00,-5.000000000000000000e+00,-1.000000000000000000e+00,0.000000000000000000e+00,-2.982177734375000000e-01,4.286499023437500000e-01,4.379272460937500000e-01,7.317504882812500000e-01
-2.000000000000000000e+00,-1.800000000000000000e+01,-8.000000000000000000e+00,0.000000000000000000e+00,-1.000000000000000000e+00,-4.000000000000000000e+00,-1.000000000000000000e+00,-3.000000000000000000e+00,-2.982177734375000000e-01,4.286499023437500000e-01,4.379272460937500000e-01,7.317504882812500000e-01
-2.000000000000000000e+00,-4.000000000000000000e+00,4.000000000000000000e+00,5.000000000000000000e+00,0.000000000000000000e+00,0.000000000000000000e+00,0.000000000000000000e+00,-2.000000000000000000e+00,-2.982177734375000000e-01,4.286499023437500000e-01,4.379272460937500000e-01,7.317504882812500000e-01
0.000000000000000000e+00,2.000000000000000000e+00,1.000000000000000000e+00,-1.000000000000000000e+00,-1.000000000000000000e+00,0.000000000000000000e+00,-2.000000000000000000e+00,-1.000000000000000000e+00,-2.982177734375000000e-01,4.286499023437500000e-01,4.379272460937500000e-01,7.317504882812500000e-01
-1.000000000000000000e+00,0.000000000000000000e+00,-1.000000000000000000e+00,-3.000000000000000000e+00,-3.000000000000000000e+00,3.000000000000000000e+00,-2.000000000000000000e+00,-1.000000000000000000e+00,-2.979736328125000000e-01,4.294433593750000000e-01,4.378051757812500000e-01,7.314453125000000000e-01
-3.000000000000000000e+00,-6.000000000000000000e+00,-6.000000000000000000e+00,-8.000000000000000000e+00,-2.000000000000000000e+00,3.000000000000000000e+00,1.000000000000000000e+00,-2.000000000000000000e+00,-2.979736328125000000e-01,4.294433593750000000e-01,4.378051757812500000e-01,7.314453125000000000e-01
0.000000000000000000e+00,7.000000000000000000e+00,4.000000000000000000e+00,4.000000000000000000e+00,2.000000000000000000e+00,0.000000000000000000e+00,2.000000000000000000e+00,0.000000000000000000e+00,-2.979736328125000000e-01,4.294433593750000000e-01,4.378051757812500000e-01,7.314453125000000000e-01
-5.000000000000000000e+00,-3.000000000000000000e+00,-2.000000000000000000e+00,-1.000000000000000000e+00,-3.000000000000000000e+00,0.000000000000000000e+00,-3.000000000000000000e+00,0.000000000000000000e+00,-2.979736328125000000e-01,4.294433593750000000e-01,4.378051757812500000e-01,7.314453125000000000e-01
6.000000000000000000e+00,2.100000000000000000e+01,-2.000000000000000000e+00,-5.000000000000000000e+00,-4.000000000000000000e+00,-1.000000000000000000e+00,0.000000000000000000e+00,-1.000000000000000000e+00,-2.974243164062500000e-01,4.301147460937500000e-01,4.374389648437500000e-01,7.315063476562500000e-01
-7.000000000000000000e+00,-3.800000000000000000e+01,-5.000000000000000000e+00,2.000000000000000000e+00,0.000000000000000000e+00,-1.000000000000000000e+00,-2.000000000000000000e+00,-3.000000000000000000e+00,-2.974243164062500000e-01,4.301147460937500000e-01,4.374389648437500000e-01,7.315063476562500000e-01
0.000000000000000000e+00,6.000000000000000000e+00,-2.000000000000000000e+00,0.000000000000000000e+00,3.000000000000000000e+00,0.000000000000000000e+00,1.000000000000000000e+00,2.000000000000000000e+00,-2.974243164062500000e-01,4.301147460937500000e-01,4.374389648437500000e-01,7.315063476562500000e-01
0.000000000000000000e+00,-3.000000000000000000e+00,2.000000000000000000e+00,1.000000000000000000e+00,-3.000000000000000000e+00,0.000000000000000000e+00,0.000000000000000000e+00,-2.000000000000000000e+00,-2.974243164062500000e-01,4.301147460937500000e-01,4.374389648437500000e-01,7.315063476562500000e-01
-4.000000000000000000e+00,-1.400000000000000000e+01,1.000000000000000000e+01,2.000000000000000000e+00,3.000000000000000000e+00,-2.000000000000000000e+00,-3.000000000000000000e+00,-2.000000000000000000e+00,-2.968139648437500000e-01,4.306640625000000000e-01,4.370727539062500000e-01,7.316284179687500000e-01
3.000000000000000000e+00,3.200000000000000000e+01,3.000000000000000000e+00,-1.000000000000000000e+00,1.000000000000000000e+00,-1.000000000000000000e+00,-1.000000000000000000e+00,0.000000000000000000e+00,-2.968139648437500000e-01,4.306640625000000000e-01,4.370727539062500000e-01,7.316284179687500000e-01
-2.000000000000000000e+00,-7.000000000000000000e+00,-7.000000000000000000e+00,-4.000000000000000000e+00,-2.000000000000000000e+00,1.000000000000000000e+00,-2.000000000000000000e+00,-1.000000000000000000e+00,-2.964477539062500000e-01,4.310302734375000000e-01,4.368896484375000000e-01,7.316894531250000000e-01
-2.000000000000000000e+00,-1.000000000000000000e+01,-1.700000000000000000e+01,-1.000000000000000000e+01,-1.000000000000000000e+00,0.000000000000000000e+00,1.000000000000000000e+00,-1.000000000000000000e+00,-2.964477539062500000e-01,4.310302734375000000e-01,4.368896484375000000e-01,7.316894531250000000e-01
-1.000000000000000000e+00,-2.000000000000000000e+00,8.000000000000000000e+00,6.000000000000000000e+00,-3.000000000000000000e+00,-1.000000000000000000e+00,-1.000000000000000000e+00,-1.000000000000000000e+00,-2.964477539062500000e-01,4.310302734375000000e-01,4.368896484375000000e-01,7.316894531250000000e-01
-1.000000000000000000e+00,-4.000000000000000000e+00,1.000000000000000000e+00,-1.000000000000000000e+00,-2.000000000000000000e+00,-2.000000000000000000e+00,-1.000000000000000000e+00,0.000000000000000000e+00,-2.964477539062500000e-01,4.310302734375000000e-01,4.368896484375000000e-01,7.316894531250000000e-01
-1.000000000000000000e+00,-3.000000000000000000e+00,7.000000000000000000e+00,4.000000000000000000e+00,-1.000000000000000000e+00,-2.000000000000000000e+00,1.000000000000000000e+00,2.000000000000000000e+00,-2.965087890625000000e-01,4.310302734375000000e-01,4.370117187500000000e-01,7.315673828125000000e-01
0.000000000000000000e+00,4.000000000000000000e+00,-4.000000000000000000e+00,-2.000000000000000000e+00,-5.000000000000000000e+00,-5.000000000000000000e+00,-1.000000000000000000e+00,-2.000000000000000000e+00,-2.965087890625000000e-01,4.310302734375000000e-01,4.370117187500000000e-01,7.315673828125000000e-01
0.000000000000000000e+00,9.000000000000000000e+00,-8.000000000000000000e+00,-4.000000000000000000e+00,-4.000000000000000000e+00,0.000000000000000000e+00,0.000000000000000000e+00,1.000000000000000000e+00,-2.965087890625000000e-01,4.310302734375000000e-01,4.370117187500000000e-01,7.315673828125000000e-01
-3.000000000000000000e+00,-1.300000000000000000e+01,-3.000000000000000000e+00,-9.000000000000000000e+00,2.000000000000000000e+00,1.000000000000000000e+00,0.000000000000000000e+00,-2.000000000000000000e+00,-2.965087890625000000e-01,4.310302734375000000e-01,4.370117187500000000e-01,7.315673828125000000e-01
-2.000000000000000000e+00,-5.000000000000000000e+00,-2.000000000000000000e+00,-2.000000000000000000e+00,-2.000000000000000000e+00,-3.000000000000000000e+00,-3.000000000000000000e+00,-2.000000000000000000e+00,-2.969970703125000000e-01,4.306030273437500000e-01,4.371948242187500000e-01,7.315673828125000000e-01
0.000000000000000000e+00,4.000000000000000000e+00,-3.000000000000000000e+00,-3.000000000000000000e+00,0.000000000000000000e+00,0.000000000000000000e+00,-6.000000000000000000e+00,0.000000000000000000e+00,-2.969970703125000000e-01,4.306030273437500000e-01,4.371948242187500000e-01,7.315673828125000000e-01
-5.000000000000000000e+00,-2.800000000000000000e+01,-1.100000000000000000e+01,0.000000000000000000e+00,1.000000000000000000e+00,1.000000000000000000e+00,-3.000000000000000000e+00,0.000000000000000000e+00,-2.969970703125000000e-01,4.306030273437500000e-01,4.371948242187500000e-01,7.315673828125000000e-01
5.000000000000000000e+00,3.800000000000000000e+01,1.900000000000000000e+01,3.000000000000000000e+00,-1.000000000000000000e+00,-1.000000000000000000e+00,6.000000000000000000e+00,-2.000000000000000000e+00,-2.969970703125000000e-01,4.306030273437500000e-01,4.371948242187500000e-01,7.315673828125000000e-01
-3.000000000000000000e+00,-7.000000000000000000e+00,-3.000000000000000000e+00,-5.000000000000000000e+00,-3.000000000000000000e+00,-3.000000000000000000e+00,2.000000000000000000e+00,-3.000000000000000000e+00,-2.970581054687500000e-01,4.305419921875000000e-01,4.371337890625000000e-01,7.315673828125000000e-01
4.000000000000000000e+00,5.000000000000000000e+00,7.000000000000000000e+00,3.000000000000000000e+00,2.000000000000000000e+00,2.000000000000000000e+00,4.000000000000000000e+00,3.000000000000000000e+00,-2.970581054687500000e-01,4.305419921875000000e-01,4.371337890625000000e-01,7.315673828125000000e-01
0.000000000000000000e+00,2.000000000000000000e+00,3.000000000000000000e+00,-1.000000000000000000e+00,1.000000000000000000e+00,0.000000000000000000e+00,-8.000000000000000000e+00,-3.000000000000000000e+00,-2.970581054687500000e-01,4.305419921875000000e-01,4.371337890625000000e-01,7.315673828125000000e-01
1.000000000000000000e+00,2.000000000000000000e+00,-1.000000000000000000e+01,-5.000000000000000000e+00,0.000000000000000000e+00,0.000000000000000000e+00,-7.000000000000000000e+00,-1.000000000000000000e+00,-2.970581054687500000e-01,4.305419921875000000e-01,4.371337890625000000e-01,7.315673828125000000e-01
-2.000000000000000000e+00,0.000000000000000000e+00,9.000000000000000000e+00,5.000000000000000000e+00,-1.000000000000000000e+00,0.000000000000000000e+00,2.000000000000000000e+00,-1.000000000000000000e+00,-2.969970703125000000e-01,4.305419921875000000e-01,4.368896484375000000e-01,7.317504882812500000e-01
-3.000000000000000000e+00,-1.100000000000000000e+01,-2.000000000000000000e+00,2.000000000000000000e+00,3.000000000000000000e+00,0.000000000000000000e+00,3.000000000000000000e+00,0.000000000000000000e+00,-2.969970703125000000e-01,4.305419921875000000e-01,4.368896484375000000e-01,7.317504882812500000e-01
-2.000000000000000000e+00,1.300000000000000000e+01,5.000000000000000000e+00,1.000000000000000000e+00,-5.000000000000000000e+00,-5.000000000000000000e+00,-5.000000000000000000e+00,-1.000000000000000000e+00,-2.969970703125000000e-01,4.305419921875000000e-01,4.368896484375000000e-01,7.317504882812500000e-01
-1.000000000000000000e+00,-1.300000000000000000e+01,-1.900000000000000000e+01,-1.000000000000000000e+01,-6.000000000000000000e+00,-3.000000000000000000e+00,0.000000000000000000e+00,0.000000000000000000e+00,-2.969970703125000000e-01,4.305419921875000000e-01,4.368896484375000000e-01,7.317504882812500000e-01
2.000000000000000000e+00,1.000000000000000000e+00,1.000000000000000000e+00,-2.000000000000000000e+00,4.000000000000000000e+00,-1.000000000000000000e+00,-4.000000000000000000e+00,-2.000000000000000000e+00,-2.973022460937500000e-01,4.302368164062500000e-01,4.371337890625000000e-01,7.316894531250000000e-01
-2.000000000000000000e+00,-5.000000000000000000e+00,-3.000000000000000000e+00,-2.000000000000000000e+00,-1.000000000000000000e+00,-1.000000000000000000e+00,-4.000000000000000000e+00,-1.000000000000000000e+00,-2.973022460937500000e-01,4.302368164062500000e-01,4.371337890625000000e-01,7.316894531250000000e-01
-1.000000000000000000e+00,2.000000000000000000e+00,7.000000000000000000e+00,3.000000000000000000e+00,2.000000000000000000e+00,0.000000000000000000e+00,2.000000000000000000e+00,0.000000000000000000e+00,-2.973022460937500000e-01,4.302368164062500000e-01,4.371337890625000000e-01,7.316894531250000000e-01
3.000000000000000000e+00,9.000000000000000000e+00,-4.000000000000000000e+00,1.000000000000000000e+00,-4.000000000000000000e+00,-2.000000000000000000e+00,-5.000000000000000000e+00,-2.000000000000000000e+00,-2.973022460937500000e-01,4.302368164062500000e-01,4.371337890625000000e-01,7.316894531250000000e-01
-3.000000000000000000e+00,-2.600000000000000000e+01,-2.200000000000000000e+01,-5.000000000000000000e+00,-2.000000000000000000e+00,1.000000000000000000e+00,0.000000000000000000e+00,1.000000000000000000e+00,-2.978515625000000000e-01,4.301147460937500000e-01,4.376831054687500000e-01,7.312011718750000000e-01
1.000000000000000000e+00,1.100000000000000000e+01,1.800000000000000000e+01,4.000000000000000000e+00,-3.000000000000000000e+00,0.000000000000000000e+00,-2.000000000000000000e+00,1.000000000000000000e+00,-2.978515625000000000e-01,4.301147460937500000e-01,4.376831054687500000e-01,7.312011718750000000e-01
-3.000000000000000000e+00,-2.000000000000000000e+00,5.000000000000000000e+00,-1.000000000000000000e+00,-1.000000000000000000e+00,-1.000000000000000000e+00,5.000000000000000000e+00,-2.000000000000000000e+00,-2.978515625000000000e-01,4.301147460937500000e-01,4.376831054687500000e-01,7.312011718750000000e-01
-2.000000000000000000e+00,3.000000000000000000e+00,-1.000000000000000000e+00,3.000000000000000000e+00,-2.000000000000000000e+00,0.000000000000000000e+00,0.000000000000000000e+00,-2.000000000000000000e+00,-2.978515625000000000e-01,4.301147460937500000e-01,4.376831054687500000e-01,7.312011718750000000e-01
1.000000000000000000e+00,8.000000000000000000e+00,-2.000000000000000000e+00,-2.000000000000000000e+00,-2.000000000000000000e+00,0.000000000000000000e+00,-3.000000000000000000e+00,-1.000000000000000000e+00,-2.982788085937500000e-01,4.299926757812500000e-01,4.382934570312500000e-01,7.307128906250000000e-01
-3.000000000000000000e+00,-8.000000000000000000e+00,-8.000000000000000000e+00,-3.000000000000000000e+00,0.000000000000000000e+00,-1.000000000000000000e+00,1.000000000000000000e+00,-2.000000000000000000e+00,-2.982788085937500000e-01,4.299926757812500000e-01,4.382934570312500000e-01,7.307128906250000000e-01
1.000000000000000000e+00,-9.000000000000000000e+00,-9.000000000000000000e+00,-6.000000000000000000e+00,-1.000000000000000000e+00,0.000000000000000000e+00,1.000000000000000000e+00,0.000000000000000000e+00,-2.982788085937500000e-01,4.299926757812500000e-01,4.382934570312500000e-01,7.307128906250000000e-01
-3.000000000000000000e+00,1.500000000000000000e+01,7.000000000000000000e+00,0.000000000000000000e+00,-2.000000000000000000e+00,-2.000000000000000000e+00,-4.000000000000000000e+00,-3.000000000000000000e+00,-2.982788085937500000e-01,4.299926757812500000e-01,4.382934570312500000e-01,7.307128906250000000e-01
-3.000000000000000000e+00,-7.000000000000000000e+00,3.000000000000000000e+00,-2.000000000000000000e+00,-3.000000000000000000e+00,-2.000000000000000000e+00,-2.000000000000000000e+00,-2.000000000000000000e+00,-2.985839843750000000e-01,4.297485351562500000e-01,4.387817382812500000e-01,7.304077148437500000e-01
-2.000000000000000000e+00,-2.000000000000000000e+00,-3.000000000000000000e+00,-2.000000000000000000e+00,-2.000000000000000000e+00,-3.000000000000000000e+00,-3.000000000000000000e+00,-1.000000000000000000e+00,-2.985839843750000000e-01,4.297485351562500000e-01,4.387817382812500000e-01,7.304077148437500000e-01
-1.000000000000000000e+00,2.000000000000000000e+00,5.000000000000000000e+00,4.000000000000000000e+00,0.000000000000000000e+00,0.000000000000000000e+00,2.000000000000000000e+00,0.000000000000000000e+00,-2.985839843750000000e-01,4.297485351562500000e-01,4.387817382812500000e-01,7.304077148437500000e-01
-3.000000000000000000e+00,-1.000000000000000000e+01,-3.000000000000000000e+00,0.000000000000000000e+00,4.000000000000000000e+00,1.000000000000000000e+00,1.000000000000000000e+00,-1.000000000000000000e+00,-2.985839843750000000e-01,4.297485351562500000e-01,4.387817382812500000e-01,7.304077148437500000e-01
0.000000000000000000e+00,6.000000000000000000e+00,-1.000000000000000000e+00,-1.000000000000000000e+00,0.000000000000000000e+00,-1.000000000000000000e+00,0.000000000000000000e+00,1.000000000000000000e+00,-2.985839843750000000e-01,4.297485351562500000e-01,4.387817382812500000e-01,7.304687500000000000e-01
-1.000000000000000000e+00,-1.300000000000000000e+01,-3.000000000000000000e+00,-2.000000000000000000e+00,-2.000000000000000000e+00,-3.000000000000000000e+00,-1.000000000000000000e+00,-1.000000000000000000e+00,-2.985839843750000000e-01,4.297485351562500000e-01,4.387817382812500000e-01,7.304687500000000000e-01
0.000000000000000000e+00,1.200000000000000000e+01,-1.100000000000000000e+01,2.000000000000000000e+00,-2.000000000000000000e+00,-2.000000000000000000e+00,-2.000000000000000000e+00,0.000000000000000000e+00,-2.985839843750000000e-01,4.297485351562500000e-01,4.387817382812500000e-01,7.304687500000000000e-01
-1.000000000000000000e+00,-1.000000000000000000e+01,1.300000000000000000e+01,-2.000000000000000000e+00,-3.000000000000000000e+00,-1.000000000000000000e+00,0.000000000000000000e+00,1.000000000000000000e+00,-2.985839843750000000e-01,4.297485351562500000e-01,4.387817382812500000e-01,7.304687500000000000e-01
-2.000000000000000000e+00,-3.000000000000000000e+00,-2.000000000000000000e+00,-1.000000000000000000e+00,0.000000000000000000e+00,-2.000000000000000000e+00,-2.000000000000000000e+00,-1.000000000000000000e+00,-2.982788085937500000e-01,4.299926757812500000e-01,4.387817382812500000e-01,7.304077148437500000e-01
3.000000000000000000e+00,0.000000000000000000e+00,-2.000000000000000000e+00,-2.000000000000000000e+00,0.000000000000000000e+00,1.000000000000000000e+00,-3.000000000000000000e+00,-1.000000000000000000e+00,-2.982788085937500000e-01,4.299926757812500000e-01,4.387817382812500000e-01,7.304077148437500000e-01
2.000000000000000000e+00,3.000000000000000000e+00,-3.000000000000000000e+00,-3.000000000000000000e+00,-1.000000000000000000e+00,-1.000000000000000000e+00,-2.000000000000000000e+00,-3.000000000000000000e+00,-2.982788085937500000e-01,4.299926757812500000e-01,4.387817382812500000e-01,7.304077148437500000e-01
-2.000000000000000000e+00,-4.000000000000000000e+00,0.000000000000000000e+00,2.000000000000000000e+00,1.000000000000000000e+00,1.000000000000000000e+00,-1.000000000000000000e+00,-2.000000000000000000e+00,-2.982788085937500000e-01,4.299926757812500000e-01,4.387817382812500000e-01,7.304077148437500000e-01
0.000000000000000000e+00,0.000000000000000000e+00,1.000000000000000000e+00,-3.000000000000000000e+00,-3.000000000000000000e+00,-2.000000000000000000e+00,0.000000000000000000e+00,-1.000000000000000000e+00,-2.982788085937500000e-01,4.301147460937500000e-01,4.391479492187500000e-01,7.301635742187500000e-01
-1.000000000000000000e+00,-1.000000000000000000e+00,-8.000000000000000000e+00,-5.000000000000000000e+00,-1.000000000000000000e+00,-2.000000000000000000e+00,1.000000000000000000e+00,-2.000000000000000000e+00,-2.982788085937500000e-01,4.301147460937500000e-01,4.391479492187500000e-01,7.301635742187500000e-01
-2.000000000000000000e+00,-4.000000000000000000e+00,3.000000000000000000e+00,6.000000000000000000e+00,-2.000000000000000000e+00,-3.000000000000000000e+00,-1.000000000000000000e+00,-2.000000000000000000e+00,-2.982788085937500000e-01,4.301147460937500000e-01,4.391479492187500000e-01,7.301635742187500000e-01
-1.000000000000000000e+00,-1.000000000000000000e+00,-4.000000000000000000e+00,1.000000000000000000e+00,0.000000000000000000e+00,0.000000000000000000e+00,0.000000000000000000e+00,0.000000000000000000e+00,-2.982788085937500000e-01,4.301147460937500000e-01,4.391479492187500000e-01,7.301635742187500000e-01
-1.000000000000000000e+00,-1.200000000000000000e+01,-2.000000000000000000e+00,-1.000000000000000000e+00,-2.000000000000000000e+00,-1.000000000000000000e+00,-1.000000000000000000e+00,-2.000000000000000000e+00,-2.985839843750000000e-01,4.299926757812500000e-01,4.395141601562500000e-01,7.298583984375000000e-01
1.000000000000000000e+00,3.000000000000000000e+00,-8.000000000000000000e+00,2.000000000000000000e+00,3.000000000000000000e+00,0.000000000000000000e+00,2.000000000000000000e+00,-2.000000000000000000e+00,-2.985839843750000000e-01,4.299926757812500000e-01,4.395141601562500000e-01,7.298583984375000000e-01
0.000000000000000000e+00,5.000000000000000000e+00,1.000000000000000000e+01,-5.000000000000000000e+00,-1.000000000000000000e+00,-3.000000000000000000e+00,-2.000000000000000000e+00,0.000000000000000000e+00,-2.985839843750000000e-01,4.299926757812500000e-01,4.395141601562500000e-01,7.298583984375000000e-01
-1.000000000000000000e+00,-1.200000000000000000e+01,-1.000000000000000000e+01,-7.000000000000000000e+00,-3.000000000000000000e+00,-2.000000000000000000e+00,-3.000000000000000000e+00,-2.000000000000000000e+00,-2.985839843750000000e-01,4.299926757812500000e-01,4.395141601562500000e-01,7.298583984375000000e-01
-2.000000000000000000e+00,4.000000000000000000e+00,5.000000000000000000e+00,4.000000000000000000e+00,-3.000000000000000000e+00,-1.000000000000000000e+00,-2.000000000000000000e+00,-2.000000000000000000e+00,-2.991333007812500000e-01,4.298095703125000000e-01,4.398193359375000000e-01,7.295532226562500000e-01
-2.000000000000000000e+00,-1.000000000000000000e+00,1.000000000000000000e+00,-2.000000000000000000e+00,-3.000000000000000000e+00,-2.000000000000000000e+00,-2.000000000000000000e+00,-3.000000000000000000e+00,-2.991333007812500000e-01,4.298095703125000000e-01,4.398193359375000000e-01,7.295532226562500000e-01
1.000000000000000000e+00,7.000000000000000000e+00,-1.200000000000000000e+01,-4.000000000000000000e+00,0.000000000000000000e+00,1.000000000000000000e+00,-1.000000000000000000e+00,-1.000000000000000000e+00,-2.991333007812500000e-01,4.298095703125000000e-01,4.398193359375000000e-01,7.295532226562500000e-01
-2.000000000000000000e+00,-1.600000000000000000e+01,2.000000000000000000e+00,1.000000000000000000e+00,0.000000000000000000e+00,2.000000000000000000e+00,0.000000000000000000e+00,-1.000000000000000000e+00,-2.991333007812500000e-01,4.298095703125000000e-01,4.398193359375000000e-01,7.295532226562500000e-01
1.000000000000000000e+00,3.000000000000000000e+00,-4.000000000000000000e+00,-3.000000000000000000e+00,2.000000000000000000e+00,-2.000000000000000000e+00,-1.000000000000000000e+00,0.000000000000000000e+00,-2.991943359375000000e-01,4.295654296875000000e-01,4.399414062500000000e-01,7.296142578125000000e-01
-3.000000000000000000e+00,1.000000000000000000e+00,9.000000000000000000e+00,1.000000000000000000e+00,-2.000000000000000000e+00,0.000000000000000000e+00,-1.000000000000000000e+00,-2.000000000000000000e+00,-2.991943359375000000e-01,4.295654296875000000e-01,4.399414062500000000e-01,7.296142578125000000e-01
-5.000000000000000000e+00,-9.000000000000000000e+00,-6.000000000000000000e+00,-1.000000000000000000e+00,-3.000000000000000000e+00,0.000000000000000000e+00,-2.000000000000000000e+00,-1.000000000000000000e+00,-2.991943359375000000e-01,4.295654296875000000e-01,4.399414062500000000e-01,7.296142578125000000e-01
2.000000000000000000e+00,6.000000000000000000e+00,-9.000000000000000000e+00,-1.000000000000000000e+00,-4.000000000000000000e+00,-2.000000000000000000e+00,2.000000000000000000e+00,1.000000000000000000e+00,-2.991943359375000000e-01,4.295654296875000000e-01,4.399414062500000000e-01,7.296142578125000000e-01
-3.000000000000000000e+00,1.100000000000000000e+01,4.000000000000000000e+00,-2.000000000000000000e+00,1.000000000000000000e+00,2.000000000000000000e+00,0.000000000000000000e+00,-2.000000000000000000e+00,-2.991943359375000000e-01,4.295654296875000000e-01,4.399414062500000000e-01,7.296142578125000000e-01
-2.000000000000000000e+00,-5.000000000000000000e+00,4.000000000000000000e+00,8.000000000000000000e+00,-1.000000000000000000e+00,-1.000000000000000000e+00,-2.000000000000000000e+00,-2.000000000000000000e+00,-2.991943359375000000e-01,4.295654296875000000e-01,4.399414062500000000e-01,7.296142578125000000e-01
-2.000000000000000000e+00,-3.000000000000000000e+00,4.000000000000000000e+00,0.000000000000000000e+00,-1.000000000000000000e+00,0.000000000000000000e+00,-1.000000000000000000e+00,1.000000000000000000e+00,-2.991943359375000000e-01,4.295654296875000000e-01,4.399414062500000000e-01,7.296142578125000000e-01
-1.000000000000000000e+00,-9.000000000000000000e+00,-5.000000000000000000e+00,-4.000000000000000000e+00,-2.000000000000000000e+00,-2.000000000000000000e+00,-2.000000000000000000e+00,-1.000000000000000000e+00,-2.991943359375000000e-01,4.295654296875000000e-01,4.399414062500000000e-01,7.296142578125000000e-01
3.000000000000000000e+00,5.000000000000000000e+00,-1.000000000000000000e+00,0.000000000000000000e+00,0.000000000000000000e+00,-2.000000000000000000e+00,-1.000000000000000000e+00,-1.000000000000000000e+00,-2.991943359375000000e-01,4.295654296875000000e-01,4.399414062500000000e-01,7.296142578125000000e-01
2.000000000000000000e+00,3.000000000000000000e+00,-2.000000000000000000e+00,-4.000000000000000000e+00,-2.000000000000000000e+00,-3.000000000000000000e+00,-2.000000000000000000e+00,-1.000000000000000000e+00,-2.991943359375000000e-01,4.295654296875000000e-01,4.399414062500000000e-01,7.296142578125000000e-01
-2.000000000000000000e+00,-1.100000000000000000e+01,2.000000000000000000e+00,-2.000000000000000000e+00,-4.000000000000000000e+00,-2.000000000000000000e+00,-3.000000000000000000e+00,-1.000000000000000000e+00,-2.991943359375000000e-01,4.295654296875000000e-01,4.399414062500000000e-01,7.296142578125000000e-01
-1.000000000000000000e+00,9.000000000000000000e+00,-1.000000000000000000e+00,-4.000000000000000000e+00,-3.000000000000000000e+00,-2.000000000000000000e+00,-3.000000000000000000e+00,-3.000000000000000000e+00,-2.991943359375000000e-01,4.295654296875000000e-01,4.399414062500000000e-01,7.296142578125000000e-01
-1.000000000000000000e+00,-9.000000000000000000e+00,-1.000000000000000000e+00,2.000000000000000000e+00,3.000000000000000000e+00,-1.000000000000000000e+00,-2.000000000000000000e+00,-2.000000000000000000e+00,-2.991333007812500000e-01,4.295654296875000000e-01,4.400024414062500000e-01,7.296142578125000000e-01
-5.000000000000000000e+00,-1.200000000000000000e+01,-1.500000000000000000e+01,-1.300000000000000000e+01,-4.000000000000000000e+00,-1.000000000000000000e+00,-3.000000000000000000e+00,-2.000000000000000000e+00,-2.991333007812500000e-01,4.295654296875000000e-01,4.400024414062500000e-01,7.296142578125000000e-01
3.000000000000000000e+00,-1.000000000000000000e+00,9.000000000000000000e+00,1.100000000000000000e+01,8.000000000000000000e+00,1.000000000000000000e+00,-1.000000000000000000e+00,1.000000000000000000e+00,-2.991333007812500000e-01,4.295654296875000000e-01,4.400024414062500000e-01,7.296142578125000000e-01
1.000000000000000000e+00,8.000000000000000000e+00,8.000000000000000000e+00,7.000000000000000000e+00,-1.000000000000000000e+00,-4.000000000000000000e+00,-2.000000000000000000e+00,0.000000000000000000e+00,-2.991333007812500000e-01,4.295654296875000000e-01,4.400024414062500000e-01,7.296142578125000000e-01
-3.000000000000000000e+00,4.000000000000000000e+00,0.000000000000000000e+00,-5.000000000000000000e+00,-2.000000000000000000e+00,0.000000000000000000e+00,-2.000000000000000000e+00,0.000000000000000000e+00,-2.988281250000000000e-01,4.295043945312500000e-01,4.402465820312500000e-01,7.296142578125000000e-01
1.000000000000000000e+00,-7.000000000000000000e+00,-2.200000000000000000e+01,7.000000000000000000e+00,4.000000000000000000e+00,0.000000000000000000e+00,2.000000000000000000e+00,0.000000000000000000e+00,-2.988281250000000000e-01,4.295043945312500000e-01,4.402465820312500000e-01,7.296142578125000000e-01
0.000000000000000000e+00,9.000000000000000000e+00,3.100000000000000000e+01,-3.000000000000000000e+00,-4.000000000000000000e+00,-1.000000000000000000e+00,0.000000000000000000e+00,0.000000000000000000e+00,-2.988281250000000000e-01,4.295043945312500000e-01,4.402465820312500000e-01,7.296142578125000000e-01
-1.000000000000000000e+00,1.600000000000000000e+01,2.000000000000000000e+00,-5.000000000000000000e+00,-4.000000000000000000e+00,-2.000000000000000000e+00,-1.000000000000000000e+00,-1.000000000000000000e+00,-2.988281250000000000e-01,4.295043945312500000e-01,4.402465820312500000e-01,7.296142578125000000e-01
-2.000000000000000000e+00,-4.000000000000000000e+00,0.000000000000000000e+00,2.000000000000000000e+00,1.000000000000000000e+00,0.000000000000000000e+00,-1.000000000000000000e+00,-1.000000000000000000e+00,-2.988891601562500000e-01,4.291381835937500000e-01,4.406127929687500000e-01,7.295532226562500000e-01
0.000000000000000000e+00,-1.000000000000000000e+00,-5.000000000000000000e+00,-2.000000000000000000e+00,-2.000000000000000000e+00,-1.000000000000000000e+00,1.000000000000000000e+00,0.000000000000000000e+00,-2.988891601562500000e-01,4.291381835937500000e-01,4.406127929687500000e-01,7.295532226562500000e-01
1.000000000000000000e+00,-5.000000000000000000e+00,-1.200000000000000000e+01,-2.000000000000000000e+00,-3.000000000000000000e+00,-1.000000000000000000e+00,0.000000000000000000e+00,-2.000000000000000000e+00,-2.988891601562500000e-01,4.291381835937500000e-01,4.406127929687500000e-01,7.295532226562500000e-01
1.000000000000000000e+00,-4.000000000000000000e+00,-1.000000000000000000e+00,2.000000000000000000e+00,1.000000000000000000e+00,-1.000000000000000000e+00,-2.000000000000000000e+00,0.000000000000000000e+00,-2.988891601562500000e-01,4.291381835937500000e-01,4.406127929687500000e-01,7.295532226562500000e-01
1.000000000000000000e+00,0.000000000000000000e+00,-2.000000000000000000e+00,-9.000000000000000000e+00,-7.000000000000000000e+00,-2.000000000000000000e+00,0.000000000000000000e+00,1.000000000000000000e+00,-2.990112304687500000e-01,4.288940429687500000e-01,4.411010742187500000e-01,7.293701171875000000e-01
-3.000000000000000000e+00,0.000000000000000000e+00,9.000000000000000000e+00,3.000000000000000000e+00,2.000000000000000000e+00,-1.000000000000000000e+00,-3.000000000000000000e+00,-1.000000000000000000e+00,-2.990112304687500000e-01,4.288940429687500000e-01,4.411010742187500000e-01,7.293701171875000000e-01
-2.000000000000000000e+00,-2.000000000000000000e+00,-2.000000000000000000e+01,-1.200000000000000000e+01,0.000000000000000000e+00,1.000000000000000000e+00,3.000000000000000000e+00,-2.000000000000000000e+00,-2.990112304687500000e-01,4.288940429687500000e-01,4.411010742187500000e-01,7.293701171875000000e-01
1.000000000000000000e+00,5.000000000000000000e+00,9.000000000000000000e+00,3.000000000000000000e+00,3.000000000000000000e+00,0.000000000000000000e+00,0.000000000000000000e+00,-2.000000000000000000e+00,-2.990112304687500000e-01,4.288940429687500000e-01,4.411010742187500000e-01,7.293701171875000000e-01
-1.000000000000000000e+00,-7.000000000000000000e+00,7.000000000000000000e+00,1.100000000000000000e+01,-2.000000000000000000e+00,-3.000000000000000000e+00,0.000000000000000000e+00,-2.000000000000000000e+00,-2.984619140625000000e-01,4.290771484375000000e-01,4.411621093750000000e-01,7.294311523437500000e-01
1.000000000000000000e+00,2.000000000000000000e+00,4.000000000000000000e+00,-4.000000000000000000e+00,-4.000000000000000000e+00,-1.000000000000000000e+00,-1.000000000000000000e+00,1.000000000000000000e+00,-2.984619140625000000e-01,4.290771484375000000e-01,4.411621093750000000e-01,7.294311523437500000e-01
0.000000000000000000e+00,3.000000000000000000e+00,-2.000000000000000000e+00,-1.000000000000000000e+00,-4.000000000000000000e+00,-3.000000000000000000e+00,-1.000000000000000000e+00,-1.000000000000000000e+00,-2.984619140625000000e-01,4.290771484375000000e-01,4.411621093750000000e-01,7.294311523437500000e-01
-2.000000000000000000e+00,1.000000000000000000e+00,-1.200000000000000000e+01,-7.000000000000000000e+00,-2.000000000000000000e+00,-1.000000000000000000e+00,-1.000000000000000000e+00,0.000000000000000000e+00,-2.984619140625000000e-01,4.290771484375000000e-01,4.411621093750000000e-01,7.294311523437500000e-01
-1.000000000000000000e+00,-7.000000000000000000e+00,-7.000000000000000000e+00,-6.000000000000000000e+00,0.000000000000000000e+00,1.000000000000000000e+00,1.000000000000000000e+00,0.000000000000000000e+00,-2.982788085937500000e-01,4.293212890625000000e-01,4.412231445312500000e-01,7.293701171875000000e-01
-5.000000000000000000e+00,2.000000000000000000e+00,1.500000000000000000e+01,6.000000000000000000e+00,1.000000000000000000e+00,-2.000000000000000000e+00,-2.000000000000000000e+00,-2.000000000000000000e+00,-2.982788085937500000e-01,4.293212890625000000e-01,4.412231445312500000e-01,7.293701171875000000e-01
2.000000000000000000e+00,-8.000000000000000000e+00,-1.100000000000000000e+01,-6.000000000000000000e+00,-2.000000000000000000e+00,-2.000000000000000000e+00,-3.000000000000000000e+00,-1.000000000000000000e+00,-2.982788085937500000e-01,4.293212890625000000e-01,4.412231445312500000e-01,7.293701171875000000e-01
-3.000000000000000000e+00,-1.100000000000000000e+01,-1.000000000000000000e+01,-3.000000000000000000e+00,1.000000000000000000e+00,0.000000000000000000e+00,-1.000000000000000000e+00,-3.000000000000000000e+00,-2.982788085937500000e-01,4.293212890625000000e-01,4.412231445312500000e-01,7.293701171875000000e-01
0.000000000000000000e+00,4.000000000000000000e+00,1.300000000000000000e+01,0.000000000000000000e+00,-3.000000000000000000e+00,-2.000000000000000000e+00,-1.000000000000000000e+00,-1.000000000000000000e+00,-2.981567382812500000e-01,4.295043945312500000e-01,4.414062500000000000e-01,7.291870117187500000e-01
0.000000000000000000e+00,9.000000000000000000e+00,5.000000000000000000e+00,-1.000000000000000000e+00,-2.000000000000000000e+00,-1.000000000000000000e+00,0.000000000000000000e+00,-1.000000000000000000e+00,-2.981567382812500000e-01,4.295043945312500000e-01,4.414062500000000000e-01,7.291870117187500000e-01
-1.000000000000000000e+00,-8.000000000000000000e+00,-3.000000000000000000e+00,-1.000000000000000000e+00,-1.000000000000000000e+00,-1.000000000000000000e+00,-3.000000000000000000e+00,0.000000000000000000e+00,-2.981567382812500000e-01,4.295043945312500000e-01,4.414062500000000000e-01,7.291870117187500000e-01
-3.000000000000000000e+00,-9.000000000000000000e+00,-6.000000000000000000e+00,-3.000000000000000000e+00,-1.000000000000000000e+00,0.000000000000000000e+00,0.000000000000000000e+00,-1.000000000000000000e+00,-2.981567382812500000e-01,4.295043945312500000e-01,4.414062500000000000e-01,7.291870117187500000e-01
4.000000000000000000e+00,-4.000000000000000000e+00,-8.000000000000000000e+00,-1.000000000000000000e+00,2.000000000000000000e+00,1.000000000000000000e+00,1.000000000000000000e+00,0.000000000000000000e+00,-2.981567382812500000e-01,4.295043945312500000e-01,4.416503906250000000e-01,7.290039062500000000e-01
0.000000000000000000e+00,-9.000000000000000000e+00,-1.400000000000000000e+01,-3.000000000000000000e+00,0.000000000000000000e+00,-1.000000000000000000e+00,-1.000000000000000000e+00,0.000000000000000000e+00,-2.981567382812500000e-01,4.295043945312500000e-01,4.416503906250000000e-01,7.290039062500000000e-01
-1.000000000000000000e+00,1.800000000000000000e+01,1.700000000000000000e+01,-1.000000000000000000e+00,-2.000000000000000000e+00,-1.000000000000000000e+00,-1.000000000000000000e+00,-2.000000000000000000e+00,-2.981567382812500000e-01,4.295043945312500000e-01,4.416503906250000000e-01,7.290039062500000000e-01
1.000000000000000000e+00,-1.000000000000000000e+00,3.000000000000000000e+00,5.000000000000000000e+00,-2.000000000000000000e+00,0.000000000000000000e+00,-1.000000000000000000e+00,1.000000000000000000e+00,-2.981567382812500000e-01,4.295043945312500000e-01,4.416503906250000000e-01,7.290039062500000000e-01
-3.000000000000000000e+00,2.000000000000000000e+00,-3.000000000000000000e+00,-4.000000000000000000e+00,0.000000000000000000e+00,-2.000000000000000000e+00,-1.000000000000000000e+00,0.000000000000000000e+00,-2.982788085937500000e-01,4.293212890625000000e-01,4.420776367187500000e-01,7.288208007812500000e-01
-1.000000000000000000e+00,0.000000000000000000e+00,0.000000000000000000e+00,-2.000000000000000000e+00,-2.000000000000000000e+00,-2.000000000000000000e+00,-1.000000000000000000e+00,-1.000000000000000000e+00,-2.982788085937500000e-01,4.293212890625000000e-01,4.420776367187500000e-01,7.288208007812500000e-01
-2.000000000000000000e+00,-1.000000000000000000e+01,-1.500000000000000000e+01,-1.000000000000000000e+01,0.000000000000000000e+00,-1.000000000000000000e+00,1.000000000000000000e+00,-1.000000000000000000e+00,-2.982788085937500000e-01,4.293212890625000000e-01,4.420776367187500000e-01,7.288208007812500000e-01
-5.000000000000000000e+00,-1.000000000000000000e+00,1.200000000000000000e+01,1.300000000000000000e+01,3.000000000000000000e+00,0.000000000000000000e+00,-2.000000000000000000e+00,0.000000000000000000e+00,-2.982788085937500000e-01,4.293212890625000000e-01,4.420776367187500000e-01,7.288208007812500000e-01
-1.000000000000000000e+00,-1.400000000000000000e+01,-5.000000000000000000e+00,0.000000000000000000e+00,-1.000000000000000000e+00,0.000000000000000000e+00,-1.000000000000000000e+00,-2.000000000000000000e+00,-2.983398437500000000e-01,4.294433593750000000e-01,4.423217773437500000e-01,7.285766601562500000e-01
-3.000000000000000000e+00,1.000000000000000000e+00,-1.100000000000000000e+01,-5.000000000000000000e+00,-2.000000000000000000e+00,-2.000000000000000000e+00,-3.000000000000000000e+00,-2.000000000000000000e+00,-2.983398437500000000e-01,4.294433593750000000e-01,4.423217773437500000e-01,7.285766601562500000e-01
-3.000000000000000000e+00,6.000000000000000000e+00,7.000000000000000000e+00,-2.000000000000000000e+00,-1.000000000000000000e+00,1.000000000000000000e+00,1.000000000000000000e+00,-2.000000000000000000e+00,-2.983398437500000000e-01,4.294433593750000000e-01,4.423217773437500000e-01,7.285766601562500000e-01
0.000000000000000000e+00,-3.000000000000000000e+00,-2.000000000000000000e+00,-5.000000000000000000e+00,1.000000000000000000e+00,1.000000000000000000e+00,1.000000000000000000e+00,0.000000000000000000e+00,-2.983398437500000000e-01,4.294433593750000000e-01,4.423217773437500000e-01,7.285766601562500000e-01
0.000000000000000000e+00,7.000000000000000000e+00,-3.000000000000000000e+00,-1.000000000000000000e+00,-1.000000000000000000e+00,-1.000000000000000000e+00,-3.000000000000000000e+00,-2.000000000000000000e+00,-2.980957031250000000e-01,4.298095703125000000e-01,4.423828125000000000e-01,7.284545898437500000e-01
-1.000000000000000000e+00,-1.000000000000000000e+00,3.000000000000000000e+00,-1.000000000000000000e+00,-2.000000000000000000e+00,-1.000000000000000000e+00,-2.000000000000000000e+00,-1.000000000000000000e+00,-2.980957031250000000e-01,4.298095703125000000e-01,4.423828125000000000e-01,7.284545898437500000e-01
-2.000000000000000000e+00,-1.000000000000000000e+01,-4.000000000000000000e+00,-2.000000000000000000e+00,-6.000000000000000000e+00,-1.000000000000000000e+00,-1.000000000000000000e+00,-1.000000000000000000e+00,-2.980957031250000000e-01,4.298095703125000000e-01,4.423828125000000000e-01,7.284545898437500000e-01
1.000000000000000000e+00,1.500000000000000000e+01,-2.000000000000000000e+00,-2.000000000000000000e+00,0.000000000000000000e+00,-4.000000000000000000e+00,-3.000000000000000000e+00,1.000000000000000000e+00,-2.980957031250000000e-01,4.298095703125000000e-01,4.423828125000000000e-01,7.284545898437500000e-01
-5.000000000000000000e+00,-7.000000000000000000e+00,0.000000000000000000e+00,2.000000000000000000e+00,0.000000000000000000e+00,-2.000000000000000000e+00,-1.000000000000000000e+00,-1.000000000000000000e+00,-2.980346679687500000e-01,4.298095703125000000e-01,4.423828125000000000e-01,7.284545898437500000e-01
-1.000000000000000000e+00,-2.400000000000000000e+01,-3.000000000000000000e+00,-1.000000000000000000e+00,2.000000000000000000e+00,1.000000000000000000e+00,-1.000000000000000000e+00,-2.000000000000000000e+00,-2.980346679687500000e-01,4.298095703125000000e-01,4.423828125000000000e-01,7.284545898437500000e-01
1.000000000000000000e+00,1.500000000000000000e+01,1.000000000000000000e+01,1.100000000000000000e+01,3.000000000000000000e+00,-2.000000000000000000e+00,-1.000000000000000000e+00,-1.000000000000000000e+00,-2.980346679687500000e-01,4.298095703125000000e-01,4.423828125000000000e-01,7.284545898437500000e-01
2.000000000000000000e+00,3.000000000000000000e+00,2.000000000000000000e+00,-4.000000000000000000e+00,-2.000000000000000000e+00,-3.000000000000000000e+00,-1.000000000000000000e+00,-1.000000000000000000e+00,-2.980346679687500000e-01,4.298095703125000000e-01,4.423828125000000000e-01,7.284545898437500000e-01
-1.000000000000000000e+00,-4.000000000000000000e+00,-8.000000000000000000e+00,-6.000000000000000000e+00,-5.000000000000000000e+00,-3.000000000000000000e+00,-2.000000000000000000e+00,-1.000000000000000000e+00,-2.980346679687500000e-01,4.298095703125000000e-01,4.423828125000000000e-01,7.284545898437500000e-01
-2.000000000000000000e+00,0.000000000000000000e+00,-2.000000000000000000e+00,-1.000000000000000000e+00,-1.000000000000000000e+00,1.000000000000000000e+00,1.000000000000000000e+00,-1.000000000000000000e+00,-2.980346679687500000e-01,4.298095703125000000e-01,4.423828125000000000e-01,7.284545898437500000e-01
-3.000000000000000000e+00,-1.100000000000000000e+01,-8.000000000000000000e+00,-9.000000000000000000e+00,-4.000000000000000000e+00,0.000000000000000000e+00,-1.000000000000000000e+00,-2.000000000000000000e+00,-2.980346679687500000e-01,4.298095703125000000e-01,4.423828125000000000e-01,7.284545898437500000e-01
-2.000000000000000000e+00,1.200000000000000000e+01,8.000000000000000000e+00,3.000000000000000000e+00,-3.000000000000000000e+00,0.000000000000000000e+00,0.000000000000000000e+00,-2.000000000000000000e+00,-2.980346679687500000e-01,4.298095703125000000e-01,4.423828125000000000e-01,7.284545898437500000e-01
1.000000000000000000e+00,2.000000000000000000e+00,-5.000000000000000000e+00,-3.000000000000000000e+00,0.000000000000000000e+00,2.000000000000000000e+00,0.000000000000000000e+00,0.000000000000000000e+00,-2.979736328125000000e-01,4.298706054687500000e-01,4.424438476562500000e-01,7.284545898437500000e-01
1.000000000000000000e+00,1.400000000000000000e+01,9.000000000000000000e+00,0.000000000000000000e+00,0.000000000000000000e+00,-3.000000000000000000e+00,-1.000000000000000000e+00,-1.000000000000000000e+00,-2.979736328125000000e-01,4.298706054687500000e-01,4.424438476562500000e-01,7.284545898437500000e-01
-3.000000000000000000e+00,-1.000000000000000000e+01,-8.000000000000000000e+00,1.000000000000000000e+00,1.000000000000000000e+00,-1.000000000000000000e+00,-1.000000000000000000e+00,0.000000000000000000e+00,-2.979736328125000000e-01,4.298706054687500000e-01,4.424438476562500000e-01,7.284545898437500000e-01
-2.000000000000000000e+00,-8.000000000000000000e+00,-8.000000000000000000e+00,-3.000000000000000000e+00,2.000000000000000000e+00,1.000000000000000000e+00,0.000000000000000000e+00,-1.000000000000000000e+00,-2.979736328125000000e-01,4.298706054687500000e-01,4.424438476562500000e-01,7.284545898437500000e-01
-2.000000000000000000e+00,3.000000000000000000e+00,-8.000000000000000000e+00,-9.000000000000000000e+00,0.000000000000000000e+00,1.000000000000000000e+00,-1.000000000000000000e+00,0.000000000000000000e+00,-2.979736328125000000e-01,4.298706054687500000e-01,4.424438476562500000e-01,7.283935546875000000e-01
-1.000000000000000000e+00,3.000000000000000000e+00,1.000000000000000000e+01,9.000000000000000000e+00,-3.000000000000000000e+00,1.000000000000000000e+00,-2.000000000000000000e+00,0.000000000000000000e+00,-2.979736328125000000e-01,4.298706054687500000e-01,4.424438476562500000e-01,7.283935546875000000e-01
-1.000000000000000000e+00,0.000000000000000000e+00,-2.000000000000000000e+00,3.000000000000000000e+00,-2.000000000000000000e+00,-3.000000000000000000e+00,-3.000000000000000000e+00,-1.000000000000000000e+00,-2.979736328125000000e-01,4.298706054687500000e-01,4.424438476562500000e-01,7.283935546875000000e-01
2.000000000000000000e+00,-5.000000000000000000e+00,-5.000000000000000000e+00,-3.000000000000000000e+00,-4.000000000000000000e+00,-1.000000000000000000e+00,-2.000000000000000000e+00,0.000000000000000000e+00,-2.979736328125000000e-01,4.298706054687500000e-01,4.424438476562500000e-01,7.283935546875000000e-01
-4.000000000000000000e+00,-1.700000000000000000e+01,-1.000000000000000000e+00,4.000000000000000000e+00,4.000000000000000000e+00,2.000000000000000000e+00,2.000000000000000000e+00,0.000000000000000000e+00,-2.979736328125000000e-01,4.298706054687500000e-01,4.424438476562500000e-01,7.284545898437500000e-01
0.000000000000000000e+00,2.000000000000000000e+01,0.000000000000000000e+00,-2.000000000000000000e+00,-1.000000000000000000e+00,-1.000000000000000000e+00,-1.000000000000000000e+00,1.000000000000000000e+00,-2.979736328125000000e-01,4.298706054687500000e-01,4.424438476562500000e-01,7.284545898437500000e-01
2.000000000000000000e+00,9.000000000000000000e+00,4.000000000000000000e+00,1.000000000000000000e+00,-1.000000000000000000e+00,-2.000000000000000000e+00,0.000000000000000000e+00,-1.000000000000000000e+00,-2.979736328125000000e-01,4.298706054687500000e-01,4.424438476562500000e-01,7.284545898437500000e-01
-5.000000000000000000e+00,-1.400000000000000000e+01,-1.000000000000000000e+00,-3.000000000000000000e+00,-4.000000000000000000e+00,-1.000000000000000000e+00,0.000000000000000000e+00,-2.000000000000000000e+00,-2.979736328125000000e-01,4.298706054687500000e-01,4.424438476562500000e-01,7.284545898437500000e-01
0.000000000000000000e+00,0.000000000000000000e+00,5.000000000000000000e+00,2.000000000000000000e+00,-4.000000000000000000e+00,-2.000000000000000000e+00,-1.000000000000000000e+00,-3.000000000000000000e+00,-2.979736328125000000e-01,4.298095703125000000e-01,4.424438476562500000e-01,7.284545898437500000e-01
-5.000000000000000000e+00,-1.800000000000000000e+01,-1.500000000000000000e+01,-3.000000000000000000e+00,0.000000000000000000e+00,2.000000000000000000e+00,1.000000000000000000e+00,0.000000000000000000e+00,-2.979736328125000000e-01,4.298095703125000000e-01,4.424438476562500000e-01,7.284545898437500000e-01
1.000000000000000000e+00,1.500000000000000000e+01,1.300000000000000000e+01,2.000000000000000000e+00,2.000000000000000000e+00,0.000000000000000000e+00,0.000000000000000000e+00,0.000000000000000000e+00,-2.979736328125000000e-01,4.298095703125000000e-01,4.424438476562500000e-01,7.284545898437500000e-01
-2.000000000000000000e+00,-1.400000000000000000e+01,-5.000000000000000000e+00,-2.000000000000000000e+00,2.000000000000000000e+00,0.000000000000000000e+00,-3.000000000000000000e+00,-2.000000000000000000e+00,-2.979736328125000000e-01,4.298095703125000000e-01,4.424438476562500000e-01,7.284545898437500000e-01
-2.000000000000000000e+00,1.200000000000000000e+01,-2.000000000000000000e+00,-2.000000000000000000e+00,-4.000000000000000000e+00,-4.000000000000000000e+00,-2.000000000000000000e+00,-1.000000000000000000e+00,-2.979736328125000000e-01,4.294433593750000000e-01,4.424438476562500000e-01,7.286987304687500000e-01
-1.000000000000000000e+00,-7.000000000000000000e+00,-1.100000000000000000e+01,-1.000000000000000000e+01,-4.000000000000000000e+00,-2.000000000000000000e+00,-2.000000000000000000e+00,0.000000000000000000e+00,-2.979736328125000000e-01,4.294433593750000000e-01,4.424438476562500000e-01,7.286987304687500000e-01
-3.000000000000000000e+00,-1.000000000000000000e+01,7.000000000000000000e+00,1.000000000000000000e+01,-3.000000000000000000e+00,-3.000000000000000000e+00,-4.000000000000000000e+00,-4.000000000000000000e+00,-2.979736328125000000e-01,4.294433593750000000e-01,4.424438476562500000e-01,7.286987304687500000e-01
1.000000000000000000e+00,-2.000000000000000000e+00,-5.000000000000000000e+00,0.000000000000000000e+00,0.000000000000000000e+00,1.000000000000000000e+00,2.000000000000000000e+00,0.000000000000000000e+00,-2.979736328125000000e-01,4.294433593750000000e-01,4.424438476562500000e-01,7.286987304687500000e-01
-1.000000000000000000e+00,-2.000000000000000000e+00,1.200000000000000000e+01,2.000000000000000000e+00,1.000000000000000000e+00,0.000000000000000000e+00,-1.000000000000000000e+00,1.000000000000000000e+00,-2.982177734375000000e-01,4.291381835937500000e-01,4.425048828125000000e-01,7.286987304687500000e-01
0.000000000000000000e+00,0.000000000000000000e+00,-2.000000000000000000e+00,-8.000000000000000000e+00,-2.000000000000000000e+00,-3.000000000000000000e+00,-1.000000000000000000e+00,-1.000000000000000000e+00,-2.982177734375000000e-01,4.291381835937500000e-01,4.425048828125000000e-01,7.286987304687500000e-01
-1.000000000000000000e+00,1.000000000000000000e+00,-7.000000000000000000e+00,-3.000000000000000000e+00,1.000000000000000000e+00,0.000000000000000000e+00,-1.000000000000000000e+00,0.000000000000000000e+00,-2.982177734375000000e-01,4.291381835937500000e-01,4.425048828125000000e-01,7.286987304687500000e-01
-1.000000000000000000e+00,-6.000000000000000000e+00,0.000000000000000000e+00,-3.000000000000000000e+00,-3.000000000000000000e+00,-2.000000000000000000e+00,-1.000000000000000000e+00,-1.000000000000000000e+00,-2.982177734375000000e-01,4.291381835937500000e-01,4.425048828125000000e-01,7.286987304687500000e-01
-1.000000000000000000e+00,-2.000000000000000000e+00,-3.000000000000000000e+00,-1.000000000000000000e+00,-3.000000000000000000e+00,-1.000000000000000000e+00,-1.000000000000000000e+00,-2.000000000000000000e+00,-2.986450195312500000e-01,4.285278320312500000e-01,4.424438476562500000e-01,7.289428710937500000e-01
1.000000000000000000e+00,8.000000000000000000e+00,5.000000000000000000e+00,3.000000000000000000e+00,1.000000000000000000e+00,0.000000000000000000e+00,2.000000000000000000e+00,-2.000000000000000000e+00,-2.986450195312500000e-01,4.285278320312500000e-01,4.424438476562500000e-01,7.289428710937500000e-01
-3.000000000000000000e+00,-1.100000000000000000e+01,-7.000000000000000000e+00,-2.000000000000000000e+00,0.000000000000000000e+00,-1.000000000000000000e+00,-1.000000000000000000e+00,-2.000000000000000000e+00,-2.986450195312500000e-01,4.285278320312500000e-01,4.424438476562500000e-01,7.289428710937500000e-01
1.000000000000000000e+00,1.100000000000000000e+01,-1.000000000000000000e+00,-2.000000000000000000e+00,-1.000000000000000000e+00,-1.000000000000000000e+00,1.000000000000000000e+00,0.000000000000000000e+00,-2.986450195312500000e-01,4.285278320312500000e-01,4.424438476562500000e-01,7.289428710937500000e-01
1.000000000000000000e+00,-3.000000000000000000e+00,6.000000000000000000e+00,6.000000000000000000e+00,2.000000000000000000e+00,-1.000000000000000000e+00,0.000000000000000000e+00,1.000000000000000000e+00,-2.988891601562500000e-01,4.278564453125000000e-01,4.424438476562500000e-01,7.292480468750000000e-01
-4.000000000000000000e+00,-1.300000000000000000e+01,0.000000000000000000e+00,-4.000000000000000000e+00,-1.000000000000000000e+00,-2.000000000000000000e+00,-3.000000000000000000e+00,-3.000000000000000000e+00,-2.988891601562500000e-01,4.278564453125000000e-01,4.424438476562500000e-01,7.292480468750000000e-01
-1.000000000000000000e+00,5.000000000000000000e+00,3.000000000000000000e+00,6.000000000000000000e+00,-1.000000000000000000e+00,0.000000000000000000e+00,0.000000000000000000e+00,0.000000000000000000e+00,-2.988891601562500000e-01,4.278564453125000000e-01,4.424438476562500000e-01,7.292480468750000000e-01
-1.000000000000000000e+00,-1.000000000000000000e+00,-5.000000000000000000e+00,-7.000000000000000000e+00,-2.000000000000000000e+00,0.000000000000000000e+00,0.000000000000000000e+00,-1.000000000000000000e+00,-2.988891601562500000e-01,4.278564453125000000e-01,4.424438476562500000e-01,7.292480468750000000e-01
-1.000000000000000000e+00,8.000000000000000000e+00,-2.000000000000000000e+00,-1.000000000000000000e+00,-2.000000000000000000e+00,0.000000000000000000e+00,0.000000000000000000e+00,-1.000000000000000000e+00,-2.990112304687500000e-01,4.271850585937500000e-01,4.424438476562500000e-01,7.295532226562500000e-01
1.000000000000000000e+00,-2.000000000000000000e+00,-1.000000000000000000e+00,1.000000000000000000e+00,2.000000000000000000e+00,0.000000000000000000e+00,1.000000000000000000e+00,-2.000000000000000000e+00,-2.990112304687500000e-01,4.271850585937500000e-01,4.424438476562500000e-01,7.295532226562500000e-01
-3.000000000000000000e+00,3.000000000000000000e+00,3.000000000000000000e+00,-5.000000000000000000e+00,-3.000000000000000000e+00,-2.000000000000000000e+00,0.000000000000000000e+00,-1.000000000000000000e+00,-2.990112304687500000e-01,4.271850585937500000e-01,4.424438476562500000e-01,7.295532226562500000e-01
-2.000000000000000000e+00,-7.000000000000000000e+00,-2.000000000000000000e+00,-2.000000000000000000e+00,0.000000000000000000e+00,-2.000000000000000000e+00,-3.000000000000000000e+00,-1.000000000000000000e+00,-2.990112304687500000e-01,4.271850585937500000e-01,4.424438476562500000e-01,7.295532226562500000e-01
-1.000000000000000000e+00,-6.000000000000000000e+00,-4.000000000000000000e+00,0.000000000000000000e+00,-1.000000000000000000e+00,-2.000000000000000000e+00,1.000000000000000000e+00,0.000000000000000000e+00,-2.992553710937500000e-01,4.266357421875000000e-01,4.423217773437500000e-01,7.298583984375000000e-01
0.000000000000000000e+00,0.000000000000000000e+00,1.000000000000000000e+00,3.000000000000000000e+00,0.000000000000000000e+00,1.000000000000000000e+00,1.000000000000000000e+00,-2.000000000000000000e+00,-2.992553710937500000e-01,4.266357421875000000e-01,4.423217773437500000e-01,7.298583984375000000e-01
-2.000000000000000000e+00,-3.000000000000000000e+00,-3.000000000000000000e+00,1.000000000000000000e+00,-1.000000000000000000e+00,0.000000000000000000e+00,-1.000000000000000000e+00,0.000000000000000000e+00,-2.992553710937500000e-01,4.266357421875000000e-01,4.423217773437500000e-01,7.298583984375000000e-01
0.000000000000000000e+00,-2.000000000000000000e+00,-6.000000000000000000e+00,0.000000000000000000e+00,0.000000000000000000e+00,0.000000000000000000e+00,-2.000000000000000000e+00,1.000000000000000000e+00,-2.992553710937500000e-01,4.266357421875000000e-01,4.423217773437500000e-01,7.298583984375000000e-01
0.000000000000000000e+00,2.000000000000000000e+00,-2.000000000000000000e+00,-5.000000000000000000e+00,-2.000000000000000000e+00,-3.000000000000000000e+00,-2.000000000000000000e+00,-2.000000000000000000e+00,-2.993164062500000000e-01,4.261474609375000000e-01,4.422607421875000000e-01,7.301635742187500000e-01
0.000000000000000000e+00,5.000000000000000000e+00,6.000000000000000000e+00,-4.000000000000000000e+00,-6.000000000000000000e+00,-3.000000000000000000e+00,1.000000000000000000e+00,-1.000000000000000000e+00,-2.993164062500000000e-01,4.261474609375000000e-01,4.422607421875000000e-01,7.301635742187500000e-01
-1.000000000000000000e+00,-3.000000000000000000e+00,-7.000000000000000000e+00,-1.000000000000000000e+00,3.000000000000000000e+00,-1.000000000000000000e+00,-1.000000000000000000e+00,0.000000000000000000e+00,-2.993164062500000000e-01,4.261474609375000000e-01,4.422607421875000000e-01,7.301635742187500000e-01
-2.000000000000000000e+00,5.000000000000000000e+00,8.000000000000000000e+00,2.000000000000000000e+00,2.000000000000000000e+00,1.000000000000000000e+00,-1.000000000000000000e+00,-4.000000000000000000e+00,-2.993164062500000000e-01,4.261474609375000000e-01,4.422607421875000000e-01,7.301635742187500000e-01
-2.000000000000000000e+00,-1.000000000000000000e+01,-1.000000000000000000e+01,1.000000000000000000e+00,-3.000000000000000000e+00,-3.000000000000000000e+00,-1.000000000000000000e+00,-1.000000000000000000e+00,-2.995605468750000000e-01,4.255981445312500000e-01,4.421997070312500000e-01,7.304077148437500000e-01
-2.000000000000000000e+00,1.400000000000000000e+01,4.000000000000000000e+00,-1.000000000000000000e+00,-1.000000000000000000e+00,0.000000000000000000e+00,-2.000000000000000000e+00,-2.000000000000000000e+00,-2.995605468750000000e-01,4.255981445312500000e-01,4.421997070312500000e-01,7.304077148437500000e-01
3.000000000000000000e+00,-2.800000000000000000e+01,-1.300000000000000000e+01,-7.000000000000000000e+00,-4.000000000000000000e+00,0.000000000000000000e+00,-1.000000000000000000e+00,0.000000000000000000e+00,-2.995605468750000000e-01,4.255981445312500000e-01,4.421997070312500000e-01,7.304077148437500000e-01
-2.000000000000000000e+00,1.100000000000000000e+01,1.000000000000000000e+00,4.000000000000000000e+00,5.000000000000000000e+00,-1.000000000000000000e+00,-2.000000000000000000e+00,-1.000000000000000000e+00,-2.995605468750000000e-01,4.255981445312500000e-01,4.421997070312500000e-01,7.304077148437500000e-01
-3.000000000000000000e+00,1.000000000000000000e+00,6.000000000000000000e+00,-4.000000000000000000e+00,-1.000000000000000000e+00,-1.000000000000000000e+00,-3.000000000000000000e+00,-2.000000000000000000e+00,-2.996215820312500000e-01,4.251098632812500000e-01,4.422607421875000000e-01,7.306518554687500000e-01
2.000000000000000000e+00,7.000000000000000000e+00,-1.000000000000000000e+00,1.000000000000000000e+00,1.000000000000000000e+00,-3.000000000000000000e+00,0.000000000000000000e+00,2.000000000000000000e+00,-2.996215820312500000e-01,4.251098632812500000e-01,4.422607421875000000e-01,7.306518554687500000e-01
-3.000000000000000000e+00,-1.700000000000000000e+01,-7.000000000000000000e+00,-2.000000000000000000e+00,-2.000000000000000000e+00,-1.000000000000000000e+00,0.000000000000000000e+00,-2.000000000000000000e+00,-2.996215820312500000e-01,4.251098632812500000e-01,4.422607421875000000e-01,7.306518554687500000e-01
-2.000000000000000000e+00,-4.000000000000000000e+00,-3.000000000000000000e+00,-5.000000000000000000e+00,0.000000000000000000e+00,-1.000000000000000000e+00,1.000000000000000000e+00,-1.000000000000000000e+00,-2.996215820312500000e-01,4.251098632812500000e-01,4.422607421875000000e-01,7.306518554687500000e-01
2.000000000000000000e+00,7.000000000000000000e+00,-1.000000000000000000e+00,-1.000000000000000000e+00,-4.000000000000000000e+00,-3.000000000000000000e+00,-2.000000000000000000e+00,-1.000000000000000000e+00,-2.999877929687500000e-01,4.244995117187500000e-01,4.422607421875000000e-01,7.308349609375000000e-01
0.000000000000000000e+00,-5.000000000000000000e+00,5.000000000000000000e+00,2.000000000000000000e+00,2.000000000000000000e+00,1.000000000000000000e+00,1.000000000000000000e+00,0.000000000000000000e+00,-2.999877929687500000e-01,4.244995117187500000e-01,4.422607421875000000e-01,7.308349609375000000e-01
0.000000000000000000e+00,7.000000000000000000e+00,-4.000000000000000000e+00,-3.000000000000000000e+00,-1.000000000000000000e+00,0.000000000000000000e+00,-3.000000000000000000e+00,0.000000000000000000e+00,-2.999877929687500000e-01,4.244995117187500000e-01,4.422607421875000000e-01,7.308349609375000000e-01
2.000000000000000000e+00,3.000000000000000000e+00,4.000000000000000000e+00,0.000000000000000000e+00,-3.000000000000000000e+00,-3.000000000000000000e+00,-1.000000000000000000e+00,0.000000000000000000e+00,-2.999877929687500000e-01,4.244995117187500000e-01,4.422607421875000000e-01,7.308349609375000000e-01
-2.000000000000000000e+00,-1.400000000000000000e+01,-1.300000000000000000e+01,0.000000000000000000e+00,1.000000000000000000e+00,0.000000000000000000e+00,0.000000000000000000e+00,-2.000000000000000000e+00,-3.001098632812500000e-01,4.240722656250000000e-01,4.422607421875000000e-01,7.310180664062500000e-01
-2.000000000000000000e+00,1.100000000000000000e+01,2.000000000000000000e+00,-6.000000000000000000e+00,-3.000000000000000000e+00,-1.000000000000000000e+00,0.000000000000000000e+00,-3.000000000000000000e+00,-3.001098632812500000e-01,4.240722656250000000e-01,4.422607421875000000e-01,7.310180664062500000e-01
0.000000000000000000e+00,7.000000000000000000e+00,8.000000000000000000e+00,7.000000000000000000e+00,3.000000000000000000e+00,0.000000000000000000e+00,0.000000000000000000e+00,1.000000000000000000e+00,-3.001098632812500000e-01,4.240722656250000000e-01,4.422607421875000000e-01,7.310180664062500000e-01
0.000000000000000000e+00,-2.000000000000000000e+00,-2.000000000000000000e+00,5.000000000000000000e+00,-2.000000000000000000e+00,-3.000000000000000000e+00,-1.000000000000000000e+00,0.000000000000000000e+00,-3.001098632812500000e-01,4.240722656250000000e-01,4.422607421875000000e-01,7.310180664062500000e-01
