2.000000000000000000e+00,1.300000000000000000e+01,7.000000000000000000e+00,-5.000000000000000000e+00,-4.000000000000000000e+00,1.300000000000000000e+01,1.000000000000000000e+01,1.000000000000000000e+00,-1.490478515625000000e-01,4.531250000000000000e-01,-9.881591796875000000e-02,8.732910156250000000e-01
-9.000000000000000000e+00,-1.900000000000000000e+01,-5.000000000000000000e+00,2.000000000000000000e+00,3.000000000000000000e+00,-2.000000000000000000e+00,-2.000000000000000000e+00,-3.000000000000000000e+00,-1.490478515625000000e-01,4.531250000000000000e-01,-9.881591796875000000e-02,8.732910156250000000e-01
2.000000000000000000e+00,-3.000000000000000000e+00,1.000000000000000000e+00,3.000000000000000000e+00,3.000000000000000000e+00,5.000000000000000000e+00,5.000000000000000000e+00,2.000000000000000000e+00,-1.495361328125000000e-01,4.528808593750000000e-01,-9.942626953125000000e-02,8.732299804687500000e-01
0.000000000000000000e+00,8.000000000000000000e+00,-1.900000000000000000e+01,-4.000000000000000000e+00,-3.000000000000000000e+00,-9.000000000000000000e+00,-3.000000000000000000e+00,-1.000000000000000000e+00,-1.495361328125000000e-01,4.528808593750000000e-01,-9.942626953125000000e-02,8.732299804687500000e-01
-1.000000000000000000e+00,-1.600000000000000000e+01,1.500000000000000000e+01,-5.000000000000000000e+00,-1.000000000000000000e+00,-1.000000000000000000e+00,-1.000000000000000000e+00,1.000000000000000000e+00,-1.495361328125000000e-01,4.528808593750000000e-01,-9.942626953125000000e-02,8.732299804687500000e-01
2.000000000000000000e+00,2.600000000000000000e+01,1.000000000000000000e+01,3.000000000000000000e+00,5.000000000000000000e+00,3.000000000000000000e+00,-3.000000000000000000e+00,0.000000000000000000e+00,-1.495361328125000000e-01,4.528808593750000000e-01,-9.942626953125000000e-02,8.732299804687500000e-01
-4.000000000000000000e+00,-4.000000000000000000e+00,-5.000000000000000000e+00,-2.000000000000000000e+00,-3.000000000000000000e+00,-4.000000000000000000e+00,-6.000000000000000000e+00,-2.000000000000000000e+00,-1.494750976562500000e-01,4.528198242187500000e-01,-1.000976562500000000e-01,8.732299804687500000e-01
-2.000000000000000000e+00,1.000000000000000000e+00,-6.000000000000000000e+00,-7.000000000000000000e+00,-4.000000000000000000e+00,1.000000000000000000e+00,-2.000000000000000000e+00,-3.000000000000000000e+00,-1.494750976562500000e-01,4.528198242187500000e-01,-1.000976562500000000e-01,8.732299804687500000e-01
-3.000000000000000000e+00,-1.000000000000000000e+01,-8.000000000000000000e+00,-5.000000000000000000e+00,-2.000000000000000000e+00,-6.000000000000000000e+00,-5.000000000000000000e+00,-2.000000000000000000e+00,-1.494750976562500000e-01,4.528198242187500000e-01,-1.000976562500000000e-01,8.732299804687500000e-01
-1.000000000000000000e+00,-5.000000000000000000e+00,-8.000000000000000000e+00,-8.000000000000000000e+00,-7.000000000000000000e+00,1.000000000000000000e+00,2.000000000000000000e+00,-1.000000000000000000e+00,-1.494750976562500000e-01,4.528198242187500000e-01,-1.000976562500000000e-01,8.732299804687500000e-01
2.000000000000000000e+00,-6.000000000000000000e+00,6.000000000000000000e+00,3.000000000000000000e+00,3.000000000000000000e+00,-1.000000000000000000e+00,-3.000000000000000000e+00,0.000000000000000000e+00,-1.495971679687500000e-01,4.526977539062500000e-01,-1.007690429687500000e-01,8.731689453125000000e-01
0.000000000000000000e+00,6.000000000000000000e+00,1.000000000000000000e+00,-4.000000000000000000e+00,2.000000000000000000e+00,3.000000000000000000e+00,0.000000000000000000e+00,0.000000000000000000e+00,-1.495971679687500000e-01,4.526977539062500000e-01,-1.007690429687500000e-01,8.731689453125000000e-01
-1.000000000000000000e+00,2.000000000000000000e+00,5.000000000000000000e+00,1.000000000000000000e+01,-4.000000000000000000e+00,-3.000000000000000000e+00,-5.000000000000000000e+00,-5.000000000000000000e+00,-1.495971679687500000e-01,4.526977539062500000e-01,-1.007690429687500000e-01,8.731689453125000000e-01
-3.000000000000000000e+00,-1.300000000000000000e+01,-5.000000000000000000e+00,-1.000000000000000000e+00,0.000000000000000000e+00,-3.000000000000000000e+00,-2.000000000000000000e+00,0.000000000000000000e+00,-1.495971679687500000e-01,4.526977539062500000e-01,-1.007690429687500000e-01,8.731689453125000000e-01
-2.000000000000000000e+00,3.000000000000000000e+00,-1.200000000000000000e+01,-6.000000000000000000e+00,-8.000000000000000000e+00,-4.000000000000000000e+00,-1.000000000000000000e+00,0.000000000000000000e+00,-1.494140625000000000e-01,4.524536132812500000e-01,-1.013793945312500000e-01,8.732910156250000000e-01
0.000000000000000000e+00,5.000000000000000000e+00,6.000000000000000000e+00,8.000000000000000000e+00,2.000000000000000000e+00,-1.000000000000000000e+00,-1.000000000000000000e+00,0.000000000000000000e+00,-1.494140625000000000e-01,4.524536132812500000e-01,-1.013793945312500000e-01,8.732910156250000000e-01
-3.000000000000000000e+00,-2.000000000000000000e+00,-4.000000000000000000e+00,-1.000000000000000000e+01,-7.000000000000000000e+00,-1.000000000000000000e+00,-2.000000000000000000e+00,1.000000000000000000e+00,-1.494140625000000000e-01,4.524536132812500000e-01,-1.013793945312500000e-01,8.732910156250000000e-01
0.000000000000000000e+00,6.000000000000000000e+00,-1.000000000000000000e+00,-2.000000000000000000e+00,-2.000000000000000000e+00,-2.000000000000000000e+00,1.000000000000000000e+00,-1.000000000000000000e+00,-1.494140625000000000e-01,4.524536132812500000e-01,-1.013793945312500000e-01,8.732910156250000000e-01
-2.000000000000000000e+00,-2.000000000000000000e+01,-1.000000000000000000e+01,2.000000000000000000e+00,3.000000000000000000e+00,0.000000000000000000e+00,-1.000000000000000000e+00,0.000000000000000000e+00,-1.498413085937500000e-01,4.523315429687500000e-01,-1.016845703125000000e-01,8.732299804687500000e-01
-5.000000000000000000e+00,-1.300000000000000000e+01,-8.000000000000000000e+00,-2.000000000000000000e+00,-4.000000000000000000e+00,-7.000000000000000000e+00,-6.000000000000000000e+00,-2.000000000000000000e+00,-1.498413085937500000e-01,4.523315429687500000e-01,-1.016845703125000000e-01,8.732299804687500000e-01
7.000000000000000000e+00,2.500000000000000000e+01,3.000000000000000000e+01,2.000000000000000000e+00,4.000000000000000000e+00,-4.000000000000000000e+00,0.000000000000000000e+00,-1.000000000000000000e+00,-1.498413085937500000e-01,4.523315429687500000e-01,-1.016845703125000000e-01,8.732299804687500000e-01
-3.000000000000000000e+00,-1.000000000000000000e+01,-1.000000000000000000e+01,-1.000000000000000000e+00,1.000000000000000000e+00,1.000000000000000000e+01,5.000000000000000000e+00,0.000000000000000000e+00,-1.498413085937500000e-01,4.523315429687500000e-01,-1.016845703125000000e-01,8.732299804687500000e-01
-4.000000000000000000e+00,5.000000000000000000e+00,7.000000000000000000e+00,-2.000000000000000000e+00,-1.000000000000000000e+00,-3.000000000000000000e+00,3.000000000000000000e+00,-3.000000000000000000e+00,-1.499023437500000000e-01,4.522705078125000000e-01,-1.016845703125000000e-01,8.732299804687500000e-01
3.000000000000000000e+00,8.000000000000000000e+00,1.500000000000000000e+01,-1.000000000000000000e+00,-2.000000000000000000e+00,1.000000000000000000e+00,5.000000000000000000e+00,3.000000000000000000e+00,-1.499023437500000000e-01,4.522705078125000000e-01,-1.016845703125000000e-01,8.732299804687500000e-01
1.000000000000000000e+00,-7.000000000000000000e+00,-2.400000000000000000e+01,3.000000000000000000e+00,1.000000000000000000e+00,-6.000000000000000000e+00,-5.000000000000000000e+00,-4.000000000000000000e+00,-1.499023437500000000e-01,4.522705078125000000e-01,-1.016845703125000000e-01,8.732299804687500000e-01
-1.000000000000000000e+00,-5.000000000000000000e+00,5.000000000000000000e+00,-1.000000000000000000e+00,-1.000000000000000000e+00,-2.000000000000000000e+00,-3.000000000000000000e+00,0.000000000000000000e+00,-1.499023437500000000e-01,4.522705078125000000e-01,-1.016845703125000000e-01,8.732299804687500000e-01
-3.000000000000000000e+00,-2.000000000000000000e+01,-1.000000000000000000e+01,-3.000000000000000000e+00,0.000000000000000000e+00,3.000000000000000000e+00,-2.000000000000000000e+00,0.000000000000000000e+00,-1.500244140625000000e-01,4.525756835937500000e-01,-1.016235351562500000e-01,8.731079101562500000e-01
1.000000000000000000e+00,5.200000000000000000e+01,1.100000000000000000e+01,5.000000000000000000e+00,1.000000000000000000e+00,-1.000000000000000000e+00,-1.000000000000000000e+00,1.000000000000000000e+00,-1.500244140625000000e-01,4.525756835937500000e-01,-1.016235351562500000e-01,8.731079101562500000e-01
0.000000000000000000e+00,-1.600000000000000000e+01,-5.000000000000000000e+00,-4.000000000000000000e+00,-1.000000000000000000e+00,3.000000000000000000e+00,0.000000000000000000e+00,-1.000000000000000000e+00,-1.500244140625000000e-01,4.525756835937500000e-01,-1.016235351562500000e-01,8.731079101562500000e-01
-2.000000000000000000e+00,-1.100000000000000000e+01,-2.000000000000000000e+01,-5.000000000000000000e+00,-4.000000000000000000e+00,-4.000000000000000000e+00,-3.000000000000000000e+00,-3.000000000000000000e+00,-1.500244140625000000e-01,4.525756835937500000e-01,-1.016235351562500000e-01,8.731079101562500000e-01
3.000000000000000000e+00,2.000000000000000000e+01,2.100000000000000000e+01,5.000000000000000000e+00,-1.000000000000000000e+00,-1.000000000000000000e+00,-1.000000000000000000e+00,0.000000000000000000e+00,-1.498413085937500000e-01,4.530029296875000000e-01,-1.016235351562500000e-01,8.728637695312500000e-01
-3.000000000000000000e+00,-2.900000000000000000e+01,-2.800000000000000000e+01,-1.000000000000000000e+00,8.000000000000000000e+00,-2.000000000000000000e+00,1.000000000000000000e+00,-2.000000000000000000e+00,-1.498413085937500000e-01,4.530029296875000000e-01,-1.016235351562500000e-01,8.728637695312500000e-01
-5.000000000000000000e+00,1.600000000000000000e+01,1.500000000000000000e+01,1.000000000000000000e+00,-1.000000000000000000e+00,2.000000000000000000e+00,2.000000000000000000e+00,-3.000000000000000000e+00,-1.498413085937500000e-01,4.530029296875000000e-01,-1.016235351562500000e-01,8.728637695312500000e-01
0.000000000000000000e+00,-2.000000000000000000e+00,7.000000000000000000e+00,0.000000000000000000e+00,-5.000000000000000000e+00,-5.000000000000000000e+00,-2.000000000000000000e+00,-1.000000000000000000e+00,-1.498413085937500000e-01,4.530029296875000000e-01,-1.016235351562500000e-01,8.728637695312500000e-01
3.000000000000000000e+00,2.000000000000000000e+00,-1.000000000000000000e+00,0.000000000000000000e+00,-1.000000000000000000e+00,-2.000000000000000000e+00,-3.000000000000000000e+00,1.000000000000000000e+00,-1.491699218750000000e-01,4.536132812500000000e-01,-1.016845703125000000e-01,8.726806640625000000e-01
-2.000000000000000000e+00,-3.000000000000000000e+00,-8.000000000000000000e+00,-1.000000000000000000e+01,-9.000000000000000000e+00,-5.000000000000000000e+00,-3.000000000000000000e+00,-2.000000000000000000e+00,-1.491699218750000000e-01,4.536132812500000000e-01,-1.016845703125000000e-01,8.726806640625000000e-01
-1.000000000000000000e+00,-5.000000000000000000e+00,-3.000000000000000000e+00,7.000000000000000000e+00,-1.000000000000000000e+00,0.000000000000000000e+00,-3.000000000000000000e+00,-1.000000000000000000e+00,-1.491699218750000000e-01,4.536132812500000000e-01,-1.016845703125000000e-01,8.726806640625000000e-01
-5.000000000000000000e+00,-1.100000000000000000e+01,4.000000000000000000e+00,-1.000000000000000000e+00,1.000000000000000000e+00,6.000000000000000000e+00,4.000000000000000000e+00,-2.000000000000000000e+00,-1.491699218750000000e-01,4.536132812500000000e-01,-1.016845703125000000e-01,8.726806640625000000e-01
4.000000000000000000e+00,8.000000000000000000e+00,0.000000000000000000e+00,0.000000000000000000e+00,-1.000000000000000000e+00,-2.000000000000000000e+00,-1.000000000000000000e+00,2.000000000000000000e+00,-1.491088867187500000e-01,4.537963867187500000e-01,-1.013183593750000000e-01,8.726196289062500000e-01
-1.000000000000000000e+00,-4.000000000000000000e+00,1.000000000000000000e+00,-4.000000000000000000e+00,-4.000000000000000000e+00,-1.000000000000000000e+00,0.000000000000000000e+00,-3.000000000000000000e+00,-1.491088867187500000e-01,4.537963867187500000e-01,-1.013183593750000000e-01,8.726196289062500000e-01
-1.000000000000000000e+00,-1.000000000000000000e+01,-2.400000000000000000e+01,-1.500000000000000000e+01,-3.000000000000000000e+00,-4.000000000000000000e+00,-3.000000000000000000e+00,-2.000000000000000000e+00,-1.491088867187500000e-01,4.537963867187500000e-01,-1.013183593750000000e-01,8.726196289062500000e-01
-1.000000000000000000e+00,9.000000000000000000e+00,4.000000000000000000e+00,1.000000000000000000e+00,-1.000000000000000000e+00,-7.000000000000000000e+00,-2.000000000000000000e+00,0.000000000000000000e+00,-1.491088867187500000e-01,4.537963867187500000e-01,-1.013183593750000000e-01,8.726196289062500000e-01
-5.000000000000000000e+00,-1.200000000000000000e+01,-1.700000000000000000e+01,0.000000000000000000e+00,-2.000000000000000000e+00,3.000000000000000000e+00,2.000000000000000000e+00,0.000000000000000000e+00,-1.488037109375000000e-01,4.539794921875000000e-01,-1.005859375000000000e-01,8.726806640625000000e-01
0.000000000000000000e+00,1.100000000000000000e+01,1.000000000000000000e+01,5.000000000000000000e+00,2.000000000000000000e+00,4.000000000000000000e+00,-1.000000000000000000e+00,0.000000000000000000e+00,-1.488037109375000000e-01,4.539794921875000000e-01,-1.005859375000000000e-01,8.726806640625000000e-01
1.000000000000000000e+00,-3.000000000000000000e+00,7.000000000000000000e+00,2.000000000000000000e+00,5.000000000000000000e+00,0.000000000000000000e+00,3.000000000000000000e+00,-1.000000000000000000e+00,-1.488037109375000000e-01,4.539794921875000000e-01,-1.005859375000000000e-01,8.726806640625000000e-01
-3.000000000000000000e+00,-4.000000000000000000e+00,6.000000000000000000e+00,2.000000000000000000e+00,1.000000000000000000e+00,-2.000000000000000000e+00,-3.000000000000000000e+00,-4.000000000000000000e+00,-1.488037109375000000e-01,4.539794921875000000e-01,-1.005859375000000000e-01,8.726806640625000000e-01
-1.000000000000000000e+00,1.000000000000000000e+00,-1.400000000000000000e+01,-8.000000000000000000e+00,-2.000000000000000000e+00,1.000000000000000000e+00,0.000000000000000000e+00,-3.000000000000000000e+00,-1.486206054687500000e-01,4.541625976562500000e-01,-1.004028320312500000e-01,8.726196289062500000e-01
-3.000000000000000000e+00,-1.700000000000000000e+01,7.000000000000000000e+00,3.000000000000000000e+00,-2.000000000000000000e+00,-2.000000000000000000e+00,-2.000000000000000000e+00,0.000000000000000000e+00,-1.486206054687500000e-01,4.541625976562500000e-01,-1.004028320312500000e-01,8.726196289062500000e-01
-3.000000000000000000e+00,1.000000000000000000e+00,-1.500000000000000000e+01,-1.000000000000000000e+01,-5.000000000000000000e+00,-1.000000000000000000e+00,-1.000000000000000000e+00,-2.000000000000000000e+00,-1.486206054687500000e-01,4.541625976562500000e-01,-1.004028320312500000e-01,8.726196289062500000e-01
-4.000000000000000000e+00,0.000000000000000000e+00,-5.000000000000000000e+00,-9.000000000000000000e+00,-1.500000000000000000e+01,-4.000000000000000000e+00,-6.000000000000000000e+00,-2.000000000000000000e+00,-1.486206054687500000e-01,4.541625976562500000e-01,-1.004028320312500000e-01,8.726196289062500000e-01
-2.000000000000000000e+00,-1.300000000000000000e+01,1.500000000000000000e+01,2.300000000000000000e+01,3.100000000000000000e+01,5.000000000000000000e+00,2.000000000000000000e+00,1.000000000000000000e+00,-1.482543945312500000e-01,4.540405273437500000e-01,-9.997558593750000000e-02,8.728027343750000000e-01
4.000000000000000000e+00,-8.000000000000000000e+00,2.000000000000000000e+00,0.000000000000000000e+00,-1.000000000000000000e+00,-2.000000000000000000e+00,2.000000000000000000e+00,-1.000000000000000000e+00,-1.482543945312500000e-01,4.540405273437500000e-01,-9.997558593750000000e-02,8.728027343750000000e-01
0.000000000000000000e+00,2.500000000000000000e+01,-1.300000000000000000e+01,-4.000000000000000000e+00,-3.000000000000000000e+00,-3.000000000000000000e+00,0.000000000000000000e+00,2.000000000000000000e+00,-1.482543945312500000e-01,4.540405273437500000e-01,-9.997558593750000000e-02,8.728027343750000000e-01
0.000000000000000000e+00,-6.000000000000000000e+00,-1.000000000000000000e+00,-7.000000000000000000e+00,0.000000000000000000e+00,-3.000000000000000000e+00,-1.000000000000000000e+00,-1.000000000000000000e+00,-1.482543945312500000e-01,4.540405273437500000e-01,-9.997558593750000000e-02,8.728027343750000000e-01
0.000000000000000000e+00,0.000000000000000000e+00,-3.000000000000000000e+00,-6.000000000000000000e+00,-1.300000000000000000e+01,-5.000000000000000000e+00,-4.000000000000000000e+00,0.000000000000000000e+00,-1.479492187500000000e-01,4.537353515625000000e-01,-9.893798828125000000e-02,8.731079101562500000e-01
-2.000000000000000000e+00,9.000000000000000000e+00,8.000000000000000000e+00,3.000000000000000000e+00,2.000000000000000000e+00,6.000000000000000000e+00,4.000000000000000000e+00,1.000000000000000000e+00,-1.479492187500000000e-01,4.537353515625000000e-01,-9.893798828125000000e-02,8.731079101562500000e-01
0.000000000000000000e+00,-1.900000000000000000e+01,-6.000000000000000000e+00,-5.000000000000000000e+00,-1.000000000000000000e+00,-1.000000000000000000e+00,-2.000000000000000000e+00,0.000000000000000000e+00,-1.479492187500000000e-01,4.537353515625000000e-01,-9.893798828125000000e-02,8.731079101562500000e-01
1.000000000000000000e+00,0.000000000000000000e+00,-4.000000000000000000e+00,2.000000000000000000e+00,-1.000000000000000000e+00,-3.000000000000000000e+00,-6.000000000000000000e+00,-2.000000000000000000e+00,-1.479492187500000000e-01,4.537353515625000000e-01,-9.893798828125000000e-02,8.731079101562500000e-01
-2.000000000000000000e+00,5.000000000000000000e+00,-4.000000000000000000e+00,-5.000000000000000000e+00,-8.000000000000000000e+00,-7.000000000000000000e+00,-4.000000000000000000e+00,-2.000000000000000000e+00,-1.479492187500000000e-01,4.532470703125000000e-01,-9.863281250000000000e-02,8.734130859375000000e-01
-3.000000000000000000e+00,-2.000000000000000000e+00,1.000000000000000000e+00,3.000000000000000000e+00,4.000000000000000000e+00,1.200000000000000000e+01,8.000000000000000000e+00,-1.000000000000000000e+00,-1.479492187500000000e-01,4.532470703125000000e-01,-9.863281250000000000e-02,8.734130859375000000e-01
-3.000000000000000000e+00,-1.200000000000000000e+01,-7.000000000000000000e+00,-3.000000000000000000e+00,-5.000000000000000000e+00,-2.000000000000000000e+00,-6.000000000000000000e+00,-1.000000000000000000e+00,-1.479492187500000000e-01,4.532470703125000000e-01,-9.863281250000000000e-02,8.734130859375000000e-01
0.000000000000000000e+00,0.000000000000000000e+00,5.000000000000000000e+00,-5.000000000000000000e+00,0.000000000000000000e+00,-3.000000000000000000e+00,-4.000000000000000000e+00,-1.000000000000000000e+00,-1.479492187500000000e-01,4.532470703125000000e-01,-9.863281250000000000e-02,8.734130859375000000e-01
4.000000000000000000e+00,1.400000000000000000e+01,1.500000000000000000e+01,3.000000000000000000e+00,1.000000000000000000e+00,1.000000000000000000e+00,-3.000000000000000000e+00,1.000000000000000000e+00,-1.479492187500000000e-01,4.527587890625000000e-01,-9.832763671875000000e-02,8.737182617187500000e-01
-3.000000000000000000e+00,5.000000000000000000e+00,-7.000000000000000000e+00,-3.000000000000000000e+00,-2.000000000000000000e+00,-4.000000000000000000e+00,-4.000000000000000000e+00,-4.000000000000000000e+00,-1.479492187500000000e-01,4.527587890625000000e-01,-9.832763671875000000e-02,8.737182617187500000e-01
-2.000000000000000000e+00,-1.000000000000000000e+01,6.000000000000000000e+00,5.000000000000000000e+00,2.000000000000000000e+00,1.000000000000000000e+00,1.000000000000000000e+00,-2.000000000000000000e+00,-1.479492187500000000e-01,4.527587890625000000e-01,-9.832763671875000000e-02,8.737182617187500000e-01
1.000000000000000000e+00,9.000000000000000000e+00,1.000000000000000000e+00,4.000000000000000000e+00,3.000000000000000000e+00,-1.000000000000000000e+00,0.000000000000000000e+00,3.000000000000000000e+00,-1.479492187500000000e-01,4.527587890625000000e-01,-9.832763671875000000e-02,8.737182617187500000e-01
-6.000000000000000000e+00,-1.300000000000000000e+01,-2.200000000000000000e+01,-4.000000000000000000e+00,-2.000000000000000000e+00,-8.000000000000000000e+00,-5.000000000000000000e+00,-2.000000000000000000e+00,-1.478271484375000000e-01,4.522705078125000000e-01,-9.802246093750000000e-02,8.740234375000000000e-01
3.000000000000000000e+00,1.400000000000000000e+01,1.000000000000000000e+00,-9.000000000000000000e+00,-7.000000000000000000e+00,8.000000000000000000e+00,7.000000000000000000e+00,2.000000000000000000e+00,-1.478271484375000000e-01,4.522705078125000000e-01,-9.802246093750000000e-02,8.740234375000000000e-01
-3.000000000000000000e+00,8.000000000000000000e+00,1.000000000000000000e+01,3.000000000000000000e+00,-2.000000000000000000e+00,-1.000000000000000000e+00,-1.000000000000000000e+00,-3.000000000000000000e+00,-1.478271484375000000e-01,4.522705078125000000e-01,-9.802246093750000000e-02,8.740234375000000000e-01
-1.000000000000000000e+00,-5.000000000000000000e+00,-3.000000000000000000e+00,2.000000000000000000e+00,9.000000000000000000e+00,1.000000000000000000e+00,-2.000000000000000000e+00,-1.000000000000000000e+00,-1.478271484375000000e-01,4.522705078125000000e-01,-9.802246093750000000e-02,8.740234375000000000e-01
-2.000000000000000000e+00,-3.000000000000000000e+00,-4.000000000000000000e+00,-7.000000000000000000e+00,-1.300000000000000000e+01,-6.000000000000000000e+00,-2.000000000000000000e+00,-1.000000000000000000e+00,-1.470336914062500000e-01,4.520263671875000000e-01,-9.771728515625000000e-02,8.743286132812500000e-01
-1.000000000000000000e+00,-7.000000000000000000e+00,-7.000000000000000000e+00,-8.000000000000000000e+00,4.000000000000000000e+00,2.000000000000000000e+00,0.000000000000000000e+00,2.000000000000000000e+00,-1.470336914062500000e-01,4.520263671875000000e-01,-9.771728515625000000e-02,8.743286132812500000e-01
1.000000000000000000e+00,1.000000000000000000e+00,5.000000000000000000e+00,6.000000000000000000e+00,2.000000000000000000e+00,1.000000000000000000e+00,1.000000000000000000e+00,0.000000000000000000e+00,-1.470336914062500000e-01,4.520263671875000000e-01,-9.771728515625000000e-02,8.743286132812500000e-01
1.000000000000000000e+00,-1.100000000000000000e+01,-2.000000000000000000e+00,1.000000000000000000e+00,0.000000000000000000e+00,-2.000000000000000000e+00,-1.000000000000000000e+00,1.000000000000000000e+00,-1.470336914062500000e-01,4.520263671875000000e-01,-9.771728515625000000e-02,8.743286132812500000e-01
0.000000000000000000e+00,1.100000000000000000e+01,-1.000000000000000000e+00,1.000000000000000000e+00,-3.000000000000000000e+00,1.000000000000000000e+00,2.000000000000000000e+00,-3.000000000000000000e+00,-1.463623046875000000e-01,4.518432617187500000e-01,-9.716796875000000000e-02,8.745727539062500000e-01
-4.000000000000000000e+00,-1.100000000000000000e+01,-8.000000000000000000e+00,1.000000000000000000e+00,-2.000000000000000000e+00,-5.000000000000000000e+00,-7.000000000000000000e+00,-4.000000000000000000e+00,-1.463623046875000000e-01,4.518432617187500000e-01,-9.716796875000000000e-02,8.745727539062500000e-01
0.000000000000000000e+00,-1.000000000000000000e+00,3.000000000000000000e+00,-1.000000000000000000e+00,2.000000000000000000e+00,-2.000000000000000000e+00,-1.000000000000000000e+00,1.000000000000000000e+00,-1.463623046875000000e-01,4.518432617187500000e-01,-9.716796875000000000e-02,8.745727539062500000e-01
0.000000000000000000e+00,-1.000000000000000000e+00,-3.000000000000000000e+00,-1.000000000000000000e+00,0.000000000000000000e+00,-1.000000000000000000e+00,1.000000000000000000e+00,2.000000000000000000e+00,-1.463623046875000000e-01,4.518432617187500000e-01,-9.716796875000000000e-02,8.745727539062500000e-01
-1.000000000000000000e+00,6.000000000000000000e+00,1.000000000000000000e+00,-2.000000000000000000e+00,-2.000000000000000000e+00,0.000000000000000000e+00,2.000000000000000000e+00,3.000000000000000000e+00,-1.464843750000000000e-01,4.516601562500000000e-01,-9.655761718750000000e-02,8.746948242187500000e-01
-1.000000000000000000e+00,0.000000000000000000e+00,2.000000000000000000e+00,-3.000000000000000000e+00,-3.000000000000000000e+00,-6.000000000000000000e+00,-4.000000000000000000e+00,-5.000000000000000000e+00,-1.464843750000000000e-01,4.516601562500000000e-01,-9.655761718750000000e-02,8.746948242187500000e-01
5.000000000000000000e+00,-3.000000000000000000e+00,4.000000000000000000e+00,2.000000000000000000e+00,0.000000000000000000e+00,1.000000000000000000e+00,-1.000000000000000000e+00,2.000000000000000000e+00,-1.464843750000000000e-01,4.516601562500000000e-01,-9.655761718750000000e-02,8.746948242187500000e-01
-5.000000000000000000e+00,-2.000000000000000000e+00,-5.000000000000000000e+00,-3.000000000000000000e+00,-1.700000000000000000e+01,-5.000000000000000000e+00,-1.000000000000000000e+00,-3.000000000000000000e+00,-1.464843750000000000e-01,4.516601562500000000e-01,-9.655761718750000000e-02,8.746948242187500000e-01
0.000000000000000000e+00,-1.000000000000000000e+00,-9.000000000000000000e+00,-1.000000000000000000e+00,1.200000000000000000e+01,4.000000000000000000e+00,0.000000000000000000e+00,0.000000000000000000e+00,-1.468505859375000000e-01,4.515380859375000000e-01,-9.625244140625000000e-02,8.747558593750000000e-01
0.000000000000000000e+00,-2.000000000000000000e+00,7.000000000000000000e+00,-4.000000000000000000e+00,-2.000000000000000000e+00,2.000000000000000000e+00,3.000000000000000000e+00,3.000000000000000000e+00,-1.468505859375000000e-01,4.515380859375000000e-01,-9.625244140625000000e-02,8.747558593750000000e-01
2.000000000000000000e+00,4.000000000000000000e+00,9.000000000000000000e+00,1.700000000000000000e+01,1.200000000000000000e+01,-3.000000000000000000e+00,-2.000000000000000000e+00,-1.000000000000000000e+00,-1.468505859375000000e-01,4.515380859375000000e-01,-9.625244140625000000e-02,8.747558593750000000e-01
-5.000000000000000000e+00,-1.700000000000000000e+01,-1.400000000000000000e+01,-8.000000000000000000e+00,-1.000000000000000000e+00,3.000000000000000000e+00,0.000000000000000000e+00,1.000000000000000000e+00,-1.468505859375000000e-01,4.515380859375000000e-01,-9.625244140625000000e-02,8.747558593750000000e-01
2.000000000000000000e+00,9.000000000000000000e+00,1.300000000000000000e+01,5.000000000000000000e+00,-1.300000000000000000e+01,-1.000000000000000000e+00,1.000000000000000000e+00,-2.000000000000000000e+00,-1.464843750000000000e-01,4.512329101562500000e-01,-9.661865234375000000e-02,8.749389648437500000e-01
-4.000000000000000000e+00,-7.000000000000000000e+00,-9.000000000000000000e+00,-9.000000000000000000e+00,-1.100000000000000000e+01,-8.000000000000000000e+00,-7.000000000000000000e+00,-5.000000000000000000e+00,-1.464843750000000000e-01,4.512329101562500000e-01,-9.661865234375000000e-02,8.749389648437500000e-01
1.000000000000000000e+00,1.300000000000000000e+01,6.000000000000000000e+00,7.000000000000000000e+00,1.300000000000000000e+01,6.000000000000000000e+00,2.000000000000000000e+00,-1.000000000000000000e+00,-1.464843750000000000e-01,4.512329101562500000e-01,-9.661865234375000000e-02,8.749389648437500000e-01
2.000000000000000000e+00,5.000000000000000000e+00,-1.000000000000000000e+00,-1.000000000000000000e+00,-6.000000000000000000e+00,-2.000000000000000000e+00,0.000000000000000000e+00,-2.000000000000000000e+00,-1.464843750000000000e-01,4.512329101562500000e-01,-9.661865234375000000e-02,8.749389648437500000e-01
-7.000000000000000000e+00,-3.300000000000000000e+01,-7.000000000000000000e+00,-6.000000000000000000e+00,-4.000000000000000000e+00,-2.000000000000000000e+00,-3.000000000000000000e+00,-3.000000000000000000e+00,-1.461791992187500000e-01,4.508666992187500000e-01,-9.692382812500000000e-02,8.751831054687500000e-01
3.000000000000000000e+00,2.200000000000000000e+01,-1.000000000000000000e+01,-1.000000000000000000e+00,4.000000000000000000e+00,1.000000000000000000e+00,-1.000000000000000000e+00,3.000000000000000000e+00,-1.461791992187500000e-01,4.508666992187500000e-01,-9.692382812500000000e-02,8.751831054687500000e-01
-8.000000000000000000e+00,-1.600000000000000000e+01,-4.000000000000000000e+00,-1.000000000000000000e+00,-1.000000000000000000e+01,-6.000000000000000000e+00,-6.000000000000000000e+00,-6.000000000000000000e+00,-1.461791992187500000e-01,4.508666992187500000e-01,-9.692382812500000000e-02,8.751831054687500000e-01
0.000000000000000000e+00,1.700000000000000000e+01,2.700000000000000000e+01,0.000000000000000000e+00,0.000000000000000000e+00,-5.000000000000000000e+00,-3.000000000000000000e+00,-3.000000000000000000e+00,-1.461791992187500000e-01,4.508666992187500000e-01,-9.692382812500000000e-02,8.751831054687500000e-01
7.000000000000000000e+00,-3.000000000000000000e+00,1.000000000000000000e+00,0.000000000000000000e+00,4.000000000000000000e+00,8.000000000000000000e+00,7.000000000000000000e+00,4.000000000000000000e+00,-1.463012695312500000e-01,4.505004882812500000e-01,-9.710693359375000000e-02,8.753051757812500000e-01
3.000000000000000000e+00,1.000000000000000000e+00,-1.000000000000000000e+00,1.000000000000000000e+01,8.000000000000000000e+00,-5.000000000000000000e+00,-5.000000000000000000e+00,-3.000000000000000000e+00,-1.463012695312500000e-01,4.505004882812500000e-01,-9.710693359375000000e-02,8.753051757812500000e-01
-3.000000000000000000e+00,-1.800000000000000000e+01,-1.100000000000000000e+01,-1.000000000000000000e+01,-9.000000000000000000e+00,-2.000000000000000000e+00,0.000000000000000000e+00,-1.000000000000000000e+00,-1.463012695312500000e-01,4.505004882812500000e-01,-9.710693359375000000e-02,8.753051757812500000e-01
-2.000000000000000000e+00,1.900000000000000000e+01,-4.000000000000000000e+00,-1.000000000000000000e+00,2.000000000000000000e+00,-6.000000000000000000e+00,-4.000000000000000000e+00,-5.000000000000000000e+00,-1.463012695312500000e-01,4.505004882812500000e-01,-9.710693359375000000e-02,8.753051757812500000e-01
-2.000000000000000000e+00,4.000000000000000000e+00,9.000000000000000000e+00,0.000000000000000000e+00,3.000000000000000000e+00,6.000000000000000000e+00,5.000000000000000000e+00,-2.000000000000000000e+00,-1.469726562500000000e-01,4.501342773437500000e-01,-9.704589843750000000e-02,8.753662109375000000e-01
-5.000000000000000000e+00,-1.500000000000000000e+01,-4.000000000000000000e+00,5.000000000000000000e+00,-5.000000000000000000e+00,-1.000000000000000000e+00,1.000000000000000000e+00,-1.000000000000000000e+00,-1.469726562500000000e-01,4.501342773437500000e-01,-9.704589843750000000e-02,8.753662109375000000e-01
1.000000000000000000e+00,1.300000000000000000e+01,2.100000000000000000e+01,-4.000000000000000000e+00,-1.000000000000000000e+00,1.000000000000000000e+00,2.000000000000000000e+00,2.000000000000000000e+00,-1.475830078125000000e-01,4.500122070312500000e-01,-9.704589843750000000e-02,8.753662109375000000e-01
-3.000000000000000000e+00,-1.000000000000000000e+01,-1.900000000000000000e+01,7.000000000000000000e+00,7.000000000000000000e+00,2.000000000000000000e+00,-1.000000000000000000e+00,1.000000000000000000e+00,-1.475830078125000000e-01,4.500122070312500000e-01,-9.704589843750000000e-02,8.753662109375000000e-01
-4.000000000000000000e+00,1.000000000000000000e+00,-3.000000000000000000e+00,-2.700000000000000000e+01,-1.100000000000000000e+01,-8.000000000000000000e+00,-6.000000000000000000e+00,-2.000000000000000000e+00,-1.475830078125000000e-01,4.500122070312500000e-01,-9.704589843750000000e-02,8.753662109375000000e-01
-4.000000000000000000e+00,-1.000000000000000000e+01,0.000000000000000000e+00,7.000000000000000000e+00,-2.200000000000000000e+01,-3.000000000000000000e+00,0.000000000000000000e+00,0.000000000000000000e+00,-1.475830078125000000e-01,4.500122070312500000e-01,-9.704589843750000000e-02,8.753662109375000000e-01
-1.000000000000000000e+00,-1.400000000000000000e+01,-1.400000000000000000e+01,1.200000000000000000e+01,2.800000000000000000e+01,3.000000000000000000e+00,-1.000000000000000000e+00,-2.000000000000000000e+00,-1.475830078125000000e-01,4.500122070312500000e-01,-9.704589843750000000e-02,8.753662109375000000e-01
7.000000000000000000e+00,1.800000000000000000e+01,2.600000000000000000e+01,-2.000000000000000000e+00,-5.000000000000000000e+00,-1.000000000000000000e+00,0.000000000000000000e+00,0.000000000000000000e+00,-1.475830078125000000e-01,4.500122070312500000e-01,-9.704589843750000000e-02,8.753662109375000000e-01
-5.000000000000000000e+00,1.100000000000000000e+01,1.300000000000000000e+01,1.400000000000000000e+01,4.000000000000000000e+00,0.000000000000000000e+00,-2.000000000000000000e+00,-3.000000000000000000e+00,-1.469116210937500000e-01,4.497070312500000000e-01,-9.716796875000000000e-02,8.756103515625000000e-01
-3.000000000000000000e+00,-3.500000000000000000e+01,-7.000000000000000000e+00,-2.100000000000000000e+01,-1.000000000000000000e+01,-3.000000000000000000e+00,-4.000000000000000000e+00,-2.000000000000000000e+00,-1.469116210937500000e-01,4.497070312500000000e-01,-9.716796875000000000e-02,8.756103515625000000e-01
1.000000000000000000e+00,4.200000000000000000e+01,0.000000000000000000e+00,-9.000000000000000000e+00,-1.400000000000000000e+01,-5.000000000000000000e+00,0.000000000000000000e+00,1.000000000000000000e+00,-1.469116210937500000e-01,4.497070312500000000e-01,-9.716796875000000000e-02,8.756103515625000000e-01
1.000000000000000000e+00,-4.000000000000000000e+00,-1.000000000000000000e+01,0.000000000000000000e+00,2.000000000000000000e+00,2.000000000000000000e+00,0.000000000000000000e+00,2.000000000000000000e+00,-1.469116210937500000e-01,4.497070312500000000e-01,-9.716796875000000000e-02,8.756103515625000000e-01
-1.000000000000000000e+00,3.000000000000000000e+00,2.000000000000000000e+00,-4.000000000000000000e+00,-1.000000000000000000e+01,-4.000000000000000000e+00,-2.000000000000000000e+00,0.000000000000000000e+00,-1.467895507812500000e-01,4.496459960937500000e-01,-9.704589843750000000e-02,8.756713867187500000e-01
-3.000000000000000000e+00,-1.400000000000000000e+01,6.000000000000000000e+00,9.000000000000000000e+00,1.300000000000000000e+01,3.000000000000000000e+00,-1.000000000000000000e+00,-4.000000000000000000e+00,-1.467895507812500000e-01,4.496459960937500000e-01,-9.704589843750000000e-02,8.756713867187500000e-01
-2.000000000000000000e+00,-4.000000000000000000e+00,-8.000000000000000000e+00,-4.000000000000000000e+00,-8.000000000000000000e+00,-2.000000000000000000e+00,-3.000000000000000000e+00,-2.000000000000000000e+00,-1.467895507812500000e-01,4.496459960937500000e-01,-9.704589843750000000e-02,8.756713867187500000e-01
-4.000000000000000000e+00,-2.500000000000000000e+01,-8.000000000000000000e+00,-4.000000000000000000e+00,3.000000000000000000e+00,0.000000000000000000e+00,-1.000000000000000000e+00,-4.000000000000000000e+00,-1.467895507812500000e-01,4.496459960937500000e-01,-9.704589843750000000e-02,8.756713867187500000e-01
6.000000000000000000e+00,2.700000000000000000e+01,8.000000000000000000e+00,-1.000000000000000000e+00,-3.000000000000000000e+00,1.000000000000000000e+00,1.000000000000000000e+00,4.000000000000000000e+00,-1.476440429687500000e-01,4.495849609375000000e-01,-9.698486328125000000e-02,8.755493164062500000e-01
1.000000000000000000e+00,1.600000000000000000e+01,2.000000000000000000e+00,5.000000000000000000e+00,5.000000000000000000e+00,-4.000000000000000000e+00,-4.000000000000000000e+00,-1.000000000000000000e+00,-1.476440429687500000e-01,4.495849609375000000e-01,-9.698486328125000000e-02,8.755493164062500000e-01
0.000000000000000000e+00,-1.900000000000000000e+01,-1.500000000000000000e+01,-3.000000000000000000e+00,1.000000000000000000e+00,-1.000000000000000000e+00,2.000000000000000000e+00,1.000000000000000000e+00,-1.476440429687500000e-01,4.495849609375000000e-01,-9.698486328125000000e-02,8.755493164062500000e-01
-5.000000000000000000e+00,-1.400000000000000000e+01,-1.300000000000000000e+01,-1.300000000000000000e+01,-1.000000000000000000e+01,-2.000000000000000000e+00,-1.000000000000000000e+00,-3.000000000000000000e+00,-1.476440429687500000e-01,4.495849609375000000e-01,-9.698486328125000000e-02,8.755493164062500000e-01
0.000000000000000000e+00,-6.000000000000000000e+00,-5.000000000000000000e+00,1.000000000000000000e+01,4.000000000000000000e+00,-4.000000000000000000e+00,0.000000000000000000e+00,-1.000000000000000000e+00,-1.476440429687500000e-01,4.496459960937500000e-01,-9.716796875000000000e-02,8.755493164062500000e-01
0.000000000000000000e+00,1.300000000000000000e+01,7.000000000000000000e+00,1.000000000000000000e+00,0.000000000000000000e+00,-1.000000000000000000e+00,-2.000000000000000000e+00,0.000000000000000000e+00,-1.476440429687500000e-01,4.496459960937500000e-01,-9.716796875000000000e-02,8.755493164062500000e-01
-1.000000000000000000e+00,-5.000000000000000000e+00,-7.000000000000000000e+00,-1.000000000000000000e+01,-1.300000000000000000e+01,-3.000000000000000000e+00,-1.000000000000000000e+00,0.000000000000000000e+00,-1.476440429687500000e-01,4.496459960937500000e-01,-9.716796875000000000e-02,8.755493164062500000e-01
-2.000000000000000000e+00,-2.000000000000000000e+00,1.200000000000000000e+01,4.000000000000000000e+00,1.200000000000000000e+01,3.000000000000000000e+00,-2.000000000000000000e+00,-1.000000000000000000e+00,-1.476440429687500000e-01,4.496459960937500000e-01,-9.716796875000000000e-02,8.755493164062500000e-01
-1.000000000000000000e+00,-4.000000000000000000e+00,-8.000000000000000000e+00,-3.000000000000000000e+00,-1.000000000000000000e+00,-2.000000000000000000e+00,-3.000000000000000000e+00,-1.000000000000000000e+00,-1.472167968750000000e-01,4.499511718750000000e-01,-9.710693359375000000e-02,8.754272460937500000e-01
1.000000000000000000e+00,1.000000000000000000e+00,-3.000000000000000000e+00,7.000000000000000000e+00,1.800000000000000000e+01,4.000000000000000000e+00,3.000000000000000000e+00,1.000000000000000000e+00,-1.472167968750000000e-01,4.499511718750000000e-01,-9.710693359375000000e-02,8.754272460937500000e-01
-3.000000000000000000e+00,8.000000000000000000e+00,7.000000000000000000e+00,6.000000000000000000e+00,1.000000000000000000e+00,1.000000000000000000e+00,-1.000000000000000000e+00,-4.000000000000000000e+00,-1.464233398437500000e-01,4.502563476562500000e-01,-9.692382812500000000e-02,8.754272460937500000e-01
2.000000000000000000e+00,1.000000000000000000e+00,1.300000000000000000e+01,2.000000000000000000e+00,-3.000000000000000000e+00,0.000000000000000000e+00,0.000000000000000000e+00,0.000000000000000000e+00,-1.464233398437500000e-01,4.502563476562500000e-01,-9.692382812500000000e-02,8.754272460937500000e-01
-7.000000000000000000e+00,-2.000000000000000000e+01,-3.000000000000000000e+01,-6.000000000000000000e+00,-3.000000000000000000e+00,-3.000000000000000000e+00,-2.000000000000000000e+00,-5.000000000000000000e+00,-1.464233398437500000e-01,4.502563476562500000e-01,-9.692382812500000000e-02,8.754272460937500000e-01
-4.000000000000000000e+00,-1.500000000000000000e+01,-9.000000000000000000e+00,-1.300000000000000000e+01,-1.500000000000000000e+01,-5.000000000000000000e+00,-2.000000000000000000e+00,-2.000000000000000000e+00,-1.464233398437500000e-01,4.502563476562500000e-01,-9.692382812500000000e-02,8.754272460937500000e-01
-1.000000000000000000e+00,4.000000000000000000e+00,2.000000000000000000e+00,-4.000000000000000000e+00,-1.000000000000000000e+00,-2.000000000000000000e+00,-2.000000000000000000e+00,2.000000000000000000e+00,-1.467895507812500000e-01,4.501953125000000000e-01,-9.661865234375000000e-02,8.754272460937500000e-01
1.000000000000000000e+00,6.000000000000000000e+00,-9.000000000000000000e+00,1.400000000000000000e+01,4.000000000000000000e+00,3.000000000000000000e+00,3.000000000000000000e+00,3.000000000000000000e+00,-1.467895507812500000e-01,4.501953125000000000e-01,-9.661865234375000000e-02,8.754272460937500000e-01
0.000000000000000000e+00,6.000000000000000000e+00,1.100000000000000000e+01,-7.000000000000000000e+00,-9.000000000000000000e+00,-4.000000000000000000e+00,-3.000000000000000000e+00,0.000000000000000000e+00,-1.467895507812500000e-01,4.501953125000000000e-01,-9.661865234375000000e-02,8.754272460937500000e-01
-1.000000000000000000e+00,-2.000000000000000000e+00,3.000000000000000000e+00,8.000000000000000000e+00,1.100000000000000000e+01,0.000000000000000000e+00,-3.000000000000000000e+00,-1.000000000000000000e+00,-1.467895507812500000e-01,4.501953125000000000e-01,-9.661865234375000000e-02,8.754272460937500000e-01
-3.000000000000000000e+00,-2.000000000000000000e+00,1.000000000000000000e+00,-7.000000000000000000e+00,-5.000000000000000000e+00,-8.000000000000000000e+00,-2.000000000000000000e+00,-4.000000000000000000e+00,-1.475830078125000000e-01,4.501953125000000000e-01,-9.631347656250000000e-02,8.753051757812500000e-01
-2.000000000000000000e+00,-5.000000000000000000e+00,0.000000000000000000e+00,0.000000000000000000e+00,1.000000000000000000e+00,4.000000000000000000e+00,3.000000000000000000e+00,-2.000000000000000000e+00,-1.475830078125000000e-01,4.501953125000000000e-01,-9.631347656250000000e-02,8.753051757812500000e-01
0.000000000000000000e+00,-1.000000000000000000e+01,-8.000000000000000000e+00,-4.000000000000000000e+00,-1.000000000000000000e+00,1.000000000000000000e+00,-2.000000000000000000e+00,-1.000000000000000000e+00,-1.475830078125000000e-01,4.501953125000000000e-01,-9.631347656250000000e-02,8.753051757812500000e-01
4.000000000000000000e+00,2.000000000000000000e+00,-7.000000000000000000e+00,1.000000000000000000e+00,1.000000000000000000e+00,-2.000000000000000000e+00,0.000000000000000000e+00,1.000000000000000000e+00,-1.475830078125000000e-01,4.501953125000000000e-01,-9.631347656250000000e-02,8.753051757812500000e-01
1.000000000000000000e+00,1.500000000000000000e+01,1.100000000000000000e+01,-3.000000000000000000e+00,-4.000000000000000000e+00,-1.000000000000000000e+00,2.000000000000000000e+00,-2.000000000000000000e+00,-1.475830078125000000e-01,4.503173828125000000e-01,-9.655761718750000000e-02,8.752441406250000000e-01
-1.000000000000000000e+00,-1.000000000000000000e+00,-3.000000000000000000e+00,-8.000000000000000000e+00,-9.000000000000000000e+00,-7.000000000000000000e+00,-6.000000000000000000e+00,-2.000000000000000000e+00,-1.475830078125000000e-01,4.503173828125000000e-01,-9.655761718750000000e-02,8.752441406250000000e-01
-2.000000000000000000e+00,-6.000000000000000000e+00,0.000000000000000000e+00,1.000000000000000000e+01,1.000000000000000000e+01,3.000000000000000000e+00,1.000000000000000000e+00,0.000000000000000000e+00,-1.475830078125000000e-01,4.503173828125000000e-01,-9.655761718750000000e-02,8.752441406250000000e-01
-1.100000000000000000e+01,-6.200000000000000000e+01,-2.500000000000000000e+01,-2.300000000000000000e+01,-1.600000000000000000e+01,-2.000000000000000000e+00,0.000000000000000000e+00,-2.000000000000000000e+00,-1.475830078125000000e-01,4.503173828125000000e-01,-9.655761718750000000e-02,8.752441406250000000e-01
5.000000000000000000e+00,6.300000000000000000e+01,2.800000000000000000e+01,4.000000000000000000e+00,9.000000000000000000e+00,-3.000000000000000000e+00,-4.000000000000000000e+00,-2.000000000000000000e+00,-1.469726562500000000e-01,4.504394531250000000e-01,-9.680175781250000000e-02,8.752441406250000000e-01
1.000000000000000000e+00,-2.000000000000000000e+00,-3.000000000000000000e+00,7.000000000000000000e+00,8.000000000000000000e+00,6.000000000000000000e+00,1.000000000000000000e+00,1.000000000000000000e+00,-1.469726562500000000e-01,4.504394531250000000e-01,-9.680175781250000000e-02,8.752441406250000000e-01
-4.000000000000000000e+00,-9.000000000000000000e+00,-9.000000000000000000e+00,7.000000000000000000e+00,5.000000000000000000e+00,1.000000000000000000e+00,-2.000000000000000000e+00,-2.000000000000000000e+00,-1.469726562500000000e-01,4.504394531250000000e-01,-9.680175781250000000e-02,8.752441406250000000e-01
1.000000000000000000e+00,1.900000000000000000e+01,1.200000000000000000e+01,-1.000000000000000000e+00,-1.000000000000000000e+00,1.000000000000000000e+00,0.000000000000000000e+00,0.000000000000000000e+00,-1.469726562500000000e-01,4.504394531250000000e-01,-9.680175781250000000e-02,8.752441406250000000e-01
-4.000000000000000000e+00,-2.200000000000000000e+01,-9.000000000000000000e+00,-1.500000000000000000e+01,-1.200000000000000000e+01,-4.000000000000000000e+00,0.000000000000000000e+00,0.000000000000000000e+00,-1.467895507812500000e-01,4.506835937500000000e-01,-9.692382812500000000e-02,8.751831054687500000e-01
-2.000000000000000000e+00,0.000000000000000000e+00,-2.000000000000000000e+00,1.000000000000000000e+00,4.000000000000000000e+00,-1.000000000000000000e+00,0.000000000000000000e+00,-1.000000000000000000e+00,-1.467895507812500000e-01,4.506835937500000000e-01,-9.692382812500000000e-02,8.751831054687500000e-01
-5.000000000000000000e+00,4.000000000000000000e+00,-4.000000000000000000e+00,0.000000000000000000e+00,-1.000000000000000000e+00,1.000000000000000000e+00,-2.000000000000000000e+00,-1.000000000000000000e+00,-1.467895507812500000e-01,4.506835937500000000e-01,-9.692382812500000000e-02,8.751831054687500000e-01
6.000000000000000000e+00,1.500000000000000000e+01,2.000000000000000000e+00,-1.200000000000000000e+01,-1.000000000000000000e+00,-2.000000000000000000e+00,1.000000000000000000e+00,2.000000000000000000e+00,-1.467895507812500000e-01,4.506835937500000000e-01,-9.692382812500000000e-02,8.751831054687500000e-01
-1.000000000000000000e+00,-2.300000000000000000e+01,-1.000000000000000000e+00,1.400000000000000000e+01,-2.000000000000000000e+00,-1.000000000000000000e+00,-3.000000000000000000e+00,-1.000000000000000000e+00,-1.470947265625000000e-01,4.506225585937500000e-01,-9.704589843750000000e-02,8.751220703125000000e-01
2.000000000000000000e+00,1.300000000000000000e+01,1.200000000000000000e+01,5.000000000000000000e+00,0.000000000000000000e+00,-4.000000000000000000e+00,4.000000000000000000e+00,-2.000000000000000000e+00,-1.470947265625000000e-01,4.506225585937500000e-01,-9.704589843750000000e-02,8.751220703125000000e-01
-3.000000000000000000e+00,-5.000000000000000000e+00,-6.000000000000000000e+00,-9.000000000000000000e+00,-4.000000000000000000e+00,-4.000000000000000000e+00,-5.000000000000000000e+00,1.000000000000000000e+00,-1.470947265625000000e-01,4.506225585937500000e-01,-9.704589843750000000e-02,8.751220703125000000e-01
-2.000000000000000000e+00,9.000000000000000000e+00,3.000000000000000000e+00,6.000000000000000000e+00,1.000000000000000000e+00,5.000000000000000000e+00,2.000000000000000000e+00,-9.000000000000000000e+00,-1.470947265625000000e-01,4.506225585937500000e-01,-9.704589843750000000e-02,8.751220703125000000e-01
3.000000000000000000e+00,-5.000000000000000000e+00,-7.000000000000000000e+00,0.000000000000000000e+00,0.000000000000000000e+00,9.000000000000000000e+00,4.000000000000000000e+00,8.000000000000000000e+00,-1.470947265625000000e-01,4.505615234375000000e-01,-9.710693359375000000e-02,8.751220703125000000e-01
4.000000000000000000e+00,-5.000000000000000000e+00,-5.000000000000000000e+00,-1.000000000000000000e+00,-3.000000000000000000e+00,-6.000000000000000000e+00,-5.000000000000000000e+00,-3.000000000000000000e+00,-1.470947265625000000e-01,4.505615234375000000e-01,-9.710693359375000000e-02,8.751220703125000000e-01
-5.000000000000000000e+00,-6.000000000000000000e+00,1.000000000000000000e+00,-2.000000000000000000e+00,-1.000000000000000000e+00,0.000000000000000000e+00,2.000000000000000000e+00,0.000000000000000000e+00,-1.470947265625000000e-01,4.505615234375000000e-01,-9.710693359375000000e-02,8.751220703125000000e-01
-2.000000000000000000e+00,1.100000000000000000e+01,5.000000000000000000e+00,-1.200000000000000000e+01,-9.000000000000000000e+00,-1.000000000000000000e+01,-4.000000000000000000e+00,1.000000000000000000e+00,-1.470947265625000000e-01,4.505615234375000000e-01,-9.710693359375000000e-02,8.751220703125000000e-01
-3.000000000000000000e+00,-1.800000000000000000e+01,-5.000000000000000000e+00,-1.000000000000000000e+00,-6.000000000000000000e+00,-5.000000000000000000e+00,-1.000000000000000000e+00,-3.000000000000000000e+00,-1.470947265625000000e-01,4.505004882812500000e-01,-9.710693359375000000e-02,8.751831054687500000e-01
1.000000000000000000e+00,1.500000000000000000e+01,4.000000000000000000e+00,8.000000000000000000e+00,1.100000000000000000e+01,3.000000000000000000e+00,1.000000000000000000e+00,-2.000000000000000000e+00,-1.470947265625000000e-01,4.505004882812500000e-01,-9.710693359375000000e-02,8.751831054687500000e-01
1.000000000000000000e+00,-2.100000000000000000e+01,-9.000000000000000000e+00,8.000000000000000000e+00,-2.000000000000000000e+00,-4.000000000000000000e+00,1.000000000000000000e+00,-1.000000000000000000e+00,-1.470947265625000000e-01,4.505004882812500000e-01,-9.710693359375000000e-02,8.751831054687500000e-01
3.000000000000000000e+00,3.600000000000000000e+01,3.700000000000000000e+01,2.800000000000000000e+01,1.800000000000000000e+01,7.000000000000000000e+00,2.000000000000000000e+00,2.000000000000000000e+00,-1.470947265625000000e-01,4.505004882812500000e-01,-9.710693359375000000e-02,8.751831054687500000e-01
-4.000000000000000000e+00,-1.800000000000000000e+01,-3.400000000000000000e+01,-1.200000000000000000e+01,8.000000000000000000e+00,2.000000000000000000e+00,-2.000000000000000000e+00,-1.000000000000000000e+00,-1.459960937500000000e-01,4.500732421875000000e-01,-9.710693359375000000e-02,8.755493164062500000e-01
-6.000000000000000000e+00,-9.000000000000000000e+00,-4.000000000000000000e+00,-9.000000000000000000e+00,-1.300000000000000000e+01,-4.000000000000000000e+00,-4.000000000000000000e+00,0.000000000000000000e+00,-1.459960937500000000e-01,4.500732421875000000e-01,-9.710693359375000000e-02,8.755493164062500000e-01
0.000000000000000000e+00,1.000000000000000000e+00,1.000000000000000000e+00,-1.100000000000000000e+01,-9.000000000000000000e+00,-3.000000000000000000e+00,-4.000000000000000000e+00,-6.000000000000000000e+00,-1.459960937500000000e-01,4.500732421875000000e-01,-9.710693359375000000e-02,8.755493164062500000e-01
3.000000000000000000e+00,-2.000000000000000000e+00,-4.000000000000000000e+00,-8.000000000000000000e+00,-1.100000000000000000e+01,-6.000000000000000000e+00,-3.000000000000000000e+00,-1.000000000000000000e+00,-1.459960937500000000e-01,4.500732421875000000e-01,-9.710693359375000000e-02,8.755493164062500000e-01
-1.000000000000000000e+01,2.000000000000000000e+00,2.000000000000000000e+01,6.000000000000000000e+00,-2.000000000000000000e+00,1.000000000000000000e+00,-2.000000000000000000e+00,-2.000000000000000000e+00,-1.466674804687500000e-01,4.496459960937500000e-01,-9.704589843750000000e-02,8.756713867187500000e-01
-4.000000000000000000e+00,-1.400000000000000000e+01,-4.100000000000000000e+01,-1.900000000000000000e+01,-7.000000000000000000e+00,-1.000000000000000000e+00,-2.000000000000000000e+00,-2.000000000000000000e+00,-1.466674804687500000e-01,4.496459960937500000e-01,-9.704589843750000000e-02,8.756713867187500000e-01
-1.000000000000000000e+00,2.600000000000000000e+01,1.400000000000000000e+01,-7.000000000000000000e+00,0.000000000000000000e+00,-5.000000000000000000e+00,-1.000000000000000000e+00,-2.000000000000000000e+00,-1.466674804687500000e-01,4.496459960937500000e-01,-9.704589843750000000e-02,8.756713867187500000e-01
5.000000000000000000e+00,-1.000000000000000000e+00,-4.000000000000000000e+00,4.000000000000000000e+00,-2.000000000000000000e+00,1.100000000000000000e+01,5.000000000000000000e+00,-1.000000000000000000e+00,-1.466674804687500000e-01,4.496459960937500000e-01,-9.704589843750000000e-02,8.756713867187500000e-01
-2.000000000000000000e+00,-2.200000000000000000e+01,-1.500000000000000000e+01,-5.000000000000000000e+00,-1.000000000000000000e+00,-4.000000000000000000e+00,0.000000000000000000e+00,-1.000000000000000000e+00,-1.479492187500000000e-01,4.492187500000000000e-01,-9.698486328125000000e-02,8.757324218750000000e-01
-6.000000000000000000e+00,-1.000000000000000000e+00,0.000000000000000000e+00,-1.000000000000000000e+00,0.000000000000000000e+00,1.000000000000000000e+00,-4.000000000000000000e+00,2.000000000000000000e+00,-1.479492187500000000e-01,4.492187500000000000e-01,-9.698486328125000000e-02,8.757324218750000000e-01
4.000000000000000000e+00,0.000000000000000000e+00,1.100000000000000000e+01,2.000000000000000000e+01,3.000000000000000000e+00,-6.000000000000000000e+00,-1.000000000000000000e+00,-3.000000000000000000e+00,-1.479492187500000000e-01,4.492187500000000000e-01,-9.698486328125000000e-02,8.757324218750000000e-01
-5.000000000000000000e+00,7.000000000000000000e+00,-4.000000000000000000e+00,-2.000000000000000000e+00,0.000000000000000000e+00,-4.000000000000000000e+00,-7.000000000000000000e+00,1.000000000000000000e+00,-1.479492187500000000e-01,4.492187500000000000e-01,-9.698486328125000000e-02,8.757324218750000000e-01
2.000000000000000000e+00,1.000000000000000000e+01,-2.000000000000000000e+00,-3.000000000000000000e+00,-3.000000000000000000e+00,2.000000000000000000e+00,-2.000000000000000000e+00,-1.000000000000000000e+00,-1.478271484375000000e-01,4.490356445312500000e-01,-9.747314453125000000e-02,8.757324218750000000e-01
-1.000000000000000000e+00,-4.000000000000000000e+00,6.000000000000000000e+00,-1.000000000000000000e+00,-2.000000000000000000e+00,2.000000000000000000e+00,0.000000000000000000e+00,1.000000000000000000e+00,-1.478271484375000000e-01,4.490356445312500000e-01,-9.747314453125000000e-02,8.757324218750000000e-01
-1.000000000000000000e+00,-1.800000000000000000e+01,-1.400000000000000000e+01,-7.000000000000000000e+00,-2.000000000000000000e+00,-2.000000000000000000e+00,-2.000000000000000000e+00,-2.000000000000000000e+00,-1.478271484375000000e-01,4.490356445312500000e-01,-9.747314453125000000e-02,8.757324218750000000e-01
0.000000000000000000e+00,9.000000000000000000e+00,3.000000000000000000e+00,-2.800000000000000000e+01,-2.800000000000000000e+01,-1.200000000000000000e+01,-5.000000000000000000e+00,-2.000000000000000000e+00,-1.478271484375000000e-01,4.490356445312500000e-01,-9.747314453125000000e-02,8.757324218750000000e-01
1.000000000000000000e+00,-7.000000000000000000e+00,5.000000000000000000e+00,4.500000000000000000e+01,4.500000000000000000e+01,1.100000000000000000e+01,4.000000000000000000e+00,1.000000000000000000e+00,-1.467895507812500000e-01,4.492797851562500000e-01,-9.790039062500000000e-02,8.757934570312500000e-01
0.000000000000000000e+00,-1.200000000000000000e+01,-1.300000000000000000e+01,-1.100000000000000000e+01,-5.000000000000000000e+00,-6.000000000000000000e+00,-2.000000000000000000e+00,-3.000000000000000000e+00,-1.467895507812500000e-01,4.492797851562500000e-01,-9.790039062500000000e-02,8.757934570312500000e-01
-1.000000000000000000e+00,1.300000000000000000e+01,1.200000000000000000e+01,9.000000000000000000e+00,2.000000000000000000e+00,1.000000000000000000e+00,0.000000000000000000e+00,-1.000000000000000000e+00,-1.467895507812500000e-01,4.492797851562500000e-01,-9.790039062500000000e-02,8.757934570312500000e-01
1.000000000000000000e+00,-2.000000000000000000e+00,9.000000000000000000e+00,-1.700000000000000000e+01,-2.700000000000000000e+01,-5.000000000000000000e+00,2.000000000000000000e+00,2.000000000000000000e+00,-1.467895507812500000e-01,4.492797851562500000e-01,-9.790039062500000000e-02,8.757934570312500000e-01
0.000000000000000000e+00,6.000000000000000000e+00,-1.000000000000000000e+01,1.400000000000000000e+01,2.800000000000000000e+01,3.000000000000000000e+00,0.000000000000000000e+00,0.000000000000000000e+00,-1.456909179687500000e-01,4.498901367187500000e-01,-9.808349609375000000e-02,8.756103515625000000e-01
2.000000000000000000e+00,7.000000000000000000e+00,1.000000000000000000e+00,-1.000000000000000000e+00,1.000000000000000000e+00,0.000000000000000000e+00,1.000000000000000000e+00,3.000000000000000000e+00,-1.456909179687500000e-01,4.498901367187500000e-01,-9.808349609375000000e-02,8.756103515625000000e-01
0.000000000000000000e+00,-6.000000000000000000e+00,-2.200000000000000000e+01,-3.000000000000000000e+01,-1.000000000000000000e+00,0.000000000000000000e+00,-1.000000000000000000e+00,1.000000000000000000e+00,-1.456909179687500000e-01,4.498901367187500000e-01,-9.808349609375000000e-02,8.756103515625000000e-01
-6.000000000000000000e+00,-1.500000000000000000e+01,2.500000000000000000e+01,3.400000000000000000e+01,1.100000000000000000e+01,-1.000000000000000000e+00,-1.000000000000000000e+00,0.000000000000000000e+00,-1.456909179687500000e-01,4.498901367187500000e-01,-9.808349609375000000e-02,8.756103515625000000e-01
1.000000000000000000e+00,5.000000000000000000e+00,0.000000000000000000e+00,-1.600000000000000000e+01,-2.800000000000000000e+01,-6.000000000000000000e+00,-2.000000000000000000e+00,-4.000000000000000000e+00,-1.459960937500000000e-01,4.505004882812500000e-01,-9.777832031250000000e-02,8.752441406250000000e-01
1.000000000000000000e+00,-6.000000000000000000e+00,8.000000000000000000e+00,1.200000000000000000e+01,6.000000000000000000e+00,2.000000000000000000e+00,-2.000000000000000000e+00,-2.000000000000000000e+00,-1.459960937500000000e-01,4.505004882812500000e-01,-9.777832031250000000e-02,8.752441406250000000e-01
1.000000000000000000e+00,1.900000000000000000e+01,-1.300000000000000000e+01,-1.300000000000000000e+01,-4.000000000000000000e+00,0.000000000000000000e+00,1.000000000000000000e+00,0.000000000000000000e+00,-1.459960937500000000e-01,4.505004882812500000e-01,-9.777832031250000000e-02,8.752441406250000000e-01
-4.000000000000000000e+00,-1.600000000000000000e+01,-1.200000000000000000e+01,6.000000000000000000e+00,1.100000000000000000e+01,1.000000000000000000e+00,-1.000000000000000000e+00,-3.000000000000000000e+00,-1.459960937500000000e-01,4.505004882812500000e-01,-9.777832031250000000e-02,8.752441406250000000e-01
1.000000000000000000e+00,2.200000000000000000e+01,4.000000000000000000e+00,-9.000000000000000000e+00,-1.100000000000000000e+01,-4.000000000000000000e+00,-5.000000000000000000e+00,0.000000000000000000e+00,-1.470336914062500000e-01,4.510498046875000000e-01,-9.759521484375000000e-02,8.748779296875000000e-01
-1.000000000000000000e+00,0.000000000000000000e+00,4.000000000000000000e+00,-2.000000000000000000e+00,-7.000000000000000000e+00,-2.000000000000000000e+00,1.000000000000000000e+00,-3.000000000000000000e+00,-1.470336914062500000e-01,4.510498046875000000e-01,-9.759521484375000000e-02,8.748779296875000000e-01
-2.000000000000000000e+00,-1.500000000000000000e+01,-2.000000000000000000e+00,-1.000000000000000000e+00,-3.000000000000000000e+00,-4.000000000000000000e+00,-4.000000000000000000e+00,-3.000000000000000000e+00,-1.470336914062500000e-01,4.510498046875000000e-01,-9.759521484375000000e-02,8.748779296875000000e-01
-2.000000000000000000e+00,7.000000000000000000e+00,-1.200000000000000000e+01,0.000000000000000000e+00,1.100000000000000000e+01,4.000000000000000000e+00,-1.000000000000000000e+00,-2.000000000000000000e+00,-1.470336914062500000e-01,4.510498046875000000e-01,-9.759521484375000000e-02,8.748779296875000000e-01
3.000000000000000000e+00,3.000000000000000000e+00,7.000000000000000000e+00,7.000000000000000000e+00,-1.000000000000000000e+01,3.000000000000000000e+00,7.000000000000000000e+00,2.000000000000000000e+00,-1.472167968750000000e-01,4.514770507812500000e-01,-9.771728515625000000e-02,8.745727539062500000e-01
-4.000000000000000000e+00,-1.100000000000000000e+01,-4.000000000000000000e+00,-1.100000000000000000e+01,-9.000000000000000000e+00,-6.000000000000000000e+00,-5.000000000000000000e+00,-2.000000000000000000e+00,-1.472167968750000000e-01,4.514770507812500000e-01,-9.771728515625000000e-02,8.745727539062500000e-01
-1.000000000000000000e+00,4.000000000000000000e+00,9.000000000000000000e+00,8.000000000000000000e+00,1.000000000000000000e+00,1.000000000000000000e+00,-1.000000000000000000e+00,3.000000000000000000e+00,-1.472167968750000000e-01,4.514770507812500000e-01,-9.771728515625000000e-02,8.745727539062500000e-01
0.000000000000000000e+00,-3.000000000000000000e+00,-1.400000000000000000e+01,3.000000000000000000e+00,3.000000000000000000e+00,-2.000000000000000000e+00,-2.000000000000000000e+00,0.000000000000000000e+00,-1.472167968750000000e-01,4.514770507812500000e-01,-9.771728515625000000e-02,8.745727539062500000e-01
-1.000000000000000000e+00,-2.000000000000000000e+00,6.000000000000000000e+00,-8.000000000000000000e+00,2.000000000000000000e+00,1.000000000000000000e+00,-4.000000000000000000e+00,-4.000000000000000000e+00,-1.469726562500000000e-01,4.517822265625000000e-01,-9.790039062500000000e-02,8.744506835937500000e-01
0.000000000000000000e+00,1.100000000000000000e+01,-7.000000000000000000e+00,3.000000000000000000e+00,0.000000000000000000e+00,1.000000000000000000e+00,0.000000000000000000e+00,1.000000000000000000e+00,-1.469726562500000000e-01,4.517822265625000000e-01,-9.790039062500000000e-02,8.744506835937500000e-01
-5.000000000000000000e+00,-2.200000000000000000e+01,-1.400000000000000000e+01,-3.000000000000000000e+00,-5.000000000000000000e+00,-3.000000000000000000e+00,-2.000000000000000000e+00,-4.000000000000000000e+00,-1.469726562500000000e-01,4.517822265625000000e-01,-9.790039062500000000e-02,8.744506835937500000e-01
0.000000000000000000e+00,-2.500000000000000000e+01,-1.100000000000000000e+01,-1.100000000000000000e+01,-3.000000000000000000e+00,-2.000000000000000000e+00,-1.000000000000000000e+00,2.000000000000000000e+00,-1.469726562500000000e-01,4.517822265625000000e-01,-9.790039062500000000e-02,8.744506835937500000e-01
-1.000000000000000000e+00,2.400000000000000000e+01,9.000000000000000000e+00,1.000000000000000000e+00,-1.300000000000000000e+01,-7.000000000000000000e+00,-3.000000000000000000e+00,0.000000000000000000e+00,-1.464843750000000000e-01,4.520874023437500000e-01,-9.802246093750000000e-02,8.743286132812500000e-01
-2.000000000000000000e+00,-2.600000000000000000e+01,-8.000000000000000000e+00,-6.000000000000000000e+00,3.000000000000000000e+00,2.000000000000000000e+00,2.000000000000000000e+00,1.000000000000000000e+00,-1.464843750000000000e-01,4.520874023437500000e-01,-9.802246093750000000e-02,8.743286132812500000e-01
-1.000000000000000000e+00,3.400000000000000000e+01,2.400000000000000000e+01,2.200000000000000000e+01,3.000000000000000000e+00,3.000000000000000000e+00,-1.000000000000000000e+00,-5.000000000000000000e+00,-1.464843750000000000e-01,4.520874023437500000e-01,-9.802246093750000000e-02,8.743286132812500000e-01
-2.000000000000000000e+00,1.000000000000000000e+00,-4.000000000000000000e+00,0.000000000000000000e+00,1.000000000000000000e+00,-2.000000000000000000e+00,0.000000000000000000e+00,-1.000000000000000000e+00,-1.464843750000000000e-01,4.520874023437500000e-01,-9.802246093750000000e-02,8.743286132812500000e-01
-1.000000000000000000e+00,-7.000000000000000000e+00,-7.000000000000000000e+00,-1.200000000000000000e+01,-6.000000000000000000e+00,-3.000000000000000000e+00,0.000000000000000000e+00,-3.000000000000000000e+00,-1.464843750000000000e-01,4.521484375000000000e-01,-9.802246093750000000e-02,8.743286132812500000e-01
-1.000000000000000000e+00,-9.000000000000000000e+00,4.000000000000000000e+00,1.000000000000000000e+00,-4.000000000000000000e+00,-2.000000000000000000e+00,-2.000000000000000000e+00,-3.000000000000000000e+00,-1.464843750000000000e-01,4.521484375000000000e-01,-9.802246093750000000e-02,8.743286132812500000e-01
-2.000000000000000000e+00,-1.200000000000000000e+01,-1.900000000000000000e+01,-6.000000000000000000e+00,2.000000000000000000e+00,-3.000000000000000000e+00,-1.000000000000000000e+00,-2.000000000000000000e+00,-1.464843750000000000e-01,4.521484375000000000e-01,-9.802246093750000000e-02,8.743286132812500000e-01
-2.000000000000000000e+00,0.000000000000000000e+00,-1.100000000000000000e+01,1.000000000000000000e+00,2.000000000000000000e+00,-4.000000000000000000e+00,-2.000000000000000000e+00,0.000000000000000000e+00,-1.464843750000000000e-01,4.521484375000000000e-01,-9.802246093750000000e-02,8.743286132812500000e-01
0.000000000000000000e+00,-4.000000000000000000e+00,1.100000000000000000e+01,-2.000000000000000000e+00,-3.000000000000000000e+00,1.100000000000000000e+01,9.000000000000000000e+00,2.000000000000000000e+00,-1.467285156250000000e-01,4.520263671875000000e-01,-9.759521484375000000e-02,8.743896484375000000e-01
-1.000000000000000000e+00,1.100000000000000000e+01,6.000000000000000000e+00,4.000000000000000000e+00,1.000000000000000000e+00,-1.000000000000000000e+00,-5.000000000000000000e+00,-2.000000000000000000e+00,-1.467285156250000000e-01,4.520263671875000000e-01,-9.759521484375000000e-02,8.743896484375000000e-01
0.000000000000000000e+00,-5.000000000000000000e+00,-2.000000000000000000e+00,-1.200000000000000000e+01,-1.100000000000000000e+01,0.000000000000000000e+00,0.000000000000000000e+00,-1.000000000000000000e+00,-1.467285156250000000e-01,4.520263671875000000e-01,-9.759521484375000000e-02,8.743896484375000000e-01
-2.000000000000000000e+00,1.000000000000000000e+00,-4.000000000000000000e+00,5.000000000000000000e+00,1.100000000000000000e+01,-1.000000000000000000e+00,-3.000000000000000000e+00,-4.000000000000000000e+00,-1.467285156250000000e-01,4.520263671875000000e-01,-9.759521484375000000e-02,8.743896484375000000e-01
0.000000000000000000e+00,-1.500000000000000000e+01,-9.000000000000000000e+00,-5.000000000000000000e+00,-2.000000000000000000e+00,-5.000000000000000000e+00,-2.000000000000000000e+00,0.000000000000000000e+00,-1.469116210937500000e-01,4.517822265625000000e-01,-9.716796875000000000e-02,8.745117187500000000e-01
-2.000000000000000000e+00,8.000000000000000000e+00,-2.000000000000000000e+00,-3.000000000000000000e+00,1.000000000000000000e+00,3.000000000000000000e+00,2.000000000000000000e+00,-1.000000000000000000e+00,-1.469116210937500000e-01,4.517822265625000000e-01,-9.716796875000000000e-02,8.745117187500000000e-01
1.000000000000000000e+00,-4.000000000000000000e+00,1.200000000000000000e+01,0.000000000000000000e+00,1.000000000000000000e+00,-3.000000000000000000e+00,-2.000000000000000000e+00,0.000000000000000000e+00,-1.469116210937500000e-01,4.517822265625000000e-01,-9.716796875000000000e-02,8.745117187500000000e-01
-3.000000000000000000e+00,-2.100000000000000000e+01,-7.000000000000000000e+00,1.000000000000000000e+00,0.000000000000000000e+00,1.000000000000000000e+00,-2.000000000000000000e+00,-1.000000000000000000e+00,-1.469116210937500000e-01,4.517822265625000000e-01,-9.716796875000000000e-02,8.745117187500000000e-01
-1.000000000000000000e+00,2.200000000000000000e+01,-3.200000000000000000e+01,-2.700000000000000000e+01,-1.100000000000000000e+01,-6.000000000000000000e+00,-6.000000000000000000e+00,-5.000000000000000000e+00,-1.472167968750000000e-01,4.515991210937500000e-01,-9.698486328125000000e-02,8.746337890625000000e-01
2.000000000000000000e+00,7.000000000000000000e+00,3.000000000000000000e+01,1.300000000000000000e+01,3.000000000000000000e+00,0.000000000000000000e+00,0.000000000000000000e+00,-1.000000000000000000e+00,-1.472167968750000000e-01,4.515991210937500000e-01,-9.698486328125000000e-02,8.746337890625000000e-01
1.000000000000000000e+00,1.000000000000000000e+01,1.000000000000000000e+01,-1.000000000000000000e+00,-1.200000000000000000e+01,-2.000000000000000000e+00,0.000000000000000000e+00,3.000000000000000000e+00,-1.472167968750000000e-01,4.515991210937500000e-01,-9.698486328125000000e-02,8.746337890625000000e-01
-1.000000000000000000e+00,-5.000000000000000000e+00,-7.000000000000000000e+00,1.800000000000000000e+01,2.800000000000000000e+01,8.000000000000000000e+00,2.000000000000000000e+00,-2.000000000000000000e+00,-1.472167968750000000e-01,4.515991210937500000e-01,-9.698486328125000000e-02,8.746337890625000000e-01
0.000000000000000000e+00,0.000000000000000000e+00,1.800000000000000000e+01,-4.000000000000000000e+00,-3.000000000000000000e+00,-2.000000000000000000e+00,0.000000000000000000e+00,0.000000000000000000e+00,-1.472167968750000000e-01,4.515380859375000000e-01,-9.698486328125000000e-02,8.746337890625000000e-01
-3.000000000000000000e+00,-3.000000000000000000e+00,-1.500000000000000000e+01,-8.000000000000000000e+00,-5.000000000000000000e+00,-2.000000000000000000e+00,-1.000000000000000000e+00,-2.000000000000000000e+00,-1.472167968750000000e-01,4.515380859375000000e-01,-9.698486328125000000e-02,8.746337890625000000e-01
-4.000000000000000000e+00,-8.000000000000000000e+00,-2.000000000000000000e+00,-2.000000000000000000e+00,0.000000000000000000e+00,1.000000000000000000e+00,-2.000000000000000000e+00,0.000000000000000000e+00,-1.472167968750000000e-01,4.515380859375000000e-01,-9.698486328125000000e-02,8.746337890625000000e-01
0.000000000000000000e+00,-2.000000000000000000e+00,-2.600000000000000000e+01,-1.100000000000000000e+01,-1.500000000000000000e+01,-6.000000000000000000e+00,-2.000000000000000000e+00,0.000000000000000000e+00,-1.472167968750000000e-01,4.515380859375000000e-01,-9.698486328125000000e-02,8.746337890625000000e-01
-2.000000000000000000e+00,-1.700000000000000000e+01,-1.000000000000000000e+01,-1.000000000000000000e+00,3.000000000000000000e+00,-1.000000000000000000e+00,0.000000000000000000e+00,-2.000000000000000000e+00,-1.469726562500000000e-01,4.514770507812500000e-01,-9.704589843750000000e-02,8.746948242187500000e-01
0.000000000000000000e+00,-1.000000000000000000e+01,7.000000000000000000e+00,2.000000000000000000e+00,-5.000000000000000000e+00,-2.000000000000000000e+00,-1.000000000000000000e+00,-2.000000000000000000e+00,-1.469726562500000000e-01,4.514770507812500000e-01,-9.704589843750000000e-02,8.746948242187500000e-01
2.000000000000000000e+00,1.700000000000000000e+01,8.000000000000000000e+00,3.000000000000000000e+00,6.000000000000000000e+00,3.000000000000000000e+00,0.000000000000000000e+00,-2.000000000000000000e+00,-1.469726562500000000e-01,4.514770507812500000e-01,-9.704589843750000000e-02,8.746948242187500000e-01
-5.000000000000000000e+00,1.000000000000000000e+00,-1.000000000000000000e+00,-2.000000000000000000e+00,-1.200000000000000000e+01,-4.000000000000000000e+00,-1.000000000000000000e+00,-2.000000000000000000e+00,-1.469726562500000000e-01,4.514770507812500000e-01,-9.704589843750000000e-02,8.746948242187500000e-01
-2.000000000000000000e+00,-1.100000000000000000e+01,-1.100000000000000000e+01,-1.100000000000000000e+01,-1.200000000000000000e+01,-4.000000000000000000e+00,-3.000000000000000000e+00,-1.000000000000000000e+00,-1.465454101562500000e-01,4.512329101562500000e-01,-9.686279296875000000e-02,8.748779296875000000e-01
-1.000000000000000000e+00,-8.000000000000000000e+00,-6.000000000000000000e+00,6.000000000000000000e+00,9.000000000000000000e+00,0.000000000000000000e+00,-2.000000000000000000e+00,-1.000000000000000000e+00,-1.465454101562500000e-01,4.512329101562500000e-01,-9.686279296875000000e-02,8.748779296875000000e-01
-1.000000000000000000e+00,-1.000000000000000000e+01,6.000000000000000000e+00,0.000000000000000000e+00,2.000000000000000000e+00,-1.000000000000000000e+00,-2.000000000000000000e+00,-2.000000000000000000e+00,-1.465454101562500000e-01,4.512329101562500000e-01,-9.686279296875000000e-02,8.748779296875000000e-01
2.000000000000000000e+00,2.200000000000000000e+01,1.000000000000000000e+00,2.000000000000000000e+00,5.000000000000000000e+00,4.000000000000000000e+00,5.000000000000000000e+00,1.000000000000000000e+00,-1.465454101562500000e-01,4.512329101562500000e-01,-9.686279296875000000e-02,8.748779296875000000e-01
0.000000000000000000e+00,-9.000000000000000000e+00,7.000000000000000000e+00,1.000000000000000000e+00,-6.000000000000000000e+00,-3.000000000000000000e+00,-3.000000000000000000e+00,-3.000000000000000000e+00,-1.469116210937500000e-01,4.509887695312500000e-01,-9.667968750000000000e-02,8.750000000000000000e-01
-3.000000000000000000e+00,3.000000000000000000e+00,6.000000000000000000e+00,5.000000000000000000e+00,-3.000000000000000000e+00,0.000000000000000000e+00,-1.000000000000000000e+00,-1.000000000000000000e+00,-1.469116210937500000e-01,4.509887695312500000e-01,-9.667968750000000000e-02,8.750000000000000000e-01
1.000000000000000000e+00,-1.000000000000000000e+00,-2.000000000000000000e+00,6.000000000000000000e+00,3.000000000000000000e+00,2.000000000000000000e+00,-1.000000000000000000e+00,-1.000000000000000000e+00,-1.469116210937500000e-01,4.509887695312500000e-01,-9.667968750000000000e-02,8.750000000000000000e-01
-2.000000000000000000e+00,-2.000000000000000000e+00,4.000000000000000000e+00,-1.000000000000000000e+01,-1.000000000000000000e+00,-4.000000000000000000e+00,-3.000000000000000000e+00,-3.000000000000000000e+00,-1.469116210937500000e-01,4.509887695312500000e-01,-9.667968750000000000e-02,8.750000000000000000e-01
0.000000000000000000e+00,-1.700000000000000000e+01,-8.000000000000000000e+00,5.000000000000000000e+00,4.000000000000000000e+00,-1.000000000000000000e+00,-1.000000000000000000e+00,0.000000000000000000e+00,-1.473999023437500000e-01,4.508056640625000000e-01,-9.661865234375000000e-02,8.750000000000000000e-01
-1.000000000000000000e+00,-5.000000000000000000e+00,-1.600000000000000000e+01,-9.000000000000000000e+00,-5.000000000000000000e+00,6.000000000000000000e+00,9.000000000000000000e+00,2.000000000000000000e+00,-1.473999023437500000e-01,4.508056640625000000e-01,-9.661865234375000000e-02,8.750000000000000000e-01
0.000000000000000000e+00,2.700000000000000000e+01,1.900000000000000000e+01,-2.000000000000000000e+00,2.000000000000000000e+00,-1.000000000000000000e+00,-1.000000000000000000e+00,-2.000000000000000000e+00,-1.473999023437500000e-01,4.508056640625000000e-01,-9.661865234375000000e-02,8.750000000000000000e-01
1.000000000000000000e+00,1.600000000000000000e+01,8.000000000000000000e+00,-2.000000000000000000e+00,-1.700000000000000000e+01,-2.000000000000000000e+00,-1.000000000000000000e+00,-2.000000000000000000e+00,-1.473999023437500000e-01,4.508056640625000000e-01,-9.661865234375000000e-02,8.750000000000000000e-01
-2.000000000000000000e+00,-7.000000000000000000e+00,0.000000000000000000e+00,6.000000000000000000e+00,9.000000000000000000e+00,-3.000000000000000000e+00,-2.000000000000000000e+00,-1.000000000000000000e+00,-1.472167968750000000e-01,4.508056640625000000e-01,-9.667968750000000000e-02,8.750000000000000000e-01
-5.000000000000000000e+00,-6.000000000000000000e+00,-7.000000000000000000e+00,5.000000000000000000e+00,9.000000000000000000e+00,-3.000000000000000000e+00,-3.000000000000000000e+00,-4.000000000000000000e+00,-1.472167968750000000e-01,4.508056640625000000e-01,-9.667968750000000000e-02,8.750000000000000000e-01
-1.000000000000000000e+00,-7.000000000000000000e+00,-1.000000000000000000e+00,-1.900000000000000000e+01,-1.500000000000000000e+01,-5.000000000000000000e+00,-2.000000000000000000e+00,0.000000000000000000e+00,-1.472167968750000000e-01,4.508056640625000000e-01,-9.667968750000000000e-02,8.750000000000000000e-01
-3.000000000000000000e+00,-1.000000000000000000e+01,-1.900000000000000000e+01,1.000000000000000000e+00,5.000000000000000000e+00,2.000000000000000000e+00,1.000000000000000000e+00,2.000000000000000000e+00,-1.472167968750000000e-01,4.508056640625000000e-01,-9.667968750000000000e-02,8.750000000000000000e-01
-2.000000000000000000e+00,1.300000000000000000e+01,2.300000000000000000e+01,6.000000000000000000e+00,-7.000000000000000000e+00,-1.000000000000000000e+00,0.000000000000000000e+00,-1.000000000000000000e+00,-1.466064453125000000e-01,4.510498046875000000e-01,-9.692382812500000000e-02,8.750000000000000000e-01
0.000000000000000000e+00,9.000000000000000000e+00,-4.000000000000000000e+00,0.000000000000000000e+00,3.000000000000000000e+00,-3.000000000000000000e+00,-2.000000000000000000e+00,0.000000000000000000e+00,-1.466064453125000000e-01,4.510498046875000000e-01,-9.692382812500000000e-02,8.750000000000000000e-01
-1.000000000000000000e+00,-1.800000000000000000e+01,-1.200000000000000000e+01,-1.000000000000000000e+00,4.000000000000000000e+00,3.000000000000000000e+00,2.000000000000000000e+00,0.000000000000000000e+00,-1.466064453125000000e-01,4.510498046875000000e-01,-9.692382812500000000e-02,8.750000000000000000e-01
0.000000000000000000e+00,1.100000000000000000e+01,1.400000000000000000e+01,-3.000000000000000000e+00,-5.000000000000000000e+00,-4.000000000000000000e+00,-2.000000000000000000e+00,-2.000000000000000000e+00,-1.466064453125000000e-01,4.510498046875000000e-01,-9.692382812500000000e-02,8.750000000000000000e-01
-2.000000000000000000e+00,-2.400000000000000000e+01,-2.800000000000000000e+01,-5.000000000000000000e+00,0.000000000000000000e+00,-4.000000000000000000e+00,-1.000000000000000000e+00,-2.000000000000000000e+00,-1.466064453125000000e-01,4.510498046875000000e-01,-9.692382812500000000e-02,8.750000000000000000e-01
2.000000000000000000e+00,2.500000000000000000e+01,1.800000000000000000e+01,-2.000000000000000000e+00,0.000000000000000000e+00,-1.000000000000000000e+00,1.000000000000000000e+00,1.000000000000000000e+00,-1.466064453125000000e-01,4.510498046875000000e-01,-9.692382812500000000e-02,8.750000000000000000e-01
