-1.000000000000000000e+00,-4.000000000000000000e+00,1.100000000000000000e+01,6.200000000000000000e+01,4.900000000000000000e+01,1.000000000000000000e+01,4.000000000000000000e+00,0.000000000000000000e+00,1.092529296875000000e-02,5.195922851562500000e-01,-9.680175781250000000e-02,8.488159179687500000e-01
2.000000000000000000e+00,2.000000000000000000e+00,2.000000000000000000e+01,-3.600000000000000000e+01,-3.900000000000000000e+01,-9.000000000000000000e+00,-5.000000000000000000e+00,-2.000000000000000000e+00,1.092529296875000000e-02,5.195922851562500000e-01,-9.680175781250000000e-02,8.488159179687500000e-01
-2.000000000000000000e+00,-4.000000000000000000e+00,-2.000000000000000000e+01,3.900000000000000000e+01,3.000000000000000000e+01,4.000000000000000000e+00,0.000000000000000000e+00,1.000000000000000000e+00,1.092529296875000000e-02,5.195922851562500000e-01,-9.680175781250000000e-02,8.488159179687500000e-01
2.000000000000000000e+00,2.000000000000000000e+00,-2.800000000000000000e+01,5.000000000000000000e+00,0.000000000000000000e+00,2.000000000000000000e+00,4.000000000000000000e+00,2.000000000000000000e+00,1.092529296875000000e-02,5.195922851562500000e-01,-9.680175781250000000e-02,8.488159179687500000e-01
-3.000000000000000000e+00,2.000000000000000000e+00,1.600000000000000000e+01,-1.200000000000000000e+01,-2.400000000000000000e+01,-6.000000000000000000e+00,-7.000000000000000000e+00,-3.000000000000000000e+00,1.135253906250000000e-02,5.176391601562500000e-01,-9.851074218750000000e-02,8.497924804687500000e-01
-2.000000000000000000e+00,0.000000000000000000e+00,-4.000000000000000000e+00,-3.000000000000000000e+00,1.200000000000000000e+01,-1.000000000000000000e+00,6.000000000000000000e+00,-2.000000000000000000e+00,1.135253906250000000e-02,5.176391601562500000e-01,-9.851074218750000000e-02,8.497924804687500000e-01
2.000000000000000000e+00,3.000000000000000000e+00,6.000000000000000000e+00,-2.700000000000000000e+01,-1.200000000000000000e+01,-7.000000000000000000e+00,-3.000000000000000000e+00,3.000000000000000000e+00,1.135253906250000000e-02,5.176391601562500000e-01,-9.851074218750000000e-02,8.497924804687500000e-01
-1.000000000000000000e+00,-2.000000000000000000e+00,-4.000000000000000000e+00,1.400000000000000000e+01,4.000000000000000000e+00,-1.100000000000000000e+01,3.000000000000000000e+00,-1.000000000000000000e+00,1.135253906250000000e-02,5.176391601562500000e-01,-9.851074218750000000e-02,8.497924804687500000e-01
2.000000000000000000e+00,2.000000000000000000e+00,2.100000000000000000e+01,3.000000000000000000e+00,-1.100000000000000000e+01,2.000000000000000000e+01,7.000000000000000000e+00,1.000000000000000000e+00,1.123046875000000000e-02,5.158081054687500000e-01,-1.001586914062500000e-01,8.507080078125000000e-01
-2.000000000000000000e+00,-6.000000000000000000e+00,-1.200000000000000000e+01,-1.100000000000000000e+01,1.000000000000000000e+00,1.000000000000000000e+00,-7.000000000000000000e+00,-2.000000000000000000e+00,1.123046875000000000e-02,5.158081054687500000e-01,-1.001586914062500000e-01,8.507080078125000000e-01
-1.000000000000000000e+00,0.000000000000000000e+00,-5.000000000000000000e+00,-7.000000000000000000e+00,-1.900000000000000000e+01,-1.000000000000000000e+00,1.000000000000000000e+01,0.000000000000000000e+00,1.123046875000000000e-02,5.158081054687500000e-01,-1.001586914062500000e-01,8.507080078125000000e-01
-2.000000000000000000e+00,-7.000000000000000000e+00,-3.200000000000000000e+01,9.000000000000000000e+00,1.900000000000000000e+01,3.000000000000000000e+00,0.000000000000000000e+00,0.000000000000000000e+00,1.123046875000000000e-02,5.158081054687500000e-01,-1.001586914062500000e-01,8.507080078125000000e-01
-1.000000000000000000e+00,0.000000000000000000e+00,-8.000000000000000000e+00,2.400000000000000000e+01,1.200000000000000000e+01,-8.000000000000000000e+00,-8.000000000000000000e+00,-1.000000000000000000e+00,1.013183593750000000e-02,5.144653320312500000e-01,-1.010131835937500000e-01,8.514404296875000000e-01
-2.000000000000000000e+00,-2.000000000000000000e+00,-1.200000000000000000e+01,-7.000000000000000000e+00,6.000000000000000000e+00,2.000000000000000000e+00,1.000000000000000000e+00,-2.000000000000000000e+00,1.013183593750000000e-02,5.144653320312500000e-01,-1.010131835937500000e-01,8.514404296875000000e-01
-1.000000000000000000e+00,3.000000000000000000e+00,4.500000000000000000e+01,2.500000000000000000e+01,-2.000000000000000000e+00,-3.000000000000000000e+00,0.000000000000000000e+00,-2.000000000000000000e+00,1.013183593750000000e-02,5.144653320312500000e-01,-1.010131835937500000e-01,8.514404296875000000e-01
0.000000000000000000e+00,0.000000000000000000e+00,3.000000000000000000e+01,1.100000000000000000e+01,1.000000000000000000e+01,3.000000000000000000e+00,-9.000000000000000000e+00,0.000000000000000000e+00,1.013183593750000000e-02,5.144653320312500000e-01,-1.010131835937500000e-01,8.514404296875000000e-01
-2.000000000000000000e+00,-1.000000000000000000e+00,-3.700000000000000000e+01,-5.500000000000000000e+01,-2.700000000000000000e+01,-1.300000000000000000e+01,-1.000000000000000000e+00,-5.000000000000000000e+00,7.812500000000000000e-03,5.139160156250000000e-01,-1.010742187500000000e-01,8.517456054687500000e-01
5.000000000000000000e+00,3.000000000000000000e+00,0.000000000000000000e+00,6.500000000000000000e+01,4.400000000000000000e+01,1.400000000000000000e+01,1.000000000000000000e+01,5.000000000000000000e+00,7.812500000000000000e-03,5.139160156250000000e-01,-1.010742187500000000e-01,8.517456054687500000e-01
-1.000000000000000000e+00,-2.000000000000000000e+00,1.500000000000000000e+01,-5.600000000000000000e+01,-4.000000000000000000e+01,-1.500000000000000000e+01,-8.000000000000000000e+00,-3.000000000000000000e+00,7.812500000000000000e-03,5.139160156250000000e-01,-1.010742187500000000e-01,8.517456054687500000e-01
-5.000000000000000000e+00,-1.000000000000000000e+01,-6.600000000000000000e+01,-2.000000000000000000e+00,1.900000000000000000e+01,7.000000000000000000e+00,0.000000000000000000e+00,-4.000000000000000000e+00,7.812500000000000000e-03,5.139160156250000000e-01,-1.010742187500000000e-01,8.517456054687500000e-01
-1.000000000000000000e+00,2.000000000000000000e+00,2.400000000000000000e+01,1.700000000000000000e+01,1.800000000000000000e+01,6.000000000000000000e+00,2.000000000000000000e+00,0.000000000000000000e+00,5.737304687500000000e-03,5.138549804687500000e-01,-1.013793945312500000e-01,8.518066406250000000e-01
0.000000000000000000e+00,4.000000000000000000e+00,1.800000000000000000e+01,-2.700000000000000000e+01,-2.300000000000000000e+01,-9.000000000000000000e+00,-3.000000000000000000e+00,1.000000000000000000e+00,5.737304687500000000e-03,5.138549804687500000e-01,-1.013793945312500000e-01,8.518066406250000000e-01
1.000000000000000000e+00,-2.000000000000000000e+00,1.000000000000000000e+00,6.000000000000000000e+00,8.000000000000000000e+00,8.000000000000000000e+00,1.000000000000000000e+01,7.000000000000000000e+00,5.737304687500000000e-03,5.138549804687500000e-01,-1.013793945312500000e-01,8.518066406250000000e-01
-3.000000000000000000e+00,-3.000000000000000000e+00,-1.900000000000000000e+01,-1.300000000000000000e+01,-1.800000000000000000e+01,-3.000000000000000000e+00,-4.000000000000000000e+00,-2.000000000000000000e+00,5.737304687500000000e-03,5.138549804687500000e-01,-1.013793945312500000e-01,8.518066406250000000e-01
-2.000000000000000000e+00,2.000000000000000000e+00,1.700000000000000000e+01,4.000000000000000000e+00,0.000000000000000000e+00,-2.000000000000000000e+00,-2.000000000000000000e+00,-1.000000000000000000e+00,4.272460937500000000e-03,5.138549804687500000e-01,-1.019287109375000000e-01,8.517456054687500000e-01
-2.000000000000000000e+00,-3.000000000000000000e+00,-3.800000000000000000e+01,-1.300000000000000000e+01,-9.000000000000000000e+00,-8.000000000000000000e+00,-1.000000000000000000e+01,-3.000000000000000000e+00,4.272460937500000000e-03,5.138549804687500000e-01,-1.019287109375000000e-01,8.517456054687500000e-01
0.000000000000000000e+00,0.000000000000000000e+00,-1.300000000000000000e+01,-2.100000000000000000e+01,-2.000000000000000000e+00,1.000000000000000000e+00,1.000000000000000000e+00,-2.000000000000000000e+00,4.272460937500000000e-03,5.138549804687500000e-01,-1.019287109375000000e-01,8.517456054687500000e-01
2.000000000000000000e+00,1.000000000000000000e+00,1.900000000000000000e+01,2.600000000000000000e+01,3.000000000000000000e+00,0.000000000000000000e+00,-9.000000000000000000e+00,0.000000000000000000e+00,4.272460937500000000e-03,5.138549804687500000e-01,-1.019287109375000000e-01,8.517456054687500000e-01
-3.000000000000000000e+00,-4.000000000000000000e+00,-1.800000000000000000e+01,-3.900000000000000000e+01,-2.800000000000000000e+01,-1.800000000000000000e+01,-4.000000000000000000e+00,-2.000000000000000000e+00,3.723144531250000000e-03,5.142822265625000000e-01,-1.019897460937500000e-01,8.515014648437500000e-01
1.000000000000000000e+00,2.000000000000000000e+00,3.800000000000000000e+01,2.700000000000000000e+01,3.400000000000000000e+01,2.900000000000000000e+01,1.700000000000000000e+01,3.000000000000000000e+00,3.723144531250000000e-03,5.142822265625000000e-01,-1.019897460937500000e-01,8.515014648437500000e-01
-2.000000000000000000e+00,0.000000000000000000e+00,-8.000000000000000000e+00,-6.000000000000000000e+00,-1.000000000000000000e+01,-4.000000000000000000e+00,-1.000000000000000000e+00,-4.000000000000000000e+00,3.723144531250000000e-03,5.142822265625000000e-01,-1.019897460937500000e-01,8.515014648437500000e-01
2.000000000000000000e+00,2.000000000000000000e+00,1.300000000000000000e+01,-2.000000000000000000e+00,9.000000000000000000e+00,-2.000000000000000000e+00,-1.000000000000000000e+00,0.000000000000000000e+00,3.723144531250000000e-03,5.142822265625000000e-01,-1.019897460937500000e-01,8.515014648437500000e-01
-1.000000000000000000e+00,-2.000000000000000000e+00,2.400000000000000000e+01,0.000000000000000000e+00,-1.300000000000000000e+01,-7.000000000000000000e+00,-9.000000000000000000e+00,-3.000000000000000000e+00,3.784179687500000000e-03,5.150756835937500000e-01,-1.010742187500000000e-01,8.511352539062500000e-01
0.000000000000000000e+00,-2.000000000000000000e+00,-1.000000000000000000e+01,3.100000000000000000e+01,3.000000000000000000e+01,2.000000000000000000e+00,-3.000000000000000000e+00,0.000000000000000000e+00,3.784179687500000000e-03,5.150756835937500000e-01,-1.010742187500000000e-01,8.511352539062500000e-01
-1.000000000000000000e+00,-1.000000000000000000e+00,-1.400000000000000000e+01,-1.200000000000000000e+01,3.000000000000000000e+00,0.000000000000000000e+00,-1.000000000000000000e+00,1.000000000000000000e+00,3.784179687500000000e-03,5.150756835937500000e-01,-1.010742187500000000e-01,8.511352539062500000e-01
1.000000000000000000e+00,0.000000000000000000e+00,-7.000000000000000000e+00,-3.200000000000000000e+01,-2.200000000000000000e+01,-6.000000000000000000e+00,1.000000000000000000e+00,-2.000000000000000000e+00,3.784179687500000000e-03,5.150756835937500000e-01,-1.010742187500000000e-01,8.511352539062500000e-01
-1.000000000000000000e+00,3.000000000000000000e+00,3.600000000000000000e+01,4.500000000000000000e+01,1.900000000000000000e+01,2.000000000000000000e+00,2.000000000000000000e+00,-1.000000000000000000e+00,2.868652343750000000e-03,5.158691406250000000e-01,-9.997558593750000000e-02,8.507690429687500000e-01
-2.000000000000000000e+00,-5.000000000000000000e+00,-4.700000000000000000e+01,-4.100000000000000000e+01,-3.400000000000000000e+01,-1.300000000000000000e+01,-4.000000000000000000e+00,-4.000000000000000000e+00,2.868652343750000000e-03,5.158691406250000000e-01,-9.997558593750000000e-02,8.507690429687500000e-01
-2.000000000000000000e+00,2.000000000000000000e+00,-3.000000000000000000e+00,2.300000000000000000e+01,6.000000000000000000e+00,5.000000000000000000e+00,-5.000000000000000000e+00,-3.000000000000000000e+00,2.868652343750000000e-03,5.158691406250000000e-01,-9.997558593750000000e-02,8.507690429687500000e-01
2.000000000000000000e+00,1.000000000000000000e+00,2.300000000000000000e+01,-5.000000000000000000e+00,-1.200000000000000000e+01,-7.000000000000000000e+00,-5.000000000000000000e+00,2.000000000000000000e+00,2.868652343750000000e-03,5.158691406250000000e-01,-9.997558593750000000e-02,8.507690429687500000e-01
0.000000000000000000e+00,-3.000000000000000000e+00,-3.800000000000000000e+01,-3.000000000000000000e+01,-9.000000000000000000e+00,2.000000000000000000e+00,0.000000000000000000e+00,0.000000000000000000e+00,1.647949218750000000e-03,5.164794921875000000e-01,-9.967041015625000000e-02,8.504028320312500000e-01
-4.000000000000000000e+00,-2.000000000000000000e+00,0.000000000000000000e+00,-2.000000000000000000e+00,-9.000000000000000000e+00,-5.000000000000000000e+00,1.000000000000000000e+00,-1.000000000000000000e+00,1.647949218750000000e-03,5.164794921875000000e-01,-9.967041015625000000e-02,8.504028320312500000e-01
3.000000000000000000e+00,2.000000000000000000e+00,-2.000000000000000000e+00,-1.400000000000000000e+01,0.000000000000000000e+00,-4.000000000000000000e+00,-1.000000000000000000e+01,-1.000000000000000000e+00,1.647949218750000000e-03,5.164794921875000000e-01,-9.967041015625000000e-02,8.504028320312500000e-01
-1.000000000000000000e+00,-3.000000000000000000e+00,1.200000000000000000e+01,2.700000000000000000e+01,1.500000000000000000e+01,9.000000000000000000e+00,6.000000000000000000e+00,0.000000000000000000e+00,1.647949218750000000e-03,5.164794921875000000e-01,-9.967041015625000000e-02,8.504028320312500000e-01
1.000000000000000000e+00,-1.000000000000000000e+00,5.000000000000000000e+00,8.000000000000000000e+00,1.000000000000000000e+00,3.000000000000000000e+00,1.000000000000000000e+00,-1.000000000000000000e+00,2.014160156250000000e-03,5.168457031250000000e-01,-1.002197265625000000e-01,8.501586914062500000e-01
-2.000000000000000000e+00,0.000000000000000000e+00,-3.000000000000000000e+00,-9.000000000000000000e+00,-1.900000000000000000e+01,-1.000000000000000000e+01,-5.000000000000000000e+00,-1.000000000000000000e+00,2.014160156250000000e-03,5.168457031250000000e-01,-1.002197265625000000e-01,8.501586914062500000e-01
-2.000000000000000000e+00,-2.000000000000000000e+00,-1.700000000000000000e+01,-2.000000000000000000e+00,2.700000000000000000e+01,7.000000000000000000e+00,-4.000000000000000000e+00,-1.000000000000000000e+00,2.014160156250000000e-03,5.168457031250000000e-01,-1.002197265625000000e-01,8.501586914062500000e-01
-6.000000000000000000e+00,-1.000000000000000000e+00,-1.200000000000000000e+01,-6.000000000000000000e+01,-4.700000000000000000e+01,-1.500000000000000000e+01,-3.000000000000000000e+00,-2.000000000000000000e+00,2.014160156250000000e-03,5.168457031250000000e-01,-1.002197265625000000e-01,8.501586914062500000e-01
2.000000000000000000e+00,0.000000000000000000e+00,3.700000000000000000e+01,8.300000000000000000e+01,6.600000000000000000e+01,1.500000000000000000e+01,2.000000000000000000e+00,5.000000000000000000e+00,3.479003906250000000e-03,5.170288085937500000e-01,-1.007690429687500000e-01,8.499755859375000000e-01
0.000000000000000000e+00,0.000000000000000000e+00,6.000000000000000000e+00,-1.000000000000000000e+01,-1.400000000000000000e+01,-8.000000000000000000e+00,-7.000000000000000000e+00,-2.000000000000000000e+00,3.479003906250000000e-03,5.170288085937500000e-01,-1.007690429687500000e-01,8.499755859375000000e-01
0.000000000000000000e+00,0.000000000000000000e+00,8.000000000000000000e+00,-1.400000000000000000e+01,2.000000000000000000e+00,-3.000000000000000000e+00,2.000000000000000000e+00,-2.000000000000000000e+00,3.479003906250000000e-03,5.170288085937500000e-01,-1.007690429687500000e-01,8.499755859375000000e-01
-1.000000000000000000e+00,-6.000000000000000000e+00,-3.800000000000000000e+01,-8.000000000000000000e+00,-2.000000000000000000e+00,2.000000000000000000e+00,1.000000000000000000e+00,-2.000000000000000000e+00,3.479003906250000000e-03,5.170288085937500000e-01,-1.007690429687500000e-01,8.499755859375000000e-01
-3.000000000000000000e+00,0.000000000000000000e+00,2.000000000000000000e+00,-2.200000000000000000e+01,-1.500000000000000000e+01,-6.000000000000000000e+00,2.000000000000000000e+00,-1.000000000000000000e+00,4.394531250000000000e-03,5.167236328125000000e-01,-1.010742187500000000e-01,8.500976562500000000e-01
-3.000000000000000000e+00,-6.000000000000000000e+00,-3.900000000000000000e+01,1.000000000000000000e+01,-1.300000000000000000e+01,-4.000000000000000000e+00,-5.000000000000000000e+00,-2.000000000000000000e+00,4.394531250000000000e-03,5.167236328125000000e-01,-1.010742187500000000e-01,8.500976562500000000e-01
2.000000000000000000e+00,1.000000000000000000e+00,9.000000000000000000e+00,-9.000000000000000000e+00,2.000000000000000000e+00,-1.500000000000000000e+01,-8.000000000000000000e+00,-2.000000000000000000e+00,4.394531250000000000e-03,5.167236328125000000e-01,-1.010742187500000000e-01,8.500976562500000000e-01
-4.000000000000000000e+00,-1.000000000000000000e+00,2.600000000000000000e+01,2.800000000000000000e+01,9.000000000000000000e+00,2.100000000000000000e+01,3.000000000000000000e+00,-1.000000000000000000e+00,4.394531250000000000e-03,5.167236328125000000e-01,-1.010742187500000000e-01,8.500976562500000000e-01
1.000000000000000000e+00,-2.000000000000000000e+00,-2.600000000000000000e+01,-2.800000000000000000e+01,-9.000000000000000000e+00,3.000000000000000000e+00,6.000000000000000000e+00,2.000000000000000000e+00,4.272460937500000000e-03,5.161743164062500000e-01,-1.013793945312500000e-01,8.504028320312500000e-01
-2.000000000000000000e+00,0.000000000000000000e+00,2.700000000000000000e+01,2.100000000000000000e+01,-3.000000000000000000e+00,-4.000000000000000000e+00,-2.000000000000000000e+01,-3.000000000000000000e+00,4.272460937500000000e-03,5.161743164062500000e-01,-1.013793945312500000e-01,8.504028320312500000e-01
-1.000000000000000000e+00,-3.000000000000000000e+00,-2.300000000000000000e+01,1.400000000000000000e+01,9.000000000000000000e+00,-4.000000000000000000e+00,3.000000000000000000e+01,0.000000000000000000e+00,4.272460937500000000e-03,5.161743164062500000e-01,-1.013793945312500000e-01,8.504028320312500000e-01
0.000000000000000000e+00,1.000000000000000000e+00,3.000000000000000000e+00,1.500000000000000000e+01,2.000000000000000000e+00,1.900000000000000000e+01,-3.900000000000000000e+01,5.000000000000000000e+00,4.272460937500000000e-03,5.161743164062500000e-01,-1.013793945312500000e-01,8.504028320312500000e-01
-3.000000000000000000e+00,-3.000000000000000000e+00,0.000000000000000000e+00,-2.800000000000000000e+01,-2.000000000000000000e+01,-9.000000000000000000e+00,3.400000000000000000e+01,-2.000000000000000000e+00,4.455566406250000000e-03,5.156250000000000000e-01,-1.024780273437500000e-01,8.506469726562500000e-01
1.000000000000000000e+00,4.000000000000000000e+00,8.000000000000000000e+00,4.000000000000000000e+00,-1.800000000000000000e+01,-4.000000000000000000e+00,-1.000000000000000000e+01,-1.000000000000000000e+00,4.455566406250000000e-03,5.156250000000000000e-01,-1.024780273437500000e-01,8.506469726562500000e-01
1.000000000000000000e+00,4.000000000000000000e+00,1.900000000000000000e+01,3.200000000000000000e+01,3.000000000000000000e+01,5.000000000000000000e+00,-3.000000000000000000e+00,0.000000000000000000e+00,4.455566406250000000e-03,5.156250000000000000e-01,-1.024780273437500000e-01,8.506469726562500000e-01
-4.000000000000000000e+00,-4.000000000000000000e+00,-1.700000000000000000e+01,5.000000000000000000e+00,1.000000000000000000e+00,-1.300000000000000000e+01,3.000000000000000000e+00,-4.000000000000000000e+00,4.455566406250000000e-03,5.156250000000000000e-01,-1.024780273437500000e-01,8.506469726562500000e-01
-2.000000000000000000e+00,-1.000000000000000000e+00,-5.000000000000000000e+00,-3.900000000000000000e+01,-3.300000000000000000e+01,-2.000000000000000000e+00,-1.100000000000000000e+01,-4.000000000000000000e+00,7.141113281250000000e-03,5.153198242187500000e-01,-1.060180664062500000e-01,8.503417968750000000e-01
1.000000000000000000e+00,3.000000000000000000e+00,2.600000000000000000e+01,8.000000000000000000e+00,-1.000000000000000000e+00,-2.000000000000000000e+00,4.000000000000000000e+00,-1.000000000000000000e+00,7.141113281250000000e-03,5.153198242187500000e-01,-1.060180664062500000e-01,8.503417968750000000e-01
-3.000000000000000000e+00,-1.100000000000000000e+01,-5.600000000000000000e+01,-1.600000000000000000e+01,8.000000000000000000e+00,5.000000000000000000e+00,-2.000000000000000000e+00,-3.000000000000000000e+00,7.141113281250000000e-03,5.153198242187500000e-01,-1.060180664062500000e-01,8.503417968750000000e-01
-2.000000000000000000e+00,-2.000000000000000000e+00,2.200000000000000000e+01,4.700000000000000000e+01,1.300000000000000000e+01,-7.000000000000000000e+00,3.000000000000000000e+00,-1.000000000000000000e+00,7.141113281250000000e-03,5.153198242187500000e-01,-1.060180664062500000e-01,8.503417968750000000e-01
1.000000000000000000e+00,-5.000000000000000000e+00,-3.100000000000000000e+01,-5.600000000000000000e+01,-1.900000000000000000e+01,-5.000000000000000000e+00,-1.300000000000000000e+01,-1.000000000000000000e+00,1.245117187500000000e-02,5.145874023437500000e-01,-1.105346679687500000e-01,8.501586914062500000e-01
-5.000000000000000000e+00,-1.000000000000000000e+00,1.400000000000000000e+01,-3.000000000000000000e+00,-9.000000000000000000e+00,-6.000000000000000000e+00,9.000000000000000000e+00,-4.000000000000000000e+00,1.245117187500000000e-02,5.145874023437500000e-01,-1.105346679687500000e-01,8.501586914062500000e-01
0.000000000000000000e+00,2.000000000000000000e+00,2.300000000000000000e+01,2.500000000000000000e+01,-1.100000000000000000e+01,3.000000000000000000e+00,-2.000000000000000000e+00,3.000000000000000000e+00,1.245117187500000000e-02,5.145874023437500000e-01,-1.105346679687500000e-01,8.501586914062500000e-01
4.000000000000000000e+00,4.000000000000000000e+00,8.000000000000000000e+00,-1.200000000000000000e+01,3.000000000000000000e+00,0.000000000000000000e+00,4.000000000000000000e+00,-1.000000000000000000e+00,1.245117187500000000e-02,5.145874023437500000e-01,-1.105346679687500000e-01,8.501586914062500000e-01
-5.000000000000000000e+00,-3.000000000000000000e+00,-1.700000000000000000e+01,9.000000000000000000e+00,5.000000000000000000e+00,-3.000000000000000000e+00,-5.000000000000000000e+00,-4.000000000000000000e+00,1.696777343750000000e-02,5.135498046875000000e-01,-1.131591796875000000e-01,8.503417968750000000e-01
-2.000000000000000000e+00,-3.000000000000000000e+00,5.000000000000000000e+00,1.000000000000000000e+00,1.600000000000000000e+01,5.000000000000000000e+00,-4.000000000000000000e+00,0.000000000000000000e+00,1.696777343750000000e-02,5.135498046875000000e-01,-1.131591796875000000e-01,8.503417968750000000e-01
3.000000000000000000e+00,0.000000000000000000e+00,8.000000000000000000e+00,-1.100000000000000000e+01,-1.500000000000000000e+01,-5.000000000000000000e+00,0.000000000000000000e+00,4.000000000000000000e+00,1.696777343750000000e-02,5.135498046875000000e-01,-1.131591796875000000e-01,8.503417968750000000e-01
-2.000000000000000000e+00,-4.000000000000000000e+00,-1.600000000000000000e+01,-7.000000000000000000e+00,8.000000000000000000e+00,4.000000000000000000e+00,1.500000000000000000e+01,0.000000000000000000e+00,1.696777343750000000e-02,5.135498046875000000e-01,-1.131591796875000000e-01,8.503417968750000000e-01
0.000000000000000000e+00,-1.000000000000000000e+00,1.400000000000000000e+01,-2.100000000000000000e+01,-2.700000000000000000e+01,-1.400000000000000000e+01,-6.000000000000000000e+00,-5.000000000000000000e+00,1.733398437500000000e-02,5.125732421875000000e-01,-1.124877929687500000e-01,8.510131835937500000e-01
1.000000000000000000e+00,0.000000000000000000e+00,2.400000000000000000e+01,7.300000000000000000e+01,5.900000000000000000e+01,2.600000000000000000e+01,6.000000000000000000e+00,4.000000000000000000e+00,1.733398437500000000e-02,5.125732421875000000e-01,-1.124877929687500000e-01,8.510131835937500000e-01
-5.000000000000000000e+00,-7.000000000000000000e+00,-3.900000000000000000e+01,-2.800000000000000000e+01,-1.400000000000000000e+01,1.200000000000000000e+01,2.000000000000000000e+00,-2.000000000000000000e+00,1.733398437500000000e-02,5.125732421875000000e-01,-1.124877929687500000e-01,8.510131835937500000e-01
-3.000000000000000000e+00,0.000000000000000000e+00,1.000000000000000000e+00,-3.900000000000000000e+01,-3.100000000000000000e+01,-2.200000000000000000e+01,-1.000000000000000000e+00,-5.000000000000000000e+00,1.733398437500000000e-02,5.125732421875000000e-01,-1.124877929687500000e-01,8.510131835937500000e-01
2.000000000000000000e+00,2.000000000000000000e+00,7.000000000000000000e+00,5.700000000000000000e+01,5.100000000000000000e+01,9.000000000000000000e+00,-3.000000000000000000e+00,-1.000000000000000000e+00,1.361083984375000000e-02,5.123901367187500000e-01,-1.104736328125000000e-01,8.515014648437500000e-01
3.000000000000000000e+00,3.000000000000000000e+00,-3.000000000000000000e+00,-2.300000000000000000e+01,-7.000000000000000000e+00,-7.000000000000000000e+00,0.000000000000000000e+00,0.000000000000000000e+00,1.361083984375000000e-02,5.123901367187500000e-01,-1.104736328125000000e-01,8.515014648437500000e-01
-2.000000000000000000e+00,0.000000000000000000e+00,1.400000000000000000e+01,3.000000000000000000e+00,-1.400000000000000000e+01,-8.000000000000000000e+00,-9.000000000000000000e+00,-4.000000000000000000e+00,1.361083984375000000e-02,5.123901367187500000e-01,-1.104736328125000000e-01,8.515014648437500000e-01
2.000000000000000000e+00,3.000000000000000000e+00,2.500000000000000000e+01,2.000000000000000000e+01,1.300000000000000000e+01,5.000000000000000000e+00,2.000000000000000000e+00,-1.000000000000000000e+00,1.361083984375000000e-02,5.123901367187500000e-01,-1.104736328125000000e-01,8.515014648437500000e-01
-3.000000000000000000e+00,-3.000000000000000000e+00,-2.900000000000000000e+01,-2.900000000000000000e+01,-1.700000000000000000e+01,-6.000000000000000000e+00,-8.000000000000000000e+00,-2.000000000000000000e+00,9.582519531250000000e-03,5.126953125000000000e-01,-1.099853515625000000e-01,8.513793945312500000e-01
-1.000000000000000000e+00,-2.000000000000000000e+00,5.000000000000000000e+00,-3.000000000000000000e+00,-1.500000000000000000e+01,-8.000000000000000000e+00,-1.000000000000000000e+00,0.000000000000000000e+00,9.582519531250000000e-03,5.126953125000000000e-01,-1.099853515625000000e-01,8.513793945312500000e-01
-3.000000000000000000e+00,-4.000000000000000000e+00,-2.700000000000000000e+01,2.400000000000000000e+01,1.400000000000000000e+01,7.000000000000000000e+00,2.000000000000000000e+00,-2.000000000000000000e+00,9.582519531250000000e-03,5.126953125000000000e-01,-1.099853515625000000e-01,8.513793945312500000e-01
5.000000000000000000e+00,6.000000000000000000e+00,1.700000000000000000e+01,-1.000000000000000000e+01,-2.000000000000000000e+00,2.000000000000000000e+00,4.000000000000000000e+00,3.000000000000000000e+00,9.582519531250000000e-03,5.126953125000000000e-01,-1.099853515625000000e-01,8.513793945312500000e-01
-5.000000000000000000e+00,-4.000000000000000000e+00,0.000000000000000000e+00,2.500000000000000000e+01,4.000000000000000000e+00,0.000000000000000000e+00,-7.000000000000000000e+00,-4.000000000000000000e+00,8.300781250000000000e-03,5.130004882812500000e-01,-1.121215820312500000e-01,8.509521484375000000e-01
2.000000000000000000e+00,3.000000000000000000e+00,-1.100000000000000000e+01,-3.700000000000000000e+01,-2.100000000000000000e+01,-7.000000000000000000e+00,3.000000000000000000e+00,4.000000000000000000e+00,8.300781250000000000e-03,5.130004882812500000e-01,-1.121215820312500000e-01,8.509521484375000000e-01
-1.000000000000000000e+00,0.000000000000000000e+00,-3.000000000000000000e+00,-1.800000000000000000e+01,-1.000000000000000000e+01,4.000000000000000000e+00,0.000000000000000000e+00,0.000000000000000000e+00,8.300781250000000000e-03,5.130004882812500000e-01,-1.121215820312500000e-01,8.509521484375000000e-01
0.000000000000000000e+00,1.000000000000000000e+00,2.000000000000000000e+01,1.100000000000000000e+01,-2.000000000000000000e+00,-1.200000000000000000e+01,1.000000000000000000e+00,0.000000000000000000e+00,8.300781250000000000e-03,5.130004882812500000e-01,-1.121215820312500000e-01,8.509521484375000000e-01
-4.000000000000000000e+00,-6.000000000000000000e+00,-3.000000000000000000e+01,-4.000000000000000000e+00,-2.000000000000000000e+00,1.800000000000000000e+01,8.000000000000000000e+00,-1.000000000000000000e+00,9.826660156250000000e-03,5.134277343750000000e-01,-1.151123046875000000e-01,8.502807617187500000e-01
-3.000000000000000000e+00,-1.000000000000000000e+00,6.000000000000000000e+00,-2.000000000000000000e+00,1.100000000000000000e+01,4.000000000000000000e+00,6.000000000000000000e+00,-1.000000000000000000e+00,9.826660156250000000e-03,5.134277343750000000e-01,-1.151123046875000000e-01,8.502807617187500000e-01
0.000000000000000000e+00,-1.000000000000000000e+00,1.800000000000000000e+01,-5.000000000000000000e+00,-1.100000000000000000e+01,-7.000000000000000000e+00,-2.000000000000000000e+00,0.000000000000000000e+00,9.826660156250000000e-03,5.134277343750000000e-01,-1.151123046875000000e-01,8.502807617187500000e-01
1.000000000000000000e+00,-1.000000000000000000e+00,-1.000000000000000000e+01,-1.200000000000000000e+01,1.200000000000000000e+01,1.000000000000000000e+00,-3.000000000000000000e+00,0.000000000000000000e+00,9.826660156250000000e-03,5.134277343750000000e-01,-1.151123046875000000e-01,8.502807617187500000e-01
1.000000000000000000e+00,3.000000000000000000e+00,3.700000000000000000e+01,-1.300000000000000000e+01,-2.300000000000000000e+01,-1.000000000000000000e+01,-2.000000000000000000e+00,0.000000000000000000e+00,1.049804687500000000e-02,5.138549804687500000e-01,-1.160888671875000000e-01,8.498535156250000000e-01
1.000000000000000000e+00,-2.000000000000000000e+00,-4.000000000000000000e+00,5.700000000000000000e+01,6.400000000000000000e+01,1.400000000000000000e+01,2.000000000000000000e+00,0.000000000000000000e+00,1.049804687500000000e-02,5.138549804687500000e-01,-1.160888671875000000e-01,8.498535156250000000e-01
-2.000000000000000000e+00,-3.000000000000000000e+00,-1.600000000000000000e+01,0.000000000000000000e+00,-1.200000000000000000e+01,-6.000000000000000000e+00,-7.000000000000000000e+00,-2.000000000000000000e+00,1.049804687500000000e-02,5.138549804687500000e-01,-1.160888671875000000e-01,8.498535156250000000e-01
-7.000000000000000000e+00,-8.000000000000000000e+00,-1.000000000000000000e+00,1.900000000000000000e+01,1.000000000000000000e+01,1.000000000000000000e+00,2.000000000000000000e+00,-3.000000000000000000e+00,1.049804687500000000e-02,5.138549804687500000e-01,-1.160888671875000000e-01,8.498535156250000000e-01
0.000000000000000000e+00,1.000000000000000000e+00,-4.000000000000000000e+00,-1.200000000000000000e+01,-1.000000000000000000e+00,-4.000000000000000000e+00,-3.000000000000000000e+00,2.000000000000000000e+00,8.544921875000000000e-03,5.144042968750000000e-01,-1.145019531250000000e-01,8.497924804687500000e-01
-5.000000000000000000e+00,-1.000000000000000000e+00,1.900000000000000000e+01,-4.200000000000000000e+01,-2.700000000000000000e+01,-9.000000000000000000e+00,-3.000000000000000000e+00,-5.000000000000000000e+00,8.544921875000000000e-03,5.144042968750000000e-01,-1.145019531250000000e-01,8.497924804687500000e-01
-2.000000000000000000e+00,3.000000000000000000e+00,2.000000000000000000e+01,1.800000000000000000e+01,1.000000000000000000e+01,2.000000000000000000e+00,-2.000000000000000000e+00,-1.000000000000000000e+00,8.544921875000000000e-03,5.144042968750000000e-01,-1.145019531250000000e-01,8.497924804687500000e-01
-1.000000000000000000e+00,0.000000000000000000e+00,-3.300000000000000000e+01,-4.000000000000000000e+00,-2.000000000000000000e+00,-1.000000000000000000e+00,-3.000000000000000000e+00,-3.000000000000000000e+00,8.544921875000000000e-03,5.144042968750000000e-01,-1.145019531250000000e-01,8.497924804687500000e-01
2.000000000000000000e+00,1.000000000000000000e+00,1.900000000000000000e+01,1.400000000000000000e+01,0.000000000000000000e+00,-8.000000000000000000e+00,-7.000000000000000000e+00,2.000000000000000000e+00,3.906250000000000000e-03,5.148315429687500000e-01,-1.118774414062500000e-01,8.499145507812500000e-01
1.000000000000000000e+00,-1.000000000000000000e+00,-1.500000000000000000e+01,-9.000000000000000000e+00,-7.000000000000000000e+00,1.000000000000000000e+00,0.000000000000000000e+00,0.000000000000000000e+00,3.906250000000000000e-03,5.148315429687500000e-01,-1.118774414062500000e-01,8.499145507812500000e-01
2.000000000000000000e+00,0.000000000000000000e+00,1.200000000000000000e+01,-7.000000000000000000e+00,-1.000000000000000000e+00,3.000000000000000000e+00,-1.000000000000000000e+00,1.000000000000000000e+00,3.906250000000000000e-03,5.148315429687500000e-01,-1.118774414062500000e-01,8.499145507812500000e-01
-1.000000000000000000e+00,1.000000000000000000e+00,6.000000000000000000e+00,-4.800000000000000000e+01,-2.300000000000000000e+01,3.000000000000000000e+00,1.400000000000000000e+01,1.000000000000000000e+00,3.906250000000000000e-03,5.148315429687500000e-01,-1.118774414062500000e-01,8.499145507812500000e-01
-4.000000000000000000e+00,-6.000000000000000000e+00,-1.600000000000000000e+01,6.200000000000000000e+01,2.400000000000000000e+01,-6.000000000000000000e+00,-7.000000000000000000e+00,-1.000000000000000000e+00,-3.662109375000000000e-04,5.149536132812500000e-01,-1.101074218750000000e-01,8.500366210937500000e-01
2.000000000000000000e+00,2.000000000000000000e+00,-1.800000000000000000e+01,-1.200000000000000000e+01,-1.100000000000000000e+01,1.400000000000000000e+01,1.200000000000000000e+01,-2.000000000000000000e+00,-3.662109375000000000e-04,5.149536132812500000e-01,-1.101074218750000000e-01,8.500366210937500000e-01
-1.000000000000000000e+00,3.000000000000000000e+00,1.700000000000000000e+01,-1.700000000000000000e+01,-5.000000000000000000e+00,-7.000000000000000000e+00,-6.000000000000000000e+00,-5.000000000000000000e+00,-3.662109375000000000e-04,5.149536132812500000e-01,-1.101074218750000000e-01,8.500366210937500000e-01
1.000000000000000000e+00,-2.000000000000000000e+00,-1.400000000000000000e+01,-1.900000000000000000e+01,-4.000000000000000000e+00,-2.000000000000000000e+00,-1.000000000000000000e+00,2.000000000000000000e+00,-3.662109375000000000e-04,5.149536132812500000e-01,-1.101074218750000000e-01,8.500366210937500000e-01
1.000000000000000000e+00,-1.000000000000000000e+00,1.000000000000000000e+01,2.200000000000000000e+01,2.100000000000000000e+01,2.000000000000000000e+00,-2.000000000000000000e+00,1.000000000000000000e+00,-2.014160156250000000e-03,5.151977539062500000e-01,-1.099243164062500000e-01,8.499145507812500000e-01
-4.000000000000000000e+00,-2.000000000000000000e+00,-1.000000000000000000e+00,-1.500000000000000000e+01,-1.700000000000000000e+01,-1.100000000000000000e+01,-7.000000000000000000e+00,0.000000000000000000e+00,-2.014160156250000000e-03,5.151977539062500000e-01,-1.099243164062500000e-01,8.499145507812500000e-01
1.000000000000000000e+00,-1.000000000000000000e+00,1.000000000000000000e+01,2.200000000000000000e+01,2.100000000000000000e+01,2.000000000000000000e+00,-2.000000000000000000e+00,1.000000000000000000e+00,-2.014160156250000000e-03,5.151977539062500000e-01,-1.099243164062500000e-01,8.499145507812500000e-01
-4.000000000000000000e+00,-2.000000000000000000e+00,-1.000000000000000000e+00,-1.500000000000000000e+01,-1.700000000000000000e+01,-1.100000000000000000e+01,-7.000000000000000000e+00,0.000000000000000000e+00,-2.014160156250000000e-03,5.151977539062500000e-01,-1.099243164062500000e-01,8.499145507812500000e-01
-2.000000000000000000e+00,-3.000000000000000000e+00,-2.000000000000000000e+01,-1.600000000000000000e+01,-9.000000000000000000e+00,2.000000000000000000e+00,0.000000000000000000e+00,-1.000000000000000000e+00,-2.014160156250000000e-03,5.151977539062500000e-01,-1.099243164062500000e-01,8.499145507812500000e-01
-3.000000000000000000e+00,2.000000000000000000e+00,3.000000000000000000e+00,3.100000000000000000e+01,1.600000000000000000e+01,3.000000000000000000e+00,-4.000000000000000000e+00,-2.000000000000000000e+00,-2.014160156250000000e-03,5.151977539062500000e-01,-1.099243164062500000e-01,8.499145507812500000e-01
0.000000000000000000e+00,-1.000000000000000000e+00,1.400000000000000000e+01,-2.100000000000000000e+01,-2.700000000000000000e+01,-1.400000000000000000e+01,-6.000000000000000000e+00,-5.000000000000000000e+00,1.733398437500000000e-02,5.125732421875000000e-01,-1.124877929687500000e-01,8.510131835937500000e-01
1.000000000000000000e+00,0.000000000000000000e+00,2.400000000000000000e+01,7.300000000000000000e+01,5.900000000000000000e+01,2.600000000000000000e+01,6.000000000000000000e+00,4.000000000000000000e+00,1.733398437500000000e-02,5.125732421875000000e-01,-1.124877929687500000e-01,8.510131835937500000e-01
-5.000000000000000000e+00,-7.000000000000000000e+00,-3.900000000000000000e+01,-2.800000000000000000e+01,-1.400000000000000000e+01,1.200000000000000000e+01,2.000000000000000000e+00,-2.000000000000000000e+00,1.733398437500000000e-02,5.125732421875000000e-01,-1.124877929687500000e-01,8.510131835937500000e-01
-3.000000000000000000e+00,0.000000000000000000e+00,1.000000000000000000e+00,-3.900000000000000000e+01,-3.100000000000000000e+01,-2.200000000000000000e+01,-1.000000000000000000e+00,-5.000000000000000000e+00,1.733398437500000000e-02,5.125732421875000000e-01,-1.124877929687500000e-01,8.510131835937500000e-01
1.000000000000000000e+00,-1.000000000000000000e+00,6.000000000000000000e+00,-5.000000000000000000e+01,-2.700000000000000000e+01,-6.000000000000000000e+00,0.000000000000000000e+00,-2.000000000000000000e+00,1.733398437500000000e-02,5.125732421875000000e-01,-1.124877929687500000e-01,8.510131835937500000e-01
2.000000000000000000e+00,-3.000000000000000000e+00,-2.100000000000000000e+01,4.400000000000000000e+01,4.000000000000000000e+00,-5.000000000000000000e+00,1.000000000000000000e+00,-1.000000000000000000e+00,1.733398437500000000e-02,5.125732421875000000e-01,-1.124877929687500000e-01,8.510131835937500000e-01
1.000000000000000000e+00,3.000000000000000000e+00,2.200000000000000000e+01,-1.200000000000000000e+01,1.500000000000000000e+01,9.000000000000000000e+00,7.000000000000000000e+00,2.000000000000000000e+00,1.733398437500000000e-02,5.125732421875000000e-01,-1.124877929687500000e-01,8.510131835937500000e-01
-4.000000000000000000e+00,-4.000000000000000000e+00,-9.000000000000000000e+00,-6.000000000000000000e+00,-1.100000000000000000e+01,-1.100000000000000000e+01,-9.000000000000000000e+00,-3.000000000000000000e+00,1.733398437500000000e-02,5.125732421875000000e-01,-1.124877929687500000e-01,8.510131835937500000e-01
-1.000000000000000000e+00,2.000000000000000000e+00,6.000000000000000000e+00,5.000000000000000000e+00,1.000000000000000000e+00,0.000000000000000000e+00,-3.000000000000000000e+00,0.000000000000000000e+00,4.272460937500000000e-04,5.150756835937500000e-01,-1.113281250000000000e-01,8.498535156250000000e-01
0.000000000000000000e+00,4.000000000000000000e+00,-3.000000000000000000e+00,-2.200000000000000000e+01,-9.000000000000000000e+00,-5.000000000000000000e+00,-7.000000000000000000e+00,-1.000000000000000000e+00,4.272460937500000000e-04,5.150756835937500000e-01,-1.113281250000000000e-01,8.498535156250000000e-01
-5.000000000000000000e+00,-6.000000000000000000e+00,-8.000000000000000000e+00,-1.100000000000000000e+01,-1.100000000000000000e+01,-9.000000000000000000e+00,-5.000000000000000000e+00,-4.000000000000000000e+00,4.272460937500000000e-04,5.150756835937500000e-01,-1.113281250000000000e-01,8.498535156250000000e-01
3.000000000000000000e+00,2.000000000000000000e+00,1.300000000000000000e+01,1.300000000000000000e+01,4.000000000000000000e+00,1.000000000000000000e+01,1.100000000000000000e+01,2.000000000000000000e+00,4.272460937500000000e-04,5.150756835937500000e-01,-1.113281250000000000e-01,8.498535156250000000e-01
-2.000000000000000000e+00,-1.000000000000000000e+00,-1.800000000000000000e+01,8.000000000000000000e+00,3.000000000000000000e+00,5.000000000000000000e+00,-3.000000000000000000e+00,0.000000000000000000e+00,1.159667968750000000e-03,5.146484375000000000e-01,-1.112670898437500000e-01,8.500976562500000000e-01
-1.000000000000000000e+00,-9.000000000000000000e+00,-2.700000000000000000e+01,-1.900000000000000000e+01,-3.000000000000000000e+00,1.000000000000000000e+00,1.200000000000000000e+01,2.000000000000000000e+00,1.159667968750000000e-03,5.146484375000000000e-01,-1.112670898437500000e-01,8.500976562500000000e-01
-2.000000000000000000e+00,0.000000000000000000e+00,1.000000000000000000e+00,-3.000000000000000000e+00,-5.000000000000000000e+00,-1.500000000000000000e+01,-1.400000000000000000e+01,-4.000000000000000000e+00,1.159667968750000000e-03,5.146484375000000000e-01,-1.112670898437500000e-01,8.500976562500000000e-01
2.000000000000000000e+00,0.000000000000000000e+00,0.000000000000000000e+00,6.000000000000000000e+00,-4.000000000000000000e+00,4.000000000000000000e+00,-4.000000000000000000e+00,-1.000000000000000000e+00,1.159667968750000000e-03,5.146484375000000000e-01,-1.112670898437500000e-01,8.500976562500000000e-01
-1.000000000000000000e+00,1.000000000000000000e+00,1.200000000000000000e+01,1.000000000000000000e+00,2.000000000000000000e+00,1.000000000000000000e+00,-4.000000000000000000e+00,-3.000000000000000000e+00,1.342773437500000000e-03,5.142822265625000000e-01,-1.112060546875000000e-01,8.503417968750000000e-01
-2.000000000000000000e+00,0.000000000000000000e+00,-3.000000000000000000e+00,1.000000000000000000e+01,-6.000000000000000000e+00,-8.000000000000000000e+00,-1.100000000000000000e+01,-1.000000000000000000e+00,1.342773437500000000e-03,5.142822265625000000e-01,-1.112060546875000000e-01,8.503417968750000000e-01
2.000000000000000000e+00,1.000000000000000000e+00,3.700000000000000000e+01,3.100000000000000000e+01,3.600000000000000000e+01,1.300000000000000000e+01,7.000000000000000000e+00,6.000000000000000000e+00,1.342773437500000000e-03,5.142822265625000000e-01,-1.112060546875000000e-01,8.503417968750000000e-01
-4.000000000000000000e+00,-8.000000000000000000e+00,-3.000000000000000000e+01,-1.200000000000000000e+01,-7.000000000000000000e+00,-5.000000000000000000e+00,-3.000000000000000000e+00,-4.000000000000000000e+00,1.342773437500000000e-03,5.142822265625000000e-01,-1.112060546875000000e-01,8.503417968750000000e-01
-2.000000000000000000e+00,-1.000000000000000000e+00,1.700000000000000000e+01,-8.000000000000000000e+00,2.000000000000000000e+00,-1.000000000000000000e+00,-3.000000000000000000e+00,-4.000000000000000000e+00,1.892089843750000000e-03,5.141601562500000000e-01,-1.112060546875000000e-01,8.504028320312500000e-01
-4.000000000000000000e+00,-1.000000000000000000e+00,-1.600000000000000000e+01,-4.000000000000000000e+01,-1.300000000000000000e+01,-9.000000000000000000e+00,-5.000000000000000000e+00,-5.000000000000000000e+00,1.892089843750000000e-03,5.141601562500000000e-01,-1.112060546875000000e-01,8.504028320312500000e-01
-4.000000000000000000e+00,-4.000000000000000000e+00,-1.200000000000000000e+01,4.300000000000000000e+01,8.000000000000000000e+00,3.000000000000000000e+00,1.000000000000000000e+00,-3.000000000000000000e+00,1.892089843750000000e-03,5.141601562500000000e-01,-1.112060546875000000e-01,8.504028320312500000e-01
4.000000000000000000e+00,1.000000000000000000e+00,6.000000000000000000e+00,1.100000000000000000e+01,4.000000000000000000e+00,0.000000000000000000e+00,1.000000000000000000e+00,3.000000000000000000e+00,1.892089843750000000e-03,5.141601562500000000e-01,-1.112060546875000000e-01,8.504028320312500000e-01
-2.000000000000000000e+00,-2.000000000000000000e+00,1.100000000000000000e+01,-1.000000000000000000e+01,-6.000000000000000000e+00,1.000000000000000000e+00,2.000000000000000000e+00,0.000000000000000000e+00,2.624511718750000000e-03,5.137329101562500000e-01,-1.111450195312500000e-01,8.507080078125000000e-01
-3.000000000000000000e+00,-3.000000000000000000e+00,-2.100000000000000000e+01,-1.000000000000000000e+01,8.000000000000000000e+00,1.000000000000000000e+00,-3.000000000000000000e+00,1.000000000000000000e+00,2.624511718750000000e-03,5.137329101562500000e-01,-1.111450195312500000e-01,8.507080078125000000e-01
-2.000000000000000000e+00,0.000000000000000000e+00,2.500000000000000000e+01,-1.700000000000000000e+01,-2.200000000000000000e+01,-3.000000000000000000e+00,1.000000000000000000e+00,0.000000000000000000e+00,2.624511718750000000e-03,5.137329101562500000e-01,-1.111450195312500000e-01,8.507080078125000000e-01
-5.000000000000000000e+00,2.000000000000000000e+00,1.200000000000000000e+01,1.000000000000000000e+01,5.000000000000000000e+00,-9.000000000000000000e+00,-8.000000000000000000e+00,-4.000000000000000000e+00,2.624511718750000000e-03,5.137329101562500000e-01,-1.111450195312500000e-01,8.507080078125000000e-01
-2.000000000000000000e+00,-5.000000000000000000e+00,-2.800000000000000000e+01,-1.000000000000000000e+00,1.000000000000000000e+00,1.000000000000000000e+00,-7.000000000000000000e+00,-1.000000000000000000e+00,2.014160156250000000e-03,5.131835937500000000e-01,-1.108398437500000000e-01,8.510742187500000000e-01
0.000000000000000000e+00,-1.000000000000000000e+00,5.000000000000000000e+00,-3.400000000000000000e+01,-1.500000000000000000e+01,-4.000000000000000000e+00,-6.000000000000000000e+00,-1.000000000000000000e+00,2.014160156250000000e-03,5.131835937500000000e-01,-1.108398437500000000e-01,8.510742187500000000e-01
0.000000000000000000e+00,-4.000000000000000000e+00,-2.000000000000000000e+01,1.000000000000000000e+01,0.000000000000000000e+00,3.000000000000000000e+00,1.800000000000000000e+01,0.000000000000000000e+00,2.014160156250000000e-03,5.131835937500000000e-01,-1.108398437500000000e-01,8.510742187500000000e-01
-1.000000000000000000e+00,3.000000000000000000e+00,1.900000000000000000e+01,2.500000000000000000e+01,4.000000000000000000e+00,9.000000000000000000e+00,-1.000000000000000000e+00,-2.000000000000000000e+00,2.014160156250000000e-03,5.131835937500000000e-01,-1.108398437500000000e-01,8.510742187500000000e-01
-2.000000000000000000e+00,-1.000000000000000000e+00,9.000000000000000000e+00,-1.100000000000000000e+01,-8.000000000000000000e+00,-1.100000000000000000e+01,-4.000000000000000000e+00,-2.000000000000000000e+00,1.037597656250000000e-03,5.128784179687500000e-01,-1.104125976562500000e-01,8.513183593750000000e-01
-1.000000000000000000e+00,-1.000000000000000000e+00,0.000000000000000000e+00,1.800000000000000000e+01,4.000000000000000000e+00,1.000000000000000000e+00,-7.000000000000000000e+00,0.000000000000000000e+00,1.037597656250000000e-03,5.128784179687500000e-01,-1.104125976562500000e-01,8.513183593750000000e-01
2.000000000000000000e+00,-2.000000000000000000e+00,-6.000000000000000000e+00,-4.800000000000000000e+01,-1.100000000000000000e+01,-6.000000000000000000e+00,-3.000000000000000000e+00,1.000000000000000000e+00,1.037597656250000000e-03,5.128784179687500000e-01,-1.104125976562500000e-01,8.513183593750000000e-01
-2.000000000000000000e+00,-3.000000000000000000e+00,1.000000000000000000e+01,1.900000000000000000e+01,-1.000000000000000000e+00,-8.000000000000000000e+00,-4.000000000000000000e+00,-1.000000000000000000e+00,1.037597656250000000e-03,5.128784179687500000e-01,-1.104125976562500000e-01,8.513183593750000000e-01
1.000000000000000000e+00,2.000000000000000000e+00,-9.000000000000000000e+00,-6.000000000000000000e+00,9.000000000000000000e+00,6.000000000000000000e+00,4.000000000000000000e+00,-3.000000000000000000e+00,6.103515625000000000e-05,5.128173828125000000e-01,-1.103515625000000000e-01,8.513183593750000000e-01
-1.000000000000000000e+00,1.000000000000000000e+00,1.800000000000000000e+01,1.000000000000000000e+00,3.000000000000000000e+00,1.000000000000000000e+00,-1.000000000000000000e+00,-1.000000000000000000e+00,6.103515625000000000e-05,5.128173828125000000e-01,-1.103515625000000000e-01,8.513183593750000000e-01
-1.000000000000000000e+00,-1.000000000000000000e+00,6.000000000000000000e+00,3.100000000000000000e+01,1.000000000000000000e+00,0.000000000000000000e+00,-3.000000000000000000e+00,-1.000000000000000000e+00,6.103515625000000000e-05,5.128173828125000000e-01,-1.103515625000000000e-01,8.513183593750000000e-01
-4.000000000000000000e+00,-2.000000000000000000e+00,-1.000000000000000000e+01,-1.300000000000000000e+01,-8.000000000000000000e+00,0.000000000000000000e+00,0.000000000000000000e+00,-1.000000000000000000e+00,6.103515625000000000e-05,5.128173828125000000e-01,-1.103515625000000000e-01,8.513183593750000000e-01
-2.000000000000000000e+00,-1.000000000000000000e+00,0.000000000000000000e+00,-2.300000000000000000e+01,-2.700000000000000000e+01,-5.000000000000000000e+00,-3.000000000000000000e+00,-2.000000000000000000e+00,1.220703125000000000e-04,5.128784179687500000e-01,-1.107788085937500000e-01,8.512573242187500000e-01
1.000000000000000000e+00,3.000000000000000000e+00,4.000000000000000000e+01,3.200000000000000000e+01,2.000000000000000000e+01,4.000000000000000000e+00,5.000000000000000000e+00,2.000000000000000000e+00,1.220703125000000000e-04,5.128784179687500000e-01,-1.107788085937500000e-01,8.512573242187500000e-01
-1.000000000000000000e+00,0.000000000000000000e+00,-2.700000000000000000e+01,-1.700000000000000000e+01,-8.000000000000000000e+00,-4.000000000000000000e+00,-4.000000000000000000e+00,-1.000000000000000000e+00,1.220703125000000000e-04,5.128784179687500000e-01,-1.107788085937500000e-01,8.512573242187500000e-01
0.000000000000000000e+00,0.000000000000000000e+00,-8.000000000000000000e+00,-6.000000000000000000e+00,-4.000000000000000000e+00,1.000000000000000000e+00,-1.000000000000000000e+00,1.000000000000000000e+00,1.220703125000000000e-04,5.128784179687500000e-01,-1.107788085937500000e-01,8.512573242187500000e-01
-2.000000000000000000e+00,-2.000000000000000000e+00,-7.000000000000000000e+00,5.000000000000000000e+00,-2.000000000000000000e+00,-1.000000000000000000e+00,1.000000000000000000e+00,-1.000000000000000000e+00,9.155273437500000000e-04,5.127563476562500000e-01,-1.112670898437500000e-01,8.512573242187500000e-01
-4.000000000000000000e+00,-7.000000000000000000e+00,-4.000000000000000000e+00,-1.000000000000000000e+01,1.000000000000000000e+00,0.000000000000000000e+00,5.000000000000000000e+00,-3.000000000000000000e+00,9.155273437500000000e-04,5.127563476562500000e-01,-1.112670898437500000e-01,8.512573242187500000e-01
0.000000000000000000e+00,3.000000000000000000e+00,1.000000000000000000e+01,6.000000000000000000e+00,-3.000000000000000000e+00,-4.000000000000000000e+00,-1.300000000000000000e+01,-3.000000000000000000e+00,9.155273437500000000e-04,5.127563476562500000e-01,-1.112670898437500000e-01,8.512573242187500000e-01
1.000000000000000000e+00,-1.000000000000000000e+00,-6.000000000000000000e+00,-1.000000000000000000e+01,5.000000000000000000e+00,1.400000000000000000e+01,1.100000000000000000e+01,2.000000000000000000e+00,9.155273437500000000e-04,5.127563476562500000e-01,-1.112670898437500000e-01,8.512573242187500000e-01
0.000000000000000000e+00,-3.000000000000000000e+00,-3.600000000000000000e+01,7.000000000000000000e+00,1.100000000000000000e+01,1.000000000000000000e+00,8.000000000000000000e+00,-1.000000000000000000e+00,9.155273437500000000e-04,5.127563476562500000e-01,-1.108398437500000000e-01,8.513183593750000000e-01
-1.000000000000000000e+00,1.000000000000000000e+00,0.000000000000000000e+00,-3.000000000000000000e+00,-7.000000000000000000e+00,6.000000000000000000e+00,7.000000000000000000e+00,-1.000000000000000000e+00,9.155273437500000000e-04,5.127563476562500000e-01,-1.108398437500000000e-01,8.513183593750000000e-01
-4.000000000000000000e+00,-1.000000000000000000e+00,-9.000000000000000000e+00,-4.400000000000000000e+01,-4.000000000000000000e+01,-1.400000000000000000e+01,-1.000000000000000000e+00,-1.000000000000000000e+00,9.155273437500000000e-04,5.127563476562500000e-01,-1.108398437500000000e-01,8.513183593750000000e-01
3.000000000000000000e+00,4.000000000000000000e+00,1.700000000000000000e+01,5.100000000000000000e+01,4.500000000000000000e+01,3.000000000000000000e+00,-4.000000000000000000e+00,0.000000000000000000e+00,9.155273437500000000e-04,5.127563476562500000e-01,-1.108398437500000000e-01,8.513183593750000000e-01
-4.000000000000000000e+00,-6.000000000000000000e+00,-2.000000000000000000e+00,1.000000000000000000e+01,1.300000000000000000e+01,0.000000000000000000e+00,-1.000000000000000000e+00,-2.000000000000000000e+00,6.103515625000000000e-05,5.127563476562500000e-01,-1.098632812500000000e-01,8.514404296875000000e-01
-1.000000000000000000e+00,0.000000000000000000e+00,-4.000000000000000000e+00,-1.300000000000000000e+01,-4.000000000000000000e+00,-4.000000000000000000e+00,-5.000000000000000000e+00,-2.000000000000000000e+00,6.103515625000000000e-05,5.127563476562500000e-01,-1.098632812500000000e-01,8.514404296875000000e-01
-2.000000000000000000e+00,-2.000000000000000000e+00,-1.300000000000000000e+01,1.500000000000000000e+01,-1.400000000000000000e+01,-3.000000000000000000e+00,-7.000000000000000000e+00,-4.000000000000000000e+00,6.103515625000000000e-05,5.127563476562500000e-01,-1.098632812500000000e-01,8.514404296875000000e-01
-2.000000000000000000e+00,-2.000000000000000000e+00,-1.600000000000000000e+01,-1.400000000000000000e+01,-1.300000000000000000e+01,-7.000000000000000000e+00,-3.000000000000000000e+00,-2.000000000000000000e+00,6.103515625000000000e-05,5.127563476562500000e-01,-1.098632812500000000e-01,8.514404296875000000e-01
3.000000000000000000e+00,3.000000000000000000e+00,1.600000000000000000e+01,4.000000000000000000e+00,0.000000000000000000e+00,2.000000000000000000e+00,5.000000000000000000e+00,4.000000000000000000e+00,-1.220703125000000000e-03,5.130004882812500000e-01,-1.090087890625000000e-01,8.513793945312500000e-01
-5.000000000000000000e+00,-3.000000000000000000e+00,-2.100000000000000000e+01,-5.000000000000000000e+00,1.000000000000000000e+00,-4.000000000000000000e+00,-4.000000000000000000e+00,0.000000000000000000e+00,-1.220703125000000000e-03,5.130004882812500000e-01,-1.090087890625000000e-01,8.513793945312500000e-01
0.000000000000000000e+00,2.000000000000000000e+00,-2.000000000000000000e+00,-1.200000000000000000e+01,2.000000000000000000e+00,0.000000000000000000e+00,1.000000000000000000e+00,0.000000000000000000e+00,-1.220703125000000000e-03,5.130004882812500000e-01,-1.090087890625000000e-01,8.513793945312500000e-01
-2.000000000000000000e+00,-2.000000000000000000e+00,0.000000000000000000e+00,-6.000000000000000000e+00,-9.000000000000000000e+00,-4.000000000000000000e+00,0.000000000000000000e+00,-3.000000000000000000e+00,-1.220703125000000000e-03,5.130004882812500000e-01,-1.090087890625000000e-01,8.513793945312500000e-01
2.000000000000000000e+00,2.000000000000000000e+00,-5.000000000000000000e+00,1.000000000000000000e+00,2.000000000000000000e+00,0.000000000000000000e+00,-1.000000000000000000e+00,0.000000000000000000e+00,-2.136230468750000000e-03,5.132446289062500000e-01,-1.087646484375000000e-01,8.512573242187500000e-01
-3.000000000000000000e+00,0.000000000000000000e+00,2.000000000000000000e+00,-1.000000000000000000e+01,-1.400000000000000000e+01,-7.000000000000000000e+00,-6.000000000000000000e+00,-2.000000000000000000e+00,-2.136230468750000000e-03,5.132446289062500000e-01,-1.087646484375000000e-01,8.512573242187500000e-01
-2.000000000000000000e+00,-2.000000000000000000e+00,-4.000000000000000000e+00,1.000000000000000000e+01,1.300000000000000000e+01,2.000000000000000000e+00,-1.000000000000000000e+00,-2.000000000000000000e+00,-2.136230468750000000e-03,5.132446289062500000e-01,-1.087646484375000000e-01,8.512573242187500000e-01
-2.000000000000000000e+00,-2.000000000000000000e+00,-5.000000000000000000e+00,-1.400000000000000000e+01,-1.300000000000000000e+01,-2.000000000000000000e+00,-3.000000000000000000e+00,-2.000000000000000000e+00,-2.136230468750000000e-03,5.132446289062500000e-01,-1.087646484375000000e-01,8.512573242187500000e-01
2.000000000000000000e+00,2.000000000000000000e+00,1.700000000000000000e+01,-3.000000000000000000e+00,0.000000000000000000e+00,1.000000000000000000e+00,2.000000000000000000e+00,5.000000000000000000e+00,-2.014160156250000000e-03,5.136108398437500000e-01,-1.090087890625000000e-01,8.510131835937500000e-01
1.000000000000000000e+00,-4.000000000000000000e+00,-1.000000000000000000e+01,0.000000000000000000e+00,-1.000000000000000000e+00,1.000000000000000000e+00,2.000000000000000000e+00,2.000000000000000000e+00,-2.014160156250000000e-03,5.136108398437500000e-01,-1.090087890625000000e-01,8.510131835937500000e-01
1.000000000000000000e+00,0.000000000000000000e+00,-1.000000000000000000e+00,-7.000000000000000000e+00,1.600000000000000000e+01,4.000000000000000000e+00,1.000000000000000000e+00,-1.000000000000000000e+00,-2.014160156250000000e-03,5.136108398437500000e-01,-1.090087890625000000e-01,8.510131835937500000e-01
-1.000000000000000000e+00,-4.000000000000000000e+00,-5.000000000000000000e+00,1.700000000000000000e+01,3.000000000000000000e+00,-5.000000000000000000e+00,-4.000000000000000000e+00,-2.000000000000000000e+00,-2.014160156250000000e-03,5.136108398437500000e-01,-1.090087890625000000e-01,8.510131835937500000e-01
-2.000000000000000000e+00,2.000000000000000000e+00,1.500000000000000000e+01,-1.000000000000000000e+01,-1.000000000000000000e+01,-2.000000000000000000e+00,-2.000000000000000000e+00,-2.000000000000000000e+00,-1.281738281250000000e-03,5.140991210937500000e-01,-1.093750000000000000e-01,8.507080078125000000e-01
1.000000000000000000e+00,1.000000000000000000e+00,-8.000000000000000000e+00,-4.000000000000000000e+00,-5.000000000000000000e+00,-1.000000000000000000e+00,3.000000000000000000e+00,-1.000000000000000000e+00,-1.281738281250000000e-03,5.140991210937500000e-01,-1.093750000000000000e-01,8.507080078125000000e-01
-1.000000000000000000e+00,-1.000000000000000000e+00,1.400000000000000000e+01,1.700000000000000000e+01,2.300000000000000000e+01,7.000000000000000000e+00,0.000000000000000000e+00,1.000000000000000000e+00,-1.281738281250000000e-03,5.140991210937500000e-01,-1.093750000000000000e-01,8.507080078125000000e-01
-2.000000000000000000e+00,-3.000000000000000000e+00,5.000000000000000000e+00,4.000000000000000000e+00,2.000000000000000000e+00,-2.000000000000000000e+00,-3.000000000000000000e+00,0.000000000000000000e+00,-1.281738281250000000e-03,5.140991210937500000e-01,-1.093750000000000000e-01,8.507080078125000000e-01
-2.000000000000000000e+00,-2.000000000000000000e+00,-3.000000000000000000e+01,-2.000000000000000000e+00,-3.000000000000000000e+00,-1.000000000000000000e+00,-2.000000000000000000e+00,-2.000000000000000000e+00,-1.342773437500000000e-03,5.146484375000000000e-01,-1.091918945312500000e-01,8.504028320312500000e-01
-2.000000000000000000e+00,-1.000000000000000000e+00,5.700000000000000000e+01,1.500000000000000000e+01,-5.000000000000000000e+00,-1.000000000000000000e+00,-1.000000000000000000e+00,-1.000000000000000000e+00,-1.342773437500000000e-03,5.146484375000000000e-01,-1.091918945312500000e-01,8.504028320312500000e-01
-1.000000000000000000e+00,-1.000000000000000000e+00,1.000000000000000000e+00,-1.600000000000000000e+01,1.000000000000000000e+00,-3.000000000000000000e+00,-2.000000000000000000e+00,-2.000000000000000000e+00,-1.342773437500000000e-03,5.146484375000000000e-01,-1.091918945312500000e-01,8.504028320312500000e-01
-1.000000000000000000e+00,2.000000000000000000e+00,0.000000000000000000e+00,-1.000000000000000000e+00,0.000000000000000000e+00,0.000000000000000000e+00,-4.000000000000000000e+00,0.000000000000000000e+00,-1.342773437500000000e-03,5.146484375000000000e-01,-1.091918945312500000e-01,8.504028320312500000e-01
-1.000000000000000000e+00,-2.000000000000000000e+00,-6.000000000000000000e+00,5.000000000000000000e+00,-2.000000000000000000e+00,1.000000000000000000e+00,0.000000000000000000e+00,-1.000000000000000000e+00,-2.380371093750000000e-03,5.148315429687500000e-01,-1.085205078125000000e-01,8.503417968750000000e-01
1.000000000000000000e+00,-3.000000000000000000e+00,-2.200000000000000000e+01,-1.000000000000000000e+01,0.000000000000000000e+00,-3.000000000000000000e+00,0.000000000000000000e+00,1.000000000000000000e+00,-2.380371093750000000e-03,5.148315429687500000e-01,-1.085205078125000000e-01,8.503417968750000000e-01
-1.000000000000000000e+00,-2.000000000000000000e+00,9.000000000000000000e+00,1.100000000000000000e+01,-1.400000000000000000e+01,4.000000000000000000e+00,7.000000000000000000e+00,2.000000000000000000e+00,-2.380371093750000000e-03,5.148315429687500000e-01,-1.085205078125000000e-01,8.503417968750000000e-01
1.000000000000000000e+00,0.000000000000000000e+00,9.000000000000000000e+00,-1.500000000000000000e+01,2.000000000000000000e+00,-4.000000000000000000e+00,-2.000000000000000000e+00,-1.000000000000000000e+00,-2.380371093750000000e-03,5.148315429687500000e-01,-1.085205078125000000e-01,8.503417968750000000e-01
1.000000000000000000e+00,0.000000000000000000e+00,1.100000000000000000e+01,4.000000000000000000e+00,3.000000000000000000e+00,-1.100000000000000000e+01,-1.800000000000000000e+01,-2.000000000000000000e+00,-3.540039062500000000e-03,5.149536132812500000e-01,-1.078491210937500000e-01,8.503417968750000000e-01
-3.000000000000000000e+00,-3.000000000000000000e+00,-1.800000000000000000e+01,-4.000000000000000000e+00,-4.000000000000000000e+00,1.200000000000000000e+01,1.300000000000000000e+01,-5.000000000000000000e+00,-3.540039062500000000e-03,5.149536132812500000e-01,-1.078491210937500000e-01,8.503417968750000000e-01
-3.000000000000000000e+00,-1.000000000000000000e+00,-4.000000000000000000e+00,-2.200000000000000000e+01,-7.000000000000000000e+00,3.000000000000000000e+00,0.000000000000000000e+00,-4.000000000000000000e+00,-3.540039062500000000e-03,5.149536132812500000e-01,-1.078491210937500000e-01,8.503417968750000000e-01
-1.000000000000000000e+00,0.000000000000000000e+00,-5.000000000000000000e+00,9.000000000000000000e+00,7.000000000000000000e+00,1.000000000000000000e+00,6.000000000000000000e+00,3.000000000000000000e+00,-3.540039062500000000e-03,5.149536132812500000e-01,-1.078491210937500000e-01,8.503417968750000000e-01
0.000000000000000000e+00,-1.000000000000000000e+00,1.500000000000000000e+01,0.000000000000000000e+00,-3.000000000000000000e+00,-6.000000000000000000e+00,-2.000000000000000000e+00,0.000000000000000000e+00,-4.333496093750000000e-03,5.150146484375000000e-01,-1.075439453125000000e-01,8.503417968750000000e-01
2.000000000000000000e+00,1.000000000000000000e+00,-1.000000000000000000e+01,0.000000000000000000e+00,-9.000000000000000000e+00,-9.000000000000000000e+00,-1.200000000000000000e+01,-1.000000000000000000e+00,-4.333496093750000000e-03,5.150146484375000000e-01,-1.075439453125000000e-01,8.503417968750000000e-01
-3.000000000000000000e+00,-6.000000000000000000e+00,-4.200000000000000000e+01,0.000000000000000000e+00,-5.000000000000000000e+00,-6.000000000000000000e+00,-5.000000000000000000e+00,-2.000000000000000000e+00,-4.333496093750000000e-03,5.150146484375000000e-01,-1.075439453125000000e-01,8.503417968750000000e-01
-2.000000000000000000e+00,0.000000000000000000e+00,1.000000000000000000e+00,-7.000000000000000000e+00,6.000000000000000000e+00,2.000000000000000000e+00,-1.000000000000000000e+00,-3.000000000000000000e+00,-4.333496093750000000e-03,5.150146484375000000e-01,-1.075439453125000000e-01,8.503417968750000000e-01
-1.000000000000000000e+00,-4.000000000000000000e+00,7.000000000000000000e+00,2.700000000000000000e+01,8.000000000000000000e+00,1.000000000000000000e+00,0.000000000000000000e+00,0.000000000000000000e+00,-4.638671875000000000e-03,5.149536132812500000e-01,-1.076049804687500000e-01,8.504028320312500000e-01
0.000000000000000000e+00,1.000000000000000000e+00,1.200000000000000000e+01,3.000000000000000000e+00,7.000000000000000000e+00,0.000000000000000000e+00,0.000000000000000000e+00,1.000000000000000000e+00,-4.638671875000000000e-03,5.149536132812500000e-01,-1.076049804687500000e-01,8.504028320312500000e-01
3.000000000000000000e+00,3.000000000000000000e+00,7.000000000000000000e+00,-5.000000000000000000e+00,-1.000000000000000000e+00,-1.000000000000000000e+00,1.000000000000000000e+00,1.000000000000000000e+00,-4.638671875000000000e-03,5.149536132812500000e-01,-1.076049804687500000e-01,8.504028320312500000e-01
0.000000000000000000e+00,1.000000000000000000e+00,-1.000000000000000000e+01,-1.500000000000000000e+01,-2.100000000000000000e+01,-9.000000000000000000e+00,-5.000000000000000000e+00,-2.000000000000000000e+00,-4.638671875000000000e-03,5.149536132812500000e-01,-1.076049804687500000e-01,8.504028320312500000e-01
-2.000000000000000000e+00,-5.000000000000000000e+00,-2.500000000000000000e+01,-6.000000000000000000e+00,-2.000000000000000000e+00,0.000000000000000000e+00,-1.000000000000000000e+00,-2.000000000000000000e+00,-4.455566406250000000e-03,5.145263671875000000e-01,-1.074218750000000000e-01,8.506469726562500000e-01
0.000000000000000000e+00,-1.000000000000000000e+00,0.000000000000000000e+00,-1.200000000000000000e+01,-5.000000000000000000e+00,-1.900000000000000000e+01,-1.400000000000000000e+01,-1.000000000000000000e+00,-4.455566406250000000e-03,5.145263671875000000e-01,-1.074218750000000000e-01,8.506469726562500000e-01
-3.000000000000000000e+00,-1.000000000000000000e+00,1.000000000000000000e+00,1.500000000000000000e+01,3.000000000000000000e+00,3.000000000000000000e+00,-7.000000000000000000e+00,-1.000000000000000000e+00,-4.455566406250000000e-03,5.145263671875000000e-01,-1.074218750000000000e-01,8.506469726562500000e-01
-4.000000000000000000e+00,-3.000000000000000000e+00,9.000000000000000000e+00,-3.600000000000000000e+01,-2.100000000000000000e+01,-7.000000000000000000e+00,4.000000000000000000e+00,-3.000000000000000000e+00,-4.455566406250000000e-03,5.145263671875000000e-01,-1.074218750000000000e-01,8.506469726562500000e-01
-1.000000000000000000e+00,5.000000000000000000e+00,1.400000000000000000e+01,2.200000000000000000e+01,2.100000000000000000e+01,1.300000000000000000e+01,3.000000000000000000e+00,-1.000000000000000000e+00,-5.249023437500000000e-03,5.141601562500000000e-01,-1.066284179687500000e-01,8.510131835937500000e-01
-2.000000000000000000e+00,-7.000000000000000000e+00,-1.100000000000000000e+01,9.000000000000000000e+00,8.000000000000000000e+00,2.200000000000000000e+01,2.500000000000000000e+01,3.000000000000000000e+00,-5.249023437500000000e-03,5.141601562500000000e-01,-1.066284179687500000e-01,8.510131835937500000e-01
1.000000000000000000e+00,5.000000000000000000e+00,2.100000000000000000e+01,1.400000000000000000e+01,1.000000000000000000e+01,-1.100000000000000000e+01,-7.000000000000000000e+00,0.000000000000000000e+00,-5.249023437500000000e-03,5.141601562500000000e-01,-1.066284179687500000e-01,8.510131835937500000e-01
-3.000000000000000000e+00,-5.000000000000000000e+00,-1.900000000000000000e+01,-1.100000000000000000e+01,-1.000000000000000000e+01,-1.400000000000000000e+01,-1.100000000000000000e+01,-3.000000000000000000e+00,-5.249023437500000000e-03,5.141601562500000000e-01,-1.066284179687500000e-01,8.510131835937500000e-01
-1.000000000000000000e+00,1.000000000000000000e+00,-1.300000000000000000e+01,-4.000000000000000000e+01,-2.400000000000000000e+01,2.000000000000000000e+00,1.300000000000000000e+01,1.000000000000000000e+00,-6.713867187500000000e-03,5.140991210937500000e-01,-1.056518554687500000e-01,8.511352539062500000e-01
-3.000000000000000000e+00,-1.000000000000000000e+00,7.000000000000000000e+00,4.600000000000000000e+01,7.000000000000000000e+00,-9.000000000000000000e+00,-1.300000000000000000e+01,-5.000000000000000000e+00,-6.713867187500000000e-03,5.140991210937500000e-01,-1.056518554687500000e-01,8.511352539062500000e-01
1.000000000000000000e+00,0.000000000000000000e+00,3.000000000000000000e+00,-2.100000000000000000e+01,1.000000000000000000e+00,6.000000000000000000e+00,6.000000000000000000e+00,3.000000000000000000e+00,-6.713867187500000000e-03,5.140991210937500000e-01,-1.056518554687500000e-01,8.511352539062500000e-01
-1.000000000000000000e+00,-1.000000000000000000e+00,7.000000000000000000e+00,9.000000000000000000e+00,-2.000000000000000000e+00,-2.000000000000000000e+00,-8.000000000000000000e+00,-2.000000000000000000e+00,-6.713867187500000000e-03,5.140991210937500000e-01,-1.056518554687500000e-01,8.511352539062500000e-01
-1.000000000000000000e+00,-5.000000000000000000e+00,-1.900000000000000000e+01,1.000000000000000000e+00,0.000000000000000000e+00,-5.000000000000000000e+00,-3.000000000000000000e+00,-4.000000000000000000e+00,-7.202148437500000000e-03,5.142211914062500000e-01,-1.053466796875000000e-01,8.510742187500000000e-01
1.000000000000000000e+00,1.000000000000000000e+00,1.100000000000000000e+01,-2.000000000000000000e+00,-6.000000000000000000e+00,-1.000000000000000000e+00,-4.000000000000000000e+00,-1.000000000000000000e+00,-7.202148437500000000e-03,5.142211914062500000e-01,-1.053466796875000000e-01,8.510742187500000000e-01
1.000000000000000000e+00,-1.000000000000000000e+00,5.000000000000000000e+00,3.000000000000000000e+00,-9.000000000000000000e+00,-3.000000000000000000e+00,0.000000000000000000e+00,-2.000000000000000000e+00,-7.202148437500000000e-03,5.142211914062500000e-01,-1.053466796875000000e-01,8.510742187500000000e-01
-2.000000000000000000e+00,-3.000000000000000000e+00,-5.000000000000000000e+00,-1.200000000000000000e+01,8.000000000000000000e+00,4.000000000000000000e+00,1.000000000000000000e+00,0.000000000000000000e+00,-7.202148437500000000e-03,5.142211914062500000e-01,-1.053466796875000000e-01,8.510742187500000000e-01
-1.000000000000000000e+00,0.000000000000000000e+00,1.000000000000000000e+00,-7.000000000000000000e+00,-6.000000000000000000e+00,-4.000000000000000000e+00,-6.000000000000000000e+00,-2.000000000000000000e+00,-7.019042968750000000e-03,5.141601562500000000e-01,-1.052246093750000000e-01,8.511352539062500000e-01
-2.000000000000000000e+00,-2.000000000000000000e+00,5.000000000000000000e+00,-1.000000000000000000e+01,-1.000000000000000000e+00,-6.000000000000000000e+00,-4.000000000000000000e+00,-3.000000000000000000e+00,-7.019042968750000000e-03,5.141601562500000000e-01,-1.052246093750000000e-01,8.511352539062500000e-01
4.000000000000000000e+00,7.000000000000000000e+00,0.000000000000000000e+00,1.100000000000000000e+01,4.000000000000000000e+00,1.000000000000000000e+01,9.000000000000000000e+00,2.000000000000000000e+00,-7.019042968750000000e-03,5.141601562500000000e-01,-1.052246093750000000e-01,8.511352539062500000e-01
-3.000000000000000000e+00,-5.000000000000000000e+00,-5.000000000000000000e+00,-8.000000000000000000e+00,-8.000000000000000000e+00,-4.000000000000000000e+00,-6.000000000000000000e+00,-2.000000000000000000e+00,-7.019042968750000000e-03,5.141601562500000000e-01,-1.052246093750000000e-01,8.511352539062500000e-01
-3.000000000000000000e+00,-2.000000000000000000e+00,1.500000000000000000e+01,6.000000000000000000e+00,-3.000000000000000000e+00,-4.000000000000000000e+00,-4.000000000000000000e+00,-3.000000000000000000e+00,-7.446289062500000000e-03,5.140991210937500000e-01,-1.041870117187500000e-01,8.513183593750000000e-01
-1.000000000000000000e+00,3.000000000000000000e+00,-1.000000000000000000e+00,-9.000000000000000000e+00,6.000000000000000000e+00,1.100000000000000000e+01,9.000000000000000000e+00,-1.000000000000000000e+00,-7.446289062500000000e-03,5.140991210937500000e-01,-1.041870117187500000e-01,8.513183593750000000e-01
-3.000000000000000000e+00,-2.000000000000000000e+00,-7.000000000000000000e+00,-9.000000000000000000e+00,-1.000000000000000000e+01,-9.000000000000000000e+00,-8.000000000000000000e+00,-3.000000000000000000e+00,-7.446289062500000000e-03,5.140991210937500000e-01,-1.041870117187500000e-01,8.513183593750000000e-01
1.000000000000000000e+00,-2.000000000000000000e+00,1.000000000000000000e+00,-2.000000000000000000e+00,-5.000000000000000000e+00,2.000000000000000000e+00,4.000000000000000000e+00,0.000000000000000000e+00,-7.446289062500000000e-03,5.140991210937500000e-01,-1.041870117187500000e-01,8.513183593750000000e-01
1.000000000000000000e+00,1.000000000000000000e+00,4.000000000000000000e+00,1.100000000000000000e+01,2.200000000000000000e+01,1.000000000000000000e+00,5.000000000000000000e+00,-1.000000000000000000e+00,-8.605957031250000000e-03,5.140991210937500000e-01,-1.024169921875000000e-01,8.515014648437500000e-01
-3.000000000000000000e+00,-2.000000000000000000e+00,-1.100000000000000000e+01,-5.000000000000000000e+00,-3.000000000000000000e+01,-1.400000000000000000e+01,-1.300000000000000000e+01,-3.000000000000000000e+00,-8.605957031250000000e-03,5.140991210937500000e-01,-1.024169921875000000e-01,8.515014648437500000e-01
2.000000000000000000e+00,-1.000000000000000000e+00,9.000000000000000000e+00,3.800000000000000000e+01,4.300000000000000000e+01,6.000000000000000000e+00,-2.000000000000000000e+00,-1.000000000000000000e+00,-8.605957031250000000e-03,5.140991210937500000e-01,-1.024169921875000000e-01,8.515014648437500000e-01
3.000000000000000000e+00,5.000000000000000000e+00,-1.000000000000000000e+00,3.000000000000000000e+00,5.000000000000000000e+00,4.000000000000000000e+00,3.000000000000000000e+00,2.000000000000000000e+00,-8.605957031250000000e-03,5.140991210937500000e-01,-1.024169921875000000e-01,8.515014648437500000e-01
-3.000000000000000000e+00,-6.000000000000000000e+00,-1.700000000000000000e+01,-2.000000000000000000e+00,-7.000000000000000000e+00,-5.000000000000000000e+00,-4.000000000000000000e+00,-3.000000000000000000e+00,-9.765625000000000000e-03,5.140991210937500000e-01,-1.007080078125000000e-01,8.516845703125000000e-01
3.000000000000000000e+00,1.000000000000000000e+00,-1.000000000000000000e+00,-2.500000000000000000e+01,-7.000000000000000000e+00,-2.000000000000000000e+00,1.000000000000000000e+00,0.000000000000000000e+00,-9.765625000000000000e-03,5.140991210937500000e-01,-1.007080078125000000e-01,8.516845703125000000e-01
-4.000000000000000000e+00,-4.000000000000000000e+00,-2.400000000000000000e+01,-1.200000000000000000e+01,-1.100000000000000000e+01,-2.000000000000000000e+00,0.000000000000000000e+00,-3.000000000000000000e+00,-9.765625000000000000e-03,5.140991210937500000e-01,-1.007080078125000000e-01,8.516845703125000000e-01
0.000000000000000000e+00,-2.000000000000000000e+00,-1.800000000000000000e+01,2.100000000000000000e+01,-6.000000000000000000e+00,-3.000000000000000000e+00,-2.000000000000000000e+00,-1.000000000000000000e+00,-9.765625000000000000e-03,5.140991210937500000e-01,-1.007080078125000000e-01,8.516845703125000000e-01
0.000000000000000000e+00,4.000000000000000000e+00,2.100000000000000000e+01,9.000000000000000000e+00,7.000000000000000000e+00,6.000000000000000000e+00,3.000000000000000000e+00,4.000000000000000000e+00,-1.159667968750000000e-02,5.137329101562500000e-01,-9.899902343750000000e-02,8.520507812500000000e-01
0.000000000000000000e+00,1.000000000000000000e+00,-2.000000000000000000e+00,-2.000000000000000000e+00,1.100000000000000000e+01,3.000000000000000000e+00,1.000000000000000000e+00,1.000000000000000000e+00,-1.159667968750000000e-02,5.137329101562500000e-01,-9.899902343750000000e-02,8.520507812500000000e-01
-2.000000000000000000e+00,0.000000000000000000e+00,1.700000000000000000e+01,-8.000000000000000000e+00,-9.000000000000000000e+00,0.000000000000000000e+00,1.000000000000000000e+00,-2.000000000000000000e+00,-1.159667968750000000e-02,5.137329101562500000e-01,-9.899902343750000000e-02,8.520507812500000000e-01
-1.000000000000000000e+00,-2.000000000000000000e+00,-1.000000000000000000e+01,-1.000000000000000000e+00,-2.000000000000000000e+00,-9.000000000000000000e+00,-8.000000000000000000e+00,-4.000000000000000000e+00,-1.159667968750000000e-02,5.137329101562500000e-01,-9.899902343750000000e-02,8.520507812500000000e-01
-5.000000000000000000e+00,-8.000000000000000000e+00,-2.500000000000000000e+01,-1.700000000000000000e+01,-1.400000000000000000e+01,-6.000000000000000000e+00,-6.000000000000000000e+00,-4.000000000000000000e+00,-1.287841796875000000e-02,5.134277343750000000e-01,-9.771728515625000000e-02,8.524169921875000000e-01
2.000000000000000000e+00,4.000000000000000000e+00,-1.000000000000000000e+00,-9.000000000000000000e+00,2.000000000000000000e+00,4.000000000000000000e+00,8.000000000000000000e+00,2.000000000000000000e+00,-1.287841796875000000e-02,5.134277343750000000e-01,-9.771728515625000000e-02,8.524169921875000000e-01
-1.000000000000000000e+00,-3.000000000000000000e+00,4.000000000000000000e+00,2.500000000000000000e+01,1.000000000000000000e+00,0.000000000000000000e+00,0.000000000000000000e+00,0.000000000000000000e+00,-1.287841796875000000e-02,5.134277343750000000e-01,-9.771728515625000000e-02,8.524169921875000000e-01
0.000000000000000000e+00,0.000000000000000000e+00,2.100000000000000000e+01,-7.000000000000000000e+00,3.000000000000000000e+00,1.200000000000000000e+01,1.100000000000000000e+01,0.000000000000000000e+00,-1.287841796875000000e-02,5.134277343750000000e-01,-9.771728515625000000e-02,8.524169921875000000e-01
