-3.000000000000000000e+00,-3.000000000000000000e+00,-7.000000000000000000e+00,-3.000000000000000000e+00,-1.000000000000000000e+00,-1.000000000000000000e+00,1.000000000000000000e+00,-1.000000000000000000e+00,-3.862304687500000000e-01,1.395874023437500000e-01,7.256469726562500000e-01,5.520019531250000000e-01
-4.000000000000000000e+00,3.000000000000000000e+00,3.000000000000000000e+00,4.000000000000000000e+00,2.000000000000000000e+00,0.000000000000000000e+00,-1.000000000000000000e+00,0.000000000000000000e+00,-3.862304687500000000e-01,1.395874023437500000e-01,7.256469726562500000e-01,5.520019531250000000e-01
-1.200000000000000000e+01,-3.000000000000000000e+00,-3.000000000000000000e+00,-3.000000000000000000e+00,-4.000000000000000000e+00,-3.000000000000000000e+00,-1.000000000000000000e+00,0.000000000000000000e+00,-3.862304687500000000e-01,1.395874023437500000e-01,7.256469726562500000e-01,5.520019531250000000e-01
8.000000000000000000e+00,-2.000000000000000000e+00,4.000000000000000000e+00,0.000000000000000000e+00,1.000000000000000000e+00,0.000000000000000000e+00,-2.000000000000000000e+00,-3.000000000000000000e+00,-3.862304687500000000e-01,1.395874023437500000e-01,7.256469726562500000e-01,5.520019531250000000e-01
-3.000000000000000000e+00,-2.000000000000000000e+00,-6.000000000000000000e+00,-2.000000000000000000e+00,-2.000000000000000000e+00,1.000000000000000000e+00,-1.000000000000000000e+00,-1.000000000000000000e+00,-3.770751953125000000e-01,1.125488281250000000e-01,7.284545898437500000e-01,5.607299804687500000e-01
-4.000000000000000000e+00,-4.000000000000000000e+00,-7.000000000000000000e+00,-6.000000000000000000e+00,-2.000000000000000000e+00,-3.000000000000000000e+00,-4.000000000000000000e+00,-1.000000000000000000e+00,-3.770751953125000000e-01,1.125488281250000000e-01,7.284545898437500000e-01,5.607299804687500000e-01
-1.000000000000000000e+00,-2.000000000000000000e+00,-2.000000000000000000e+00,-1.000000000000000000e+00,-2.000000000000000000e+00,-1.000000000000000000e+00,1.000000000000000000e+00,4.000000000000000000e+00,-3.770751953125000000e-01,1.125488281250000000e-01,7.284545898437500000e-01,5.607299804687500000e-01
-1.200000000000000000e+01,-1.000000000000000000e+01,1.000000000000000000e+00,-3.000000000000000000e+00,3.000000000000000000e+00,0.000000000000000000e+00,2.000000000000000000e+00,-1.000000000000000000e+01,-3.770751953125000000e-01,1.125488281250000000e-01,7.284545898437500000e-01,5.607299804687500000e-01
-2.000000000000000000e+00,6.000000000000000000e+00,2.000000000000000000e+00,4.000000000000000000e+00,-2.000000000000000000e+00,-2.000000000000000000e+00,-3.000000000000000000e+00,-2.000000000000000000e+00,-3.653564453125000000e-01,8.093261718750000000e-02,7.311401367187500000e-01,5.703735351562500000e-01
-2.000000000000000000e+00,-2.000000000000000000e+00,2.000000000000000000e+00,1.000000000000000000e+00,-3.000000000000000000e+00,-4.000000000000000000e+00,-2.000000000000000000e+00,-1.000000000000000000e+00,-3.653564453125000000e-01,8.093261718750000000e-02,7.311401367187500000e-01,5.703735351562500000e-01
1.000000000000000000e+00,1.000000000000000000e+00,0.000000000000000000e+00,0.000000000000000000e+00,-3.000000000000000000e+00,-2.000000000000000000e+00,-2.000000000000000000e+00,-3.000000000000000000e+00,-3.653564453125000000e-01,8.093261718750000000e-02,7.311401367187500000e-01,5.703735351562500000e-01
-1.000000000000000000e+00,2.000000000000000000e+00,-4.000000000000000000e+00,-3.000000000000000000e+00,0.000000000000000000e+00,0.000000000000000000e+00,1.000000000000000000e+00,4.000000000000000000e+00,-3.653564453125000000e-01,8.093261718750000000e-02,7.311401367187500000e-01,5.703735351562500000e-01
0.000000000000000000e+00,-3.000000000000000000e+00,-2.000000000000000000e+00,0.000000000000000000e+00,0.000000000000000000e+00,2.000000000000000000e+00,3.000000000000000000e+00,0.000000000000000000e+00,-3.501586914062500000e-01,4.577636718750000000e-02,7.331542968750000000e-01,5.811157226562500000e-01
-4.000000000000000000e+00,0.000000000000000000e+00,-1.000000000000000000e+00,-1.000000000000000000e+00,1.000000000000000000e+00,2.000000000000000000e+00,1.000000000000000000e+00,-1.000000000000000000e+00,-3.501586914062500000e-01,4.577636718750000000e-02,7.331542968750000000e-01,5.811157226562500000e-01
0.000000000000000000e+00,-3.000000000000000000e+00,0.000000000000000000e+00,5.000000000000000000e+00,2.000000000000000000e+00,-3.000000000000000000e+00,-3.000000000000000000e+00,-2.000000000000000000e+00,-3.501586914062500000e-01,4.577636718750000000e-02,7.331542968750000000e-01,5.811157226562500000e-01
-2.000000000000000000e+00,0.000000000000000000e+00,-3.000000000000000000e+00,1.000000000000000000e+00,-2.000000000000000000e+00,-3.000000000000000000e+00,-1.000000000000000000e+00,0.000000000000000000e+00,-3.501586914062500000e-01,4.577636718750000000e-02,7.331542968750000000e-01,5.811157226562500000e-01
-1.000000000000000000e+00,-2.000000000000000000e+00,-4.000000000000000000e+00,-1.800000000000000000e+01,-4.000000000000000000e+00,-2.000000000000000000e+00,-1.000000000000000000e+00,-3.000000000000000000e+00,-3.306274414062500000e-01,7.385253906250000000e-03,7.344360351562500000e-01,5.925903320312500000e-01
3.000000000000000000e+00,0.000000000000000000e+00,5.000000000000000000e+00,8.000000000000000000e+00,-2.000000000000000000e+00,0.000000000000000000e+00,0.000000000000000000e+00,2.000000000000000000e+00,-3.306274414062500000e-01,7.385253906250000000e-03,7.344360351562500000e-01,5.925903320312500000e-01
0.000000000000000000e+00,1.000000000000000000e+00,-1.000000000000000000e+00,-2.000000000000000000e+00,-1.000000000000000000e+00,0.000000000000000000e+00,1.000000000000000000e+00,-1.000000000000000000e+00,-3.306274414062500000e-01,7.385253906250000000e-03,7.344360351562500000e-01,5.925903320312500000e-01
-2.000000000000000000e+00,-5.000000000000000000e+00,-1.000000000000000000e+00,5.000000000000000000e+00,1.000000000000000000e+00,-3.000000000000000000e+00,-3.000000000000000000e+00,0.000000000000000000e+00,-3.306274414062500000e-01,7.385253906250000000e-03,7.344360351562500000e-01,5.925903320312500000e-01
0.000000000000000000e+00,2.000000000000000000e+00,3.000000000000000000e+00,4.000000000000000000e+00,3.000000000000000000e+00,-4.000000000000000000e+00,-5.000000000000000000e+00,0.000000000000000000e+00,-3.070678710937500000e-01,-3.460693359375000000e-02,7.346801757812500000e-01,6.038818359375000000e-01
-3.000000000000000000e+00,-4.000000000000000000e+00,-4.000000000000000000e+00,-9.000000000000000000e+00,-2.000000000000000000e+00,-2.000000000000000000e+00,1.000000000000000000e+00,-4.000000000000000000e+00,-3.070678710937500000e-01,-3.460693359375000000e-02,7.346801757812500000e-01,6.038818359375000000e-01
1.000000000000000000e+00,-2.000000000000000000e+00,0.000000000000000000e+00,1.000000000000000000e+00,0.000000000000000000e+00,0.000000000000000000e+00,0.000000000000000000e+00,-2.000000000000000000e+00,-3.070678710937500000e-01,-3.460693359375000000e-02,7.346801757812500000e-01,6.038818359375000000e-01
-2.000000000000000000e+00,4.000000000000000000e+00,0.000000000000000000e+00,-3.000000000000000000e+00,-4.000000000000000000e+00,0.000000000000000000e+00,-3.000000000000000000e+00,1.000000000000000000e+00,-3.070678710937500000e-01,-3.460693359375000000e-02,7.346801757812500000e-01,6.038818359375000000e-01
-2.000000000000000000e+00,-1.000000000000000000e+00,1.000000000000000000e+00,1.000000000000000000e+00,1.000000000000000000e+00,2.000000000000000000e+00,1.000000000000000000e+00,0.000000000000000000e+00,-2.796630859375000000e-01,-8.099365234375000000e-02,7.334594726562500000e-01,6.141967773437500000e-01
0.000000000000000000e+00,0.000000000000000000e+00,-3.000000000000000000e+00,-5.000000000000000000e+00,-2.000000000000000000e+00,-3.000000000000000000e+00,0.000000000000000000e+00,-1.000000000000000000e+00,-2.796630859375000000e-01,-8.099365234375000000e-02,7.334594726562500000e-01,6.141967773437500000e-01
1.000000000000000000e+00,1.000000000000000000e+00,1.000000000000000000e+00,2.000000000000000000e+00,1.000000000000000000e+00,2.000000000000000000e+00,-2.000000000000000000e+00,-1.000000000000000000e+00,-2.796630859375000000e-01,-8.099365234375000000e-02,7.334594726562500000e-01,6.141967773437500000e-01
-1.000000000000000000e+00,-1.000000000000000000e+00,-3.000000000000000000e+00,-6.000000000000000000e+00,-6.000000000000000000e+00,-3.000000000000000000e+00,-2.000000000000000000e+00,-1.000000000000000000e+00,-2.796630859375000000e-01,-8.099365234375000000e-02,7.334594726562500000e-01,6.141967773437500000e-01
-1.000000000000000000e+00,-1.000000000000000000e+00,0.000000000000000000e+00,-1.000000000000000000e+00,-3.000000000000000000e+00,-2.000000000000000000e+00,0.000000000000000000e+00,0.000000000000000000e+00,-2.486572265625000000e-01,-1.295776367187500000e-01,7.301025390625000000e-01,6.231079101562500000e-01
-3.000000000000000000e+00,-2.000000000000000000e+00,-2.000000000000000000e+00,3.000000000000000000e+00,-1.000000000000000000e+00,2.000000000000000000e+00,-1.000000000000000000e+00,-1.000000000000000000e+00,-2.486572265625000000e-01,-1.295776367187500000e-01,7.301025390625000000e-01,6.231079101562500000e-01
1.000000000000000000e+00,-2.000000000000000000e+00,-2.000000000000000000e+00,-2.000000000000000000e+00,2.000000000000000000e+00,1.000000000000000000e+00,1.000000000000000000e+00,1.000000000000000000e+00,-2.486572265625000000e-01,-1.295776367187500000e-01,7.301025390625000000e-01,6.231079101562500000e-01
-3.000000000000000000e+00,2.000000000000000000e+00,-1.000000000000000000e+00,0.000000000000000000e+00,2.000000000000000000e+00,0.000000000000000000e+00,-1.000000000000000000e+00,0.000000000000000000e+00,-2.486572265625000000e-01,-1.295776367187500000e-01,7.301025390625000000e-01,6.231079101562500000e-01
0.000000000000000000e+00,-2.000000000000000000e+00,-1.000000000000000000e+00,-1.000000000000000000e+00,-5.000000000000000000e+00,-3.000000000000000000e+00,-3.000000000000000000e+00,-2.000000000000000000e+00,-2.150268554687500000e-01,-1.790771484375000000e-01,7.239990234375000000e-01,6.304321289062500000e-01
-1.000000000000000000e+00,-1.000000000000000000e+00,-5.000000000000000000e+00,-7.000000000000000000e+00,-1.100000000000000000e+01,-5.000000000000000000e+00,-4.000000000000000000e+00,-2.000000000000000000e+00,-2.150268554687500000e-01,-1.790771484375000000e-01,7.239990234375000000e-01,6.304321289062500000e-01
0.000000000000000000e+00,-1.000000000000000000e+00,1.000000000000000000e+00,9.000000000000000000e+00,2.000000000000000000e+01,4.000000000000000000e+00,0.000000000000000000e+00,-3.000000000000000000e+00,-2.150268554687500000e-01,-1.790771484375000000e-01,7.239990234375000000e-01,6.304321289062500000e-01
-1.000000000000000000e+00,0.000000000000000000e+00,-3.000000000000000000e+00,1.000000000000000000e+00,-3.000000000000000000e+00,-2.000000000000000000e+00,-1.000000000000000000e+00,1.000000000000000000e+00,-2.150268554687500000e-01,-1.790771484375000000e-01,7.239990234375000000e-01,6.304321289062500000e-01
-1.000000000000000000e+00,-2.000000000000000000e+00,5.000000000000000000e+00,4.000000000000000000e+00,2.000000000000000000e+00,0.000000000000000000e+00,-1.000000000000000000e+00,-2.000000000000000000e+00,-1.787109375000000000e-01,-2.280273437500000000e-01,7.144165039062500000e-01,6.369018554687500000e-01
-2.000000000000000000e+00,0.000000000000000000e+00,-4.000000000000000000e+00,-9.000000000000000000e+00,-1.500000000000000000e+01,-5.000000000000000000e+00,-3.000000000000000000e+00,0.000000000000000000e+00,-1.787109375000000000e-01,-2.280273437500000000e-01,7.144165039062500000e-01,6.369018554687500000e-01
-2.000000000000000000e+00,0.000000000000000000e+00,-8.000000000000000000e+00,-1.200000000000000000e+01,-2.000000000000000000e+00,-4.000000000000000000e+00,-2.000000000000000000e+00,-1.000000000000000000e+00,-1.787109375000000000e-01,-2.280273437500000000e-01,7.144165039062500000e-01,6.369018554687500000e-01
-1.000000000000000000e+00,3.000000000000000000e+00,2.000000000000000000e+00,-1.000000000000000000e+00,0.000000000000000000e+00,1.000000000000000000e+00,0.000000000000000000e+00,0.000000000000000000e+00,-1.787109375000000000e-01,-2.280273437500000000e-01,7.144165039062500000e-01,6.369018554687500000e-01
-1.000000000000000000e+00,-1.000000000000000000e+00,-2.000000000000000000e+00,2.000000000000000000e+00,5.000000000000000000e+00,0.000000000000000000e+00,-1.000000000000000000e+00,0.000000000000000000e+00,-1.428833007812500000e-01,-2.728881835937500000e-01,6.997070312500000000e-01,6.445312500000000000e-01
0.000000000000000000e+00,-2.000000000000000000e+00,1.000000000000000000e+00,2.000000000000000000e+00,5.000000000000000000e+00,0.000000000000000000e+00,0.000000000000000000e+00,0.000000000000000000e+00,-1.428833007812500000e-01,-2.728881835937500000e-01,6.997070312500000000e-01,6.445312500000000000e-01
-2.000000000000000000e+00,-2.000000000000000000e+00,-2.000000000000000000e+00,-4.000000000000000000e+00,-1.100000000000000000e+01,-2.000000000000000000e+00,-1.000000000000000000e+00,-2.000000000000000000e+00,-1.428833007812500000e-01,-2.728881835937500000e-01,6.997070312500000000e-01,6.445312500000000000e-01
0.000000000000000000e+00,0.000000000000000000e+00,-1.000000000000000000e+00,-3.000000000000000000e+00,-2.000000000000000000e+00,-1.000000000000000000e+00,-3.000000000000000000e+00,-1.000000000000000000e+00,-1.428833007812500000e-01,-2.728881835937500000e-01,6.997070312500000000e-01,6.445312500000000000e-01
-2.000000000000000000e+00,-1.000000000000000000e+00,0.000000000000000000e+00,-2.000000000000000000e+00,-4.000000000000000000e+00,0.000000000000000000e+00,0.000000000000000000e+00,-2.000000000000000000e+00,-1.049194335937500000e-01,-3.117065429687500000e-01,6.803588867187500000e-01,6.549072265625000000e-01
-1.000000000000000000e+00,-6.000000000000000000e+00,2.000000000000000000e+00,-1.000000000000000000e+00,4.000000000000000000e+00,2.000000000000000000e+00,1.000000000000000000e+00,0.000000000000000000e+00,-1.049194335937500000e-01,-3.117065429687500000e-01,6.803588867187500000e-01,6.549072265625000000e-01
-3.000000000000000000e+00,-1.100000000000000000e+01,1.000000000000000000e+00,0.000000000000000000e+00,-4.000000000000000000e+00,-2.000000000000000000e+00,1.000000000000000000e+00,0.000000000000000000e+00,-1.049194335937500000e-01,-3.117065429687500000e-01,6.803588867187500000e-01,6.549072265625000000e-01
-1.000000000000000000e+00,-3.000000000000000000e+00,-3.000000000000000000e+00,-2.000000000000000000e+00,-2.000000000000000000e+00,-3.000000000000000000e+00,-1.000000000000000000e+00,-1.000000000000000000e+00,-1.049194335937500000e-01,-3.117065429687500000e-01,6.803588867187500000e-01,6.549072265625000000e-01
0.000000000000000000e+00,1.000000000000000000e+00,0.000000000000000000e+00,2.000000000000000000e+00,-2.000000000000000000e+00,-3.000000000000000000e+00,-4.000000000000000000e+00,-2.000000000000000000e+00,-3.961181640625000000e-02,-3.372802734375000000e-01,6.696777343750000000e-01,6.604003906250000000e-01
-1.000000000000000000e+00,3.000000000000000000e+00,2.000000000000000000e+00,0.000000000000000000e+00,0.000000000000000000e+00,-5.000000000000000000e+00,-4.000000000000000000e+00,-5.000000000000000000e+00,-3.961181640625000000e-02,-3.372802734375000000e-01,6.696777343750000000e-01,6.604003906250000000e-01
3.000000000000000000e+00,-3.000000000000000000e+00,2.000000000000000000e+00,-6.000000000000000000e+00,-1.600000000000000000e+01,-9.000000000000000000e+00,-4.000000000000000000e+00,-3.000000000000000000e+00,-3.961181640625000000e-02,-3.372802734375000000e-01,6.696777343750000000e-01,6.604003906250000000e-01
3.000000000000000000e+00,-4.000000000000000000e+00,-3.000000000000000000e+00,-1.200000000000000000e+01,-1.700000000000000000e+01,-2.600000000000000000e+01,-6.000000000000000000e+00,0.000000000000000000e+00,-3.961181640625000000e-02,-3.372802734375000000e-01,6.696777343750000000e-01,6.604003906250000000e-01
1.000000000000000000e+00,-1.100000000000000000e+01,-9.000000000000000000e+00,-9.000000000000000000e+00,-8.000000000000000000e+00,-2.100000000000000000e+01,-1.700000000000000000e+01,-5.000000000000000000e+00,-1.867675781250000000e-02,-3.292236328125000000e-01,6.488647460937500000e-01,6.857299804687500000e-01
-2.000000000000000000e+00,1.500000000000000000e+01,-5.000000000000000000e+00,-1.000000000000000000e+00,1.100000000000000000e+01,1.000000000000000000e+01,-3.000000000000000000e+00,-6.000000000000000000e+00,-1.867675781250000000e-02,-3.292236328125000000e-01,6.488647460937500000e-01,6.857299804687500000e-01
-7.000000000000000000e+00,3.000000000000000000e+01,-4.000000000000000000e+00,1.000000000000000000e+00,1.300000000000000000e+01,3.200000000000000000e+01,1.800000000000000000e+01,9.000000000000000000e+00,-1.867675781250000000e-02,-3.292236328125000000e-01,6.488647460937500000e-01,6.857299804687500000e-01
-8.000000000000000000e+00,5.600000000000000000e+01,4.000000000000000000e+00,4.000000000000000000e+00,2.000000000000000000e+01,3.300000000000000000e+01,2.500000000000000000e+01,8.000000000000000000e+00,-1.867675781250000000e-02,-3.292236328125000000e-01,6.488647460937500000e-01,6.857299804687500000e-01
-2.000000000000000000e+00,1.400000000000000000e+01,4.000000000000000000e+00,7.000000000000000000e+00,1.500000000000000000e+01,1.800000000000000000e+01,1.900000000000000000e+01,5.000000000000000000e+00,5.572509765625000000e-02,-2.352905273437500000e-01,7.247924804687500000e-01,6.450805664062500000e-01
1.000000000000000000e+00,-1.400000000000000000e+01,6.000000000000000000e+00,9.000000000000000000e+00,1.100000000000000000e+01,-3.000000000000000000e+00,0.000000000000000000e+00,1.000000000000000000e+00,5.572509765625000000e-02,-2.352905273437500000e-01,7.247924804687500000e-01,6.450805664062500000e-01
1.000000000000000000e+00,-3.200000000000000000e+01,5.000000000000000000e+00,9.000000000000000000e+00,2.000000000000000000e+00,-1.200000000000000000e+01,-1.200000000000000000e+01,-7.000000000000000000e+00,5.572509765625000000e-02,-2.352905273437500000e-01,7.247924804687500000e-01,6.450805664062500000e-01
1.000000000000000000e+00,-3.100000000000000000e+01,2.000000000000000000e+00,7.000000000000000000e+00,1.000000000000000000e+00,-6.000000000000000000e+00,-1.000000000000000000e+01,-4.000000000000000000e+00,5.572509765625000000e-02,-2.352905273437500000e-01,7.247924804687500000e-01,6.450805664062500000e-01
4.000000000000000000e+00,-1.500000000000000000e+01,1.000000000000000000e+00,2.000000000000000000e+00,-5.000000000000000000e+00,-7.000000000000000000e+00,-5.000000000000000000e+00,-1.000000000000000000e+00,9.765625000000000000e-02,-1.939697265625000000e-01,7.345581054687500000e-01,6.428222656250000000e-01
1.000000000000000000e+00,-1.300000000000000000e+01,0.000000000000000000e+00,-1.000000000000000000e+00,-7.000000000000000000e+00,-6.000000000000000000e+00,-4.000000000000000000e+00,-3.000000000000000000e+00,9.765625000000000000e-02,-1.939697265625000000e-01,7.345581054687500000e-01,6.428222656250000000e-01
2.000000000000000000e+00,-3.000000000000000000e+00,-1.000000000000000000e+00,-5.000000000000000000e+00,-1.200000000000000000e+01,-6.000000000000000000e+00,-5.000000000000000000e+00,-1.000000000000000000e+00,9.765625000000000000e-02,-1.939697265625000000e-01,7.345581054687500000e-01,6.428222656250000000e-01
-1.000000000000000000e+00,-8.000000000000000000e+00,-3.000000000000000000e+00,-5.000000000000000000e+00,-9.000000000000000000e+00,-1.000000000000000000e+00,-1.000000000000000000e+00,-3.000000000000000000e+00,9.765625000000000000e-02,-1.939697265625000000e-01,7.345581054687500000e-01,6.428222656250000000e-01
-2.000000000000000000e+00,2.000000000000000000e+00,-2.000000000000000000e+00,-5.000000000000000000e+00,-5.000000000000000000e+00,5.000000000000000000e+00,1.000000000000000000e+00,-1.000000000000000000e+00,8.135986328125000000e-02,-2.274169921875000000e-01,7.301025390625000000e-01,6.392211914062500000e-01
-3.000000000000000000e+00,0.000000000000000000e+00,-3.000000000000000000e+00,-4.000000000000000000e+00,-6.000000000000000000e+00,6.000000000000000000e+00,2.000000000000000000e+00,2.000000000000000000e+00,8.135986328125000000e-02,-2.274169921875000000e-01,7.301025390625000000e-01,6.392211914062500000e-01
-4.000000000000000000e+00,8.000000000000000000e+00,-4.000000000000000000e+00,-3.000000000000000000e+00,-3.000000000000000000e+00,0.000000000000000000e+00,-1.000000000000000000e+00,0.000000000000000000e+00,8.135986328125000000e-02,-2.274169921875000000e-01,7.301025390625000000e-01,6.392211914062500000e-01
-2.000000000000000000e+00,-4.000000000000000000e+00,-4.000000000000000000e+00,-3.000000000000000000e+00,-5.000000000000000000e+00,-1.000000000000000000e+00,-3.000000000000000000e+00,-2.000000000000000000e+00,8.135986328125000000e-02,-2.274169921875000000e-01,7.301025390625000000e-01,6.392211914062500000e-01
-4.000000000000000000e+00,-2.000000000000000000e+00,-4.000000000000000000e+00,0.000000000000000000e+00,-5.000000000000000000e+00,4.000000000000000000e+00,1.000000000000000000e+00,-1.000000000000000000e+00,3.411865234375000000e-02,-2.851562500000000000e-01,7.288208007812500000e-01,6.215209960937500000e-01
-1.000000000000000000e+00,6.000000000000000000e+00,-4.000000000000000000e+00,-1.000000000000000000e+00,-2.000000000000000000e+00,0.000000000000000000e+00,3.000000000000000000e+00,0.000000000000000000e+00,3.411865234375000000e-02,-2.851562500000000000e-01,7.288208007812500000e-01,6.215209960937500000e-01
0.000000000000000000e+00,2.000000000000000000e+00,-1.000000000000000000e+00,-1.000000000000000000e+00,-4.000000000000000000e+00,-5.000000000000000000e+00,-1.000000000000000000e+00,0.000000000000000000e+00,3.411865234375000000e-02,-2.851562500000000000e-01,7.288208007812500000e-01,6.215209960937500000e-01
-1.000000000000000000e+00,-6.000000000000000000e+00,2.000000000000000000e+00,-1.000000000000000000e+00,-1.000000000000000000e+00,-3.000000000000000000e+00,-2.000000000000000000e+00,-3.000000000000000000e+00,3.411865234375000000e-02,-2.851562500000000000e-01,7.288208007812500000e-01,6.215209960937500000e-01
-1.000000000000000000e+00,0.000000000000000000e+00,-2.000000000000000000e+00,-1.000000000000000000e+00,0.000000000000000000e+00,-2.000000000000000000e+00,-1.000000000000000000e+00,-3.000000000000000000e+00,-5.432128906250000000e-03,-3.426513671875000000e-01,7.127075195312500000e-01,6.119995117187500000e-01
-2.000000000000000000e+00,2.000000000000000000e+00,0.000000000000000000e+00,-2.000000000000000000e+00,1.000000000000000000e+00,-3.000000000000000000e+00,-3.000000000000000000e+00,-2.000000000000000000e+00,-5.432128906250000000e-03,-3.426513671875000000e-01,7.127075195312500000e-01,6.119995117187500000e-01
0.000000000000000000e+00,1.000000000000000000e+00,-4.000000000000000000e+00,-5.000000000000000000e+00,-1.000000000000000000e+00,-6.000000000000000000e+00,-4.000000000000000000e+00,-1.000000000000000000e+00,-5.432128906250000000e-03,-3.426513671875000000e-01,7.127075195312500000e-01,6.119995117187500000e-01
-1.000000000000000000e+00,-5.000000000000000000e+00,-1.000000000000000000e+00,4.000000000000000000e+00,2.000000000000000000e+00,-6.000000000000000000e+00,-5.000000000000000000e+00,-3.000000000000000000e+00,-5.432128906250000000e-03,-3.426513671875000000e-01,7.127075195312500000e-01,6.119995117187500000e-01
0.000000000000000000e+00,-2.000000000000000000e+00,-5.000000000000000000e+00,-5.000000000000000000e+00,1.000000000000000000e+00,0.000000000000000000e+00,0.000000000000000000e+00,2.000000000000000000e+00,-1.330566406250000000e-02,-3.755493164062500000e-01,6.948242187500000000e-01,6.131591796875000000e-01
4.000000000000000000e+00,3.000000000000000000e+00,1.700000000000000000e+01,8.000000000000000000e+00,3.000000000000000000e+00,0.000000000000000000e+00,0.000000000000000000e+00,2.000000000000000000e+00,-1.330566406250000000e-02,-3.755493164062500000e-01,6.948242187500000000e-01,6.131591796875000000e-01
-1.000000000000000000e+00,-4.000000000000000000e+00,-6.000000000000000000e+00,8.000000000000000000e+00,3.000000000000000000e+00,0.000000000000000000e+00,-2.000000000000000000e+00,-2.000000000000000000e+00,-1.330566406250000000e-02,-3.755493164062500000e-01,6.948242187500000000e-01,6.131591796875000000e-01
-3.000000000000000000e+00,-9.000000000000000000e+00,1.000000000000000000e+00,0.000000000000000000e+00,-3.000000000000000000e+00,-1.000000000000000000e+00,-3.000000000000000000e+00,-3.000000000000000000e+00,-1.330566406250000000e-02,-3.755493164062500000e-01,6.948242187500000000e-01,6.131591796875000000e-01
-1.000000000000000000e+00,4.000000000000000000e+00,-2.000000000000000000e+01,-1.300000000000000000e+01,-2.000000000000000000e+00,-2.000000000000000000e+00,1.000000000000000000e+00,-1.000000000000000000e+00,-7.324218750000000000e-04,-3.762817382812500000e-01,6.927490234375000000e-01,6.151733398437500000e-01
-1.000000000000000000e+00,2.000000000000000000e+00,1.300000000000000000e+01,-6.000000000000000000e+00,-4.000000000000000000e+00,-4.000000000000000000e+00,1.000000000000000000e+00,1.000000000000000000e+00,-7.324218750000000000e-04,-3.762817382812500000e-01,6.927490234375000000e-01,6.151733398437500000e-01
-8.000000000000000000e+00,-8.000000000000000000e+00,-3.000000000000000000e+00,6.000000000000000000e+00,-6.000000000000000000e+00,-3.000000000000000000e+00,-4.000000000000000000e+00,-4.000000000000000000e+00,-7.324218750000000000e-04,-3.762817382812500000e-01,6.927490234375000000e-01,6.151733398437500000e-01
1.000000000000000000e+00,5.000000000000000000e+00,-9.000000000000000000e+00,-5.000000000000000000e+00,2.000000000000000000e+00,-1.000000000000000000e+00,-3.000000000000000000e+00,-1.000000000000000000e+00,-7.324218750000000000e-04,-3.762817382812500000e-01,6.927490234375000000e-01,6.151733398437500000e-01
-2.000000000000000000e+00,-3.000000000000000000e+00,3.000000000000000000e+00,-6.000000000000000000e+00,-3.000000000000000000e+00,-2.000000000000000000e+00,-2.000000000000000000e+00,-1.000000000000000000e+00,5.859375000000000000e-03,-3.682250976562500000e-01,7.003784179687500000e-01,6.113891601562500000e-01
3.000000000000000000e+00,1.000000000000000000e+00,-3.000000000000000000e+00,-1.000000000000000000e+00,4.000000000000000000e+00,3.000000000000000000e+00,2.000000000000000000e+00,0.000000000000000000e+00,5.859375000000000000e-03,-3.682250976562500000e-01,7.003784179687500000e-01,6.113891601562500000e-01
-1.000000000000000000e+00,-2.000000000000000000e+00,8.000000000000000000e+00,-7.000000000000000000e+00,-7.000000000000000000e+00,-9.000000000000000000e+00,-6.000000000000000000e+00,-3.000000000000000000e+00,5.859375000000000000e-03,-3.682250976562500000e-01,7.003784179687500000e-01,6.113891601562500000e-01
1.000000000000000000e+00,-4.000000000000000000e+00,-9.000000000000000000e+00,4.000000000000000000e+00,0.000000000000000000e+00,1.000000000000000000e+00,0.000000000000000000e+00,-1.000000000000000000e+00,5.859375000000000000e-03,-3.682250976562500000e-01,7.003784179687500000e-01,6.113891601562500000e-01
-2.000000000000000000e+00,1.000000000000000000e+00,1.000000000000000000e+01,-6.000000000000000000e+00,-4.000000000000000000e+00,3.000000000000000000e+00,-1.000000000000000000e+00,-1.000000000000000000e+00,1.385498046875000000e-02,-3.546142578125000000e-01,7.080688476562500000e-01,6.104736328125000000e-01
-3.000000000000000000e+00,1.000000000000000000e+00,-7.000000000000000000e+00,-1.800000000000000000e+01,-6.000000000000000000e+00,-1.100000000000000000e+01,-4.000000000000000000e+00,-4.000000000000000000e+00,1.385498046875000000e-02,-3.546142578125000000e-01,7.080688476562500000e-01,6.104736328125000000e-01
0.000000000000000000e+00,-4.000000000000000000e+00,1.500000000000000000e+01,3.100000000000000000e+01,2.200000000000000000e+01,2.000000000000000000e+00,0.000000000000000000e+00,-1.000000000000000000e+00,1.385498046875000000e-02,-3.546142578125000000e-01,7.080688476562500000e-01,6.104736328125000000e-01
1.000000000000000000e+01,3.000000000000000000e+00,-2.700000000000000000e+01,1.500000000000000000e+01,8.000000000000000000e+00,8.000000000000000000e+00,3.000000000000000000e+00,3.000000000000000000e+00,1.385498046875000000e-02,-3.546142578125000000e-01,7.080688476562500000e-01,6.104736328125000000e-01
-1.100000000000000000e+01,3.000000000000000000e+00,1.400000000000000000e+01,1.100000000000000000e+01,-9.000000000000000000e+00,-1.000000000000000000e+01,-5.000000000000000000e+00,-4.000000000000000000e+00,2.532958984375000000e-02,-3.393554687500000000e-01,7.132568359375000000e-01,6.126708984375000000e-01
-2.100000000000000000e+01,-2.500000000000000000e+01,-1.000000000000000000e+00,-6.000000000000000000e+00,-6.000000000000000000e+00,-1.000000000000000000e+00,0.000000000000000000e+00,-2.000000000000000000e+00,2.532958984375000000e-02,-3.393554687500000000e-01,7.132568359375000000e-01,6.126708984375000000e-01
2.400000000000000000e+01,7.000000000000000000e+00,3.200000000000000000e+01,-5.000000000000000000e+00,0.000000000000000000e+00,1.400000000000000000e+01,1.100000000000000000e+01,8.000000000000000000e+00,2.532958984375000000e-02,-3.393554687500000000e-01,7.132568359375000000e-01,6.126708984375000000e-01
6.000000000000000000e+00,-3.000000000000000000e+00,-1.000000000000000000e+01,-3.600000000000000000e+01,-2.400000000000000000e+01,-2.500000000000000000e+01,-1.000000000000000000e+01,0.000000000000000000e+00,2.532958984375000000e-02,-3.393554687500000000e-01,7.132568359375000000e-01,6.126708984375000000e-01
7.000000000000000000e+00,4.000000000000000000e+00,-3.200000000000000000e+01,8.000000000000000000e+00,-1.500000000000000000e+01,-1.900000000000000000e+01,-1.000000000000000000e+00,0.000000000000000000e+00,3.405761718750000000e-02,-3.356933593750000000e-01,7.135009765625000000e-01,6.140136718750000000e-01
3.000000000000000000e+00,3.000000000000000000e+00,2.000000000000000000e+01,6.000000000000000000e+00,-8.000000000000000000e+00,-1.500000000000000000e+01,-3.000000000000000000e+00,-2.000000000000000000e+00,3.405761718750000000e-02,-3.356933593750000000e-01,7.135009765625000000e-01,6.140136718750000000e-01
-2.200000000000000000e+01,-6.000000000000000000e+00,-3.100000000000000000e+01,-5.300000000000000000e+01,-1.000000000000000000e+01,3.100000000000000000e+01,-4.000000000000000000e+00,-9.000000000000000000e+00,3.405761718750000000e-02,-3.356933593750000000e-01,7.135009765625000000e-01,6.140136718750000000e-01
-2.000000000000000000e+00,1.100000000000000000e+01,9.400000000000000000e+01,8.000000000000000000e+01,-3.600000000000000000e+01,-2.000000000000000000e+00,1.100000000000000000e+01,4.000000000000000000e+00,3.405761718750000000e-02,-3.356933593750000000e-01,7.135009765625000000e-01,6.140136718750000000e-01
1.200000000000000000e+01,8.000000000000000000e+00,2.000000000000000000e+00,-2.900000000000000000e+01,5.400000000000000000e+01,7.100000000000000000e+01,6.000000000000000000e+00,4.000000000000000000e+00,3.137207031250000000e-02,-3.440551757812500000e-01,7.081298828125000000e-01,6.157836914062500000e-01
5.000000000000000000e+00,-1.000000000000000000e+00,-6.700000000000000000e+01,3.900000000000000000e+01,8.100000000000000000e+01,2.300000000000000000e+01,1.800000000000000000e+01,6.000000000000000000e+00,3.137207031250000000e-02,-3.440551757812500000e-01,7.081298828125000000e-01,6.157836914062500000e-01
-1.400000000000000000e+01,-1.100000000000000000e+01,1.300000000000000000e+01,5.000000000000000000e+00,-1.800000000000000000e+01,-2.400000000000000000e+01,-3.000000000000000000e+00,-4.000000000000000000e+00,3.137207031250000000e-02,-3.440551757812500000e-01,7.081298828125000000e-01,6.157836914062500000e-01
0.000000000000000000e+00,1.100000000000000000e+01,-1.600000000000000000e+01,-2.900000000000000000e+01,-4.000000000000000000e+00,-8.000000000000000000e+00,-2.000000000000000000e+00,-1.000000000000000000e+00,3.137207031250000000e-02,-3.440551757812500000e-01,7.081298828125000000e-01,6.157836914062500000e-01
-7.000000000000000000e+00,-1.700000000000000000e+01,1.000000000000000000e+00,-1.600000000000000000e+01,-4.200000000000000000e+01,-4.300000000000000000e+01,-1.400000000000000000e+01,-7.000000000000000000e+00,1.989746093750000000e-02,-3.536987304687500000e-01,7.015991210937500000e-01,6.182250976562500000e-01
-8.000000000000000000e+00,-1.000000000000000000e+00,-7.000000000000000000e+00,8.000000000000000000e+00,-8.000000000000000000e+00,3.000000000000000000e+00,-1.500000000000000000e+01,-1.300000000000000000e+01,1.989746093750000000e-02,-3.536987304687500000e-01,7.015991210937500000e-01,6.182250976562500000e-01
1.500000000000000000e+01,1.000000000000000000e+01,-1.400000000000000000e+01,-6.000000000000000000e+00,-4.100000000000000000e+01,-3.000000000000000000e+00,9.000000000000000000e+00,2.000000000000000000e+00,3.723144531250000000e-03,-3.560791015625000000e-01,6.961669921875000000e-01,6.233520507812500000e-01
0.000000000000000000e+00,1.300000000000000000e+01,-2.000000000000000000e+00,-2.400000000000000000e+01,1.000000000000000000e+00,-1.900000000000000000e+01,-1.000000000000000000e+00,7.000000000000000000e+00,3.723144531250000000e-03,-3.560791015625000000e-01,6.961669921875000000e-01,6.233520507812500000e-01
-1.200000000000000000e+01,-5.600000000000000000e+01,6.000000000000000000e+00,8.000000000000000000e+00,2.600000000000000000e+01,-1.000000000000000000e+01,-7.000000000000000000e+00,-3.000000000000000000e+00,3.723144531250000000e-03,-3.560791015625000000e-01,6.961669921875000000e-01,6.233520507812500000e-01
7.000000000000000000e+00,4.900000000000000000e+01,-1.400000000000000000e+01,-7.000000000000000000e+00,7.000000000000000000e+00,4.900000000000000000e+01,3.000000000000000000e+00,4.000000000000000000e+00,3.723144531250000000e-03,-3.560791015625000000e-01,6.961669921875000000e-01,6.233520507812500000e-01
-2.000000000000000000e+00,-1.100000000000000000e+01,1.100000000000000000e+01,6.000000000000000000e+00,1.600000000000000000e+01,-5.000000000000000000e+00,1.000000000000000000e+00,1.000000000000000000e+00,-1.092529296875000000e-02,-3.435058593750000000e-01,6.975708007812500000e-01,6.286621093750000000e-01
-7.000000000000000000e+00,-5.000000000000000000e+00,-1.200000000000000000e+01,-1.700000000000000000e+01,-2.400000000000000000e+01,1.000000000000000000e+00,-2.000000000000000000e+00,-4.000000000000000000e+00,-1.092529296875000000e-02,-3.435058593750000000e-01,6.975708007812500000e-01,6.286621093750000000e-01
1.000000000000000000e+01,1.200000000000000000e+01,-6.000000000000000000e+00,-6.000000000000000000e+00,-2.200000000000000000e+01,-1.200000000000000000e+01,5.000000000000000000e+00,5.000000000000000000e+00,-1.092529296875000000e-02,-3.435058593750000000e-01,6.975708007812500000e-01,6.286621093750000000e-01
-9.000000000000000000e+00,-2.600000000000000000e+01,1.600000000000000000e+01,1.100000000000000000e+01,-1.100000000000000000e+01,-1.800000000000000000e+01,-2.000000000000000000e+00,0.000000000000000000e+00,-1.092529296875000000e-02,-3.435058593750000000e-01,6.975708007812500000e-01,6.286621093750000000e-01
-7.000000000000000000e+00,5.000000000000000000e+00,-1.300000000000000000e+01,2.300000000000000000e+01,-1.000000000000000000e+00,-9.000000000000000000e+00,-8.000000000000000000e+00,-6.000000000000000000e+00,-2.813720703125000000e-02,-3.210449218750000000e-01,7.043457031250000000e-01,6.324462890625000000e-01
0.000000000000000000e+00,-4.000000000000000000e+00,-2.400000000000000000e+01,-3.100000000000000000e+01,7.000000000000000000e+00,-1.000000000000000000e+00,1.000000000000000000e+00,-1.000000000000000000e+00,-2.813720703125000000e-02,-3.210449218750000000e-01,7.043457031250000000e-01,6.324462890625000000e-01
3.000000000000000000e+00,3.800000000000000000e+01,2.800000000000000000e+01,-1.100000000000000000e+01,-1.900000000000000000e+01,-8.000000000000000000e+00,1.000000000000000000e+00,0.000000000000000000e+00,-2.813720703125000000e-02,-3.210449218750000000e-01,7.043457031250000000e-01,6.324462890625000000e-01
-2.000000000000000000e+00,-2.900000000000000000e+01,1.200000000000000000e+01,-4.000000000000000000e+00,-2.000000000000000000e+01,1.000000000000000000e+00,-7.000000000000000000e+00,-2.000000000000000000e+00,-2.813720703125000000e-02,-3.210449218750000000e-01,7.043457031250000000e-01,6.324462890625000000e-01
5.000000000000000000e+00,2.000000000000000000e+01,2.200000000000000000e+01,3.200000000000000000e+01,3.600000000000000000e+01,1.900000000000000000e+01,5.000000000000000000e+00,0.000000000000000000e+00,-4.901123046875000000e-02,-2.930908203125000000e-01,7.105712890625000000e-01,6.377563476562500000e-01
-3.000000000000000000e+00,-1.100000000000000000e+01,-1.000000000000000000e+01,1.000000000000000000e+00,2.800000000000000000e+01,1.000000000000000000e+01,-1.000000000000000000e+00,-1.000000000000000000e+00,-4.901123046875000000e-02,-2.930908203125000000e-01,7.105712890625000000e-01,6.377563476562500000e-01
1.000000000000000000e+00,-1.000000000000000000e+00,-4.000000000000000000e+00,-7.000000000000000000e+00,-1.000000000000000000e+01,1.000000000000000000e+00,1.000000000000000000e+00,-2.000000000000000000e+00,-4.901123046875000000e-02,-2.930908203125000000e-01,7.105712890625000000e-01,6.377563476562500000e-01
-2.000000000000000000e+00,5.000000000000000000e+00,0.000000000000000000e+00,1.000000000000000000e+00,-1.600000000000000000e+01,-2.400000000000000000e+01,-6.000000000000000000e+00,-4.000000000000000000e+00,-4.901123046875000000e-02,-2.930908203125000000e-01,7.105712890625000000e-01,6.377563476562500000e-01
1.000000000000000000e+00,1.000000000000000000e+01,-1.200000000000000000e+01,-4.500000000000000000e+01,-3.500000000000000000e+01,-2.600000000000000000e+01,-8.000000000000000000e+00,1.000000000000000000e+00,-7.940673828125000000e-02,-2.669067382812500000e-01,7.164306640625000000e-01,6.395874023437500000e-01
1.000000000000000000e+00,-2.900000000000000000e+01,-1.000000000000000000e+01,3.600000000000000000e+01,5.900000000000000000e+01,4.400000000000000000e+01,1.000000000000000000e+01,2.000000000000000000e+00,-7.940673828125000000e-02,-2.669067382812500000e-01,7.164306640625000000e-01,6.395874023437500000e-01
-6.000000000000000000e+00,-3.000000000000000000e+00,1.000000000000000000e+01,1.400000000000000000e+01,-1.000000000000000000e+00,8.000000000000000000e+00,3.000000000000000000e+00,-1.000000000000000000e+00,-7.940673828125000000e-02,-2.669067382812500000e-01,7.164306640625000000e-01,6.395874023437500000e-01
5.000000000000000000e+00,0.000000000000000000e+00,-1.300000000000000000e+01,-2.700000000000000000e+01,-1.700000000000000000e+01,-5.000000000000000000e+00,5.000000000000000000e+00,5.000000000000000000e+00,-7.940673828125000000e-02,-2.669067382812500000e-01,7.164306640625000000e-01,6.395874023437500000e-01
-2.000000000000000000e+00,-8.000000000000000000e+00,-1.700000000000000000e+01,-5.000000000000000000e+00,-5.000000000000000000e+00,-8.000000000000000000e+00,-6.000000000000000000e+00,-5.000000000000000000e+00,-1.160888671875000000e-01,-2.413330078125000000e-01,7.218627929687500000e-01,6.380615234375000000e-01
-1.500000000000000000e+01,-9.000000000000000000e+00,3.500000000000000000e+01,-1.100000000000000000e+01,-1.300000000000000000e+01,-2.400000000000000000e+01,-1.800000000000000000e+01,-1.500000000000000000e+01,-1.160888671875000000e-01,-2.413330078125000000e-01,7.218627929687500000e-01,6.380615234375000000e-01
6.000000000000000000e+00,2.300000000000000000e+01,1.700000000000000000e+01,6.400000000000000000e+01,4.600000000000000000e+01,-2.000000000000000000e+00,7.000000000000000000e+00,7.000000000000000000e+00,-1.160888671875000000e-01,-2.413330078125000000e-01,7.218627929687500000e-01,6.380615234375000000e-01
9.000000000000000000e+00,7.000000000000000000e+00,-5.000000000000000000e+00,-8.000000000000000000e+00,2.300000000000000000e+01,3.500000000000000000e+01,7.000000000000000000e+00,8.000000000000000000e+00,-1.160888671875000000e-01,-2.413330078125000000e-01,7.218627929687500000e-01,6.380615234375000000e-01
-1.000000000000000000e+00,-1.000000000000000000e+01,-2.900000000000000000e+01,-1.300000000000000000e+01,-1.000000000000000000e+00,-7.000000000000000000e+00,1.000000000000000000e+00,0.000000000000000000e+00,-1.523437500000000000e-01,-2.097778320312500000e-01,7.265625000000000000e-01,6.362304687500000000e-01
0.000000000000000000e+00,1.100000000000000000e+01,9.000000000000000000e+00,-1.000000000000000000e+00,-3.300000000000000000e+01,-4.000000000000000000e+00,-5.000000000000000000e+00,-1.000000000000000000e+00,-1.523437500000000000e-01,-2.097778320312500000e-01,7.265625000000000000e-01,6.362304687500000000e-01
-6.000000000000000000e+00,-7.000000000000000000e+00,8.000000000000000000e+00,0.000000000000000000e+00,-4.000000000000000000e+00,-1.400000000000000000e+01,-6.000000000000000000e+00,-6.000000000000000000e+00,-1.523437500000000000e-01,-2.097778320312500000e-01,7.265625000000000000e-01,6.362304687500000000e-01
-1.000000000000000000e+00,-2.000000000000000000e+00,-3.000000000000000000e+00,-1.200000000000000000e+01,2.000000000000000000e+00,8.000000000000000000e+00,-3.000000000000000000e+00,-3.000000000000000000e+00,-1.523437500000000000e-01,-2.097778320312500000e-01,7.265625000000000000e-01,6.362304687500000000e-01
2.000000000000000000e+00,4.000000000000000000e+00,1.000000000000000000e+00,-8.000000000000000000e+00,-2.100000000000000000e+01,-2.000000000000000000e+00,3.000000000000000000e+00,3.000000000000000000e+00,-1.856689453125000000e-01,-1.727905273437500000e-01,7.303466796875000000e-01,6.342163085937500000e-01
1.000000000000000000e+00,0.000000000000000000e+00,-5.000000000000000000e+00,1.400000000000000000e+01,1.300000000000000000e+01,1.500000000000000000e+01,3.000000000000000000e+00,1.000000000000000000e+00,-1.856689453125000000e-01,-1.727905273437500000e-01,7.303466796875000000e-01,6.342163085937500000e-01
-2.000000000000000000e+00,-7.000000000000000000e+00,-1.500000000000000000e+01,-3.000000000000000000e+01,1.000000000000000000e+01,-7.000000000000000000e+00,1.000000000000000000e+00,1.000000000000000000e+00,-1.856689453125000000e-01,-1.727905273437500000e-01,7.303466796875000000e-01,6.342163085937500000e-01
-1.000000000000000000e+00,2.000000000000000000e+00,-6.000000000000000000e+00,2.200000000000000000e+01,5.000000000000000000e+00,-1.000000000000000000e+01,-6.000000000000000000e+00,-2.000000000000000000e+00,-1.856689453125000000e-01,-1.727905273437500000e-01,7.303466796875000000e-01,6.342163085937500000e-01
-1.000000000000000000e+00,2.000000000000000000e+00,1.500000000000000000e+01,-6.000000000000000000e+00,-1.500000000000000000e+01,-7.000000000000000000e+00,-2.000000000000000000e+00,-2.000000000000000000e+00,-2.168579101562500000e-01,-1.325683593750000000e-01,7.327880859375000000e-01,6.311645507812500000e-01
-4.000000000000000000e+00,-8.000000000000000000e+00,-8.000000000000000000e+00,7.000000000000000000e+00,-3.600000000000000000e+01,-1.200000000000000000e+01,-5.000000000000000000e+00,-6.000000000000000000e+00,-2.168579101562500000e-01,-1.325683593750000000e-01,7.327880859375000000e-01,6.311645507812500000e-01
-3.000000000000000000e+00,-2.000000000000000000e+00,-1.400000000000000000e+01,-1.900000000000000000e+01,1.700000000000000000e+01,1.600000000000000000e+01,-3.000000000000000000e+00,-4.000000000000000000e+00,-2.168579101562500000e-01,-1.325683593750000000e-01,7.327880859375000000e-01,6.311645507812500000e-01
0.000000000000000000e+00,-1.400000000000000000e+01,-6.000000000000000000e+00,-1.600000000000000000e+01,-1.200000000000000000e+01,1.000000000000000000e+00,4.000000000000000000e+00,0.000000000000000000e+00,-2.168579101562500000e-01,-1.325683593750000000e-01,7.327880859375000000e-01,6.311645507812500000e-01
2.000000000000000000e+00,4.000000000000000000e+00,8.000000000000000000e+00,1.200000000000000000e+01,2.400000000000000000e+01,-7.000000000000000000e+00,-1.000000000000000000e+00,1.000000000000000000e+00,-2.474365234375000000e-01,-9.130859375000000000e-02,7.338256835937500000e-01,6.259765625000000000e-01
-1.000000000000000000e+00,-3.000000000000000000e+00,-1.400000000000000000e+01,-1.500000000000000000e+01,-1.400000000000000000e+01,-1.000000000000000000e+00,0.000000000000000000e+00,-3.000000000000000000e+00,-2.474365234375000000e-01,-9.130859375000000000e-02,7.338256835937500000e-01,6.259765625000000000e-01
0.000000000000000000e+00,3.000000000000000000e+00,-1.000000000000000000e+00,9.000000000000000000e+00,2.000000000000000000e+00,4.000000000000000000e+00,-2.000000000000000000e+00,-1.000000000000000000e+00,-2.474365234375000000e-01,-9.130859375000000000e-02,7.338256835937500000e-01,6.259765625000000000e-01
0.000000000000000000e+00,0.000000000000000000e+00,1.800000000000000000e+01,9.000000000000000000e+00,-1.100000000000000000e+01,-1.000000000000000000e+01,-2.000000000000000000e+00,-3.000000000000000000e+00,-2.474365234375000000e-01,-9.130859375000000000e-02,7.338256835937500000e-01,6.259765625000000000e-01
-3.000000000000000000e+00,-1.600000000000000000e+01,-1.000000000000000000e+01,-1.000000000000000000e+01,-2.000000000000000000e+00,-3.000000000000000000e+00,-5.000000000000000000e+00,0.000000000000000000e+00,-2.778930664062500000e-01,-5.114746093750000000e-02,7.326660156250000000e-01,6.190795898437500000e-01
-1.000000000000000000e+00,1.000000000000000000e+01,-4.000000000000000000e+00,1.400000000000000000e+01,1.400000000000000000e+01,-1.100000000000000000e+01,-1.000000000000000000e+00,-1.000000000000000000e+00,-2.778930664062500000e-01,-5.114746093750000000e-02,7.326660156250000000e-01,6.190795898437500000e-01
-2.000000000000000000e+00,-6.000000000000000000e+00,-1.600000000000000000e+01,-6.000000000000000000e+00,-3.200000000000000000e+01,9.000000000000000000e+00,0.000000000000000000e+00,-1.000000000000000000e+00,-2.778930664062500000e-01,-5.114746093750000000e-02,7.326660156250000000e-01,6.190795898437500000e-01
1.000000000000000000e+00,9.000000000000000000e+00,2.000000000000000000e+01,2.000000000000000000e+00,1.900000000000000000e+01,-5.000000000000000000e+00,1.000000000000000000e+00,0.000000000000000000e+00,-2.778930664062500000e-01,-5.114746093750000000e-02,7.326660156250000000e-01,6.190795898437500000e-01
-6.000000000000000000e+00,-6.000000000000000000e+00,2.000000000000000000e+00,-1.000000000000000000e+00,2.000000000000000000e+00,0.000000000000000000e+00,-1.000000000000000000e+00,0.000000000000000000e+00,-3.063354492187500000e-01,-1.129150390625000000e-02,7.301025390625000000e-01,6.106567382812500000e-01
4.000000000000000000e+00,2.100000000000000000e+01,-6.000000000000000000e+00,-3.000000000000000000e+00,9.000000000000000000e+00,4.000000000000000000e+00,1.000000000000000000e+00,2.000000000000000000e+00,-3.063354492187500000e-01,-1.129150390625000000e-02,7.301025390625000000e-01,6.106567382812500000e-01
-6.000000000000000000e+00,-2.000000000000000000e+01,5.000000000000000000e+00,-2.000000000000000000e+00,-1.200000000000000000e+01,-6.000000000000000000e+00,-4.000000000000000000e+00,-3.000000000000000000e+00,-3.063354492187500000e-01,-1.129150390625000000e-02,7.301025390625000000e-01,6.106567382812500000e-01
-1.000000000000000000e+00,-2.000000000000000000e+00,-1.100000000000000000e+01,-8.000000000000000000e+00,-1.700000000000000000e+01,-1.500000000000000000e+01,-1.000000000000000000e+00,-2.000000000000000000e+00,-3.063354492187500000e-01,-1.129150390625000000e-02,7.301025390625000000e-01,6.106567382812500000e-01
5.000000000000000000e+00,8.000000000000000000e+00,1.000000000000000000e+00,5.000000000000000000e+00,8.000000000000000000e+00,3.000000000000000000e+00,2.000000000000000000e+00,3.000000000000000000e+00,-3.309326171875000000e-01,2.941894531250000000e-02,7.269287109375000000e-01,6.009521484375000000e-01
0.000000000000000000e+00,1.000000000000000000e+00,4.000000000000000000e+00,1.500000000000000000e+01,8.000000000000000000e+00,2.200000000000000000e+01,3.000000000000000000e+00,-1.000000000000000000e+00,-3.309326171875000000e-01,2.941894531250000000e-02,7.269287109375000000e-01,6.009521484375000000e-01
-3.000000000000000000e+00,-6.000000000000000000e+00,3.000000000000000000e+00,1.000000000000000000e+01,0.000000000000000000e+00,-1.200000000000000000e+01,-6.000000000000000000e+00,-4.000000000000000000e+00,-3.309326171875000000e-01,2.941894531250000000e-02,7.269287109375000000e-01,6.009521484375000000e-01
-2.000000000000000000e+00,-1.200000000000000000e+01,-7.000000000000000000e+00,-9.000000000000000000e+00,-2.000000000000000000e+00,-9.000000000000000000e+00,0.000000000000000000e+00,-2.000000000000000000e+00,-3.309326171875000000e-01,2.941894531250000000e-02,7.269287109375000000e-01,6.009521484375000000e-01
-2.000000000000000000e+00,1.600000000000000000e+01,-5.000000000000000000e+00,-1.000000000000000000e+01,2.000000000000000000e+00,5.000000000000000000e+00,-2.000000000000000000e+00,0.000000000000000000e+00,-3.521728515625000000e-01,6.976318359375000000e-02,7.224731445312500000e-01,5.908203125000000000e-01
-1.000000000000000000e+00,-9.000000000000000000e+00,8.000000000000000000e+00,1.700000000000000000e+01,1.600000000000000000e+01,0.000000000000000000e+00,2.000000000000000000e+00,4.000000000000000000e+00,-3.521728515625000000e-01,6.976318359375000000e-02,7.224731445312500000e-01,5.908203125000000000e-01
-1.000000000000000000e+00,6.000000000000000000e+00,-5.000000000000000000e+00,-2.000000000000000000e+00,-1.100000000000000000e+01,-1.300000000000000000e+01,-1.000000000000000000e+00,-1.000000000000000000e+00,-3.521728515625000000e-01,6.976318359375000000e-02,7.224731445312500000e-01,5.908203125000000000e-01
-3.000000000000000000e+00,-5.000000000000000000e+00,2.000000000000000000e+00,-3.000000000000000000e+00,-7.000000000000000000e+00,1.100000000000000000e+01,-3.000000000000000000e+00,-3.000000000000000000e+00,-3.521728515625000000e-01,6.976318359375000000e-02,7.224731445312500000e-01,5.908203125000000000e-01
1.000000000000000000e+00,-1.100000000000000000e+01,-1.200000000000000000e+01,-4.000000000000000000e+00,5.000000000000000000e+00,1.000000000000000000e+00,-1.000000000000000000e+00,-1.000000000000000000e+00,-3.711547851562500000e-01,1.071166992187500000e-01,7.166748046875000000e-01,5.806274414062500000e-01
-2.000000000000000000e+00,-1.000000000000000000e+00,7.000000000000000000e+00,-8.000000000000000000e+00,-2.000000000000000000e+00,-1.000000000000000000e+00,-1.000000000000000000e+00,-4.000000000000000000e+00,-3.711547851562500000e-01,1.071166992187500000e-01,7.166748046875000000e-01,5.806274414062500000e-01
-1.000000000000000000e+00,3.000000000000000000e+00,-5.000000000000000000e+00,2.000000000000000000e+00,0.000000000000000000e+00,3.000000000000000000e+00,1.000000000000000000e+00,1.000000000000000000e+00,-3.711547851562500000e-01,1.071166992187500000e-01,7.166748046875000000e-01,5.806274414062500000e-01
-1.000000000000000000e+00,3.000000000000000000e+00,5.000000000000000000e+00,4.000000000000000000e+00,-5.000000000000000000e+00,-7.000000000000000000e+00,-2.000000000000000000e+00,0.000000000000000000e+00,-3.711547851562500000e-01,1.071166992187500000e-01,7.166748046875000000e-01,5.806274414062500000e-01
-1.000000000000000000e+00,-2.000000000000000000e+00,-4.000000000000000000e+00,9.000000000000000000e+00,7.000000000000000000e+00,6.000000000000000000e+00,-2.000000000000000000e+00,-1.000000000000000000e+00,-3.864135742187500000e-01,1.417236328125000000e-01,7.106933593750000000e-01,5.704956054687500000e-01
-3.000000000000000000e+00,-4.000000000000000000e+00,-6.000000000000000000e+00,-2.000000000000000000e+01,-5.000000000000000000e+00,-4.000000000000000000e+00,-2.000000000000000000e+00,-1.000000000000000000e+00,-3.864135742187500000e-01,1.417236328125000000e-01,7.106933593750000000e-01,5.704956054687500000e-01
-5.000000000000000000e+00,-1.000000000000000000e+00,1.000000000000000000e+00,0.000000000000000000e+00,1.000000000000000000e+00,5.000000000000000000e+00,1.000000000000000000e+00,2.000000000000000000e+00,-3.864135742187500000e-01,1.417236328125000000e-01,7.106933593750000000e-01,5.704956054687500000e-01
6.000000000000000000e+00,-3.000000000000000000e+00,1.000000000000000000e+01,1.100000000000000000e+01,-4.000000000000000000e+00,-3.000000000000000000e+00,-1.000000000000000000e+00,-5.000000000000000000e+00,-3.864135742187500000e-01,1.417236328125000000e-01,7.106933593750000000e-01,5.704956054687500000e-01
-1.000000000000000000e+00,-1.000000000000000000e+00,-4.000000000000000000e+00,-1.000000000000000000e+00,-2.000000000000000000e+00,1.000000000000000000e+00,1.000000000000000000e+00,-3.000000000000000000e+00,-3.984985351562500000e-01,1.729125976562500000e-01,7.054443359375000000e-01,5.599365234375000000e-01
-2.000000000000000000e+00,-1.400000000000000000e+01,2.000000000000000000e+00,-2.000000000000000000e+00,3.000000000000000000e+00,-4.000000000000000000e+00,1.000000000000000000e+00,2.000000000000000000e+00,-3.984985351562500000e-01,1.729125976562500000e-01,7.054443359375000000e-01,5.599365234375000000e-01
-3.000000000000000000e+00,3.000000000000000000e+00,-9.000000000000000000e+00,-1.000000000000000000e+00,0.000000000000000000e+00,3.000000000000000000e+00,-1.000000000000000000e+00,-3.000000000000000000e+00,-3.984985351562500000e-01,1.729125976562500000e-01,7.054443359375000000e-01,5.599365234375000000e-01
-2.000000000000000000e+00,7.000000000000000000e+00,-8.000000000000000000e+00,-7.000000000000000000e+00,-3.000000000000000000e+00,-5.000000000000000000e+00,-1.000000000000000000e+00,0.000000000000000000e+00,-3.984985351562500000e-01,1.729125976562500000e-01,7.054443359375000000e-01,5.599365234375000000e-01
-2.000000000000000000e+00,-6.000000000000000000e+00,4.000000000000000000e+00,5.000000000000000000e+00,2.000000000000000000e+00,-2.000000000000000000e+00,-2.000000000000000000e+00,-1.000000000000000000e+00,-4.082641601562500000e-01,2.001953125000000000e-01,7.010498046875000000e-01,5.493164062500000000e-01
0.000000000000000000e+00,-2.000000000000000000e+00,-5.000000000000000000e+00,-1.500000000000000000e+01,-6.000000000000000000e+00,-3.000000000000000000e+00,-1.000000000000000000e+00,-3.000000000000000000e+00,-4.082641601562500000e-01,2.001953125000000000e-01,7.010498046875000000e-01,5.493164062500000000e-01
1.000000000000000000e+00,-1.400000000000000000e+01,-1.300000000000000000e+01,-8.000000000000000000e+00,-8.000000000000000000e+00,0.000000000000000000e+00,0.000000000000000000e+00,-1.000000000000000000e+00,-4.082641601562500000e-01,2.001953125000000000e-01,7.010498046875000000e-01,5.493164062500000000e-01
-3.000000000000000000e+00,2.000000000000000000e+00,1.400000000000000000e+01,1.800000000000000000e+01,7.000000000000000000e+00,5.000000000000000000e+00,4.000000000000000000e+00,-1.000000000000000000e+00,-4.082641601562500000e-01,2.001953125000000000e-01,7.010498046875000000e-01,5.493164062500000000e-01
0.000000000000000000e+00,-5.000000000000000000e+00,-2.000000000000000000e+00,-6.000000000000000000e+00,-8.000000000000000000e+00,-7.000000000000000000e+00,-3.000000000000000000e+00,-3.000000000000000000e+00,-4.155273437500000000e-01,2.239990234375000000e-01,6.968383789062500000e-01,5.399780273437500000e-01
2.000000000000000000e+00,0.000000000000000000e+00,-1.600000000000000000e+01,-8.000000000000000000e+00,1.400000000000000000e+01,3.000000000000000000e+00,2.000000000000000000e+00,2.000000000000000000e+00,-4.155273437500000000e-01,2.239990234375000000e-01,6.968383789062500000e-01,5.399780273437500000e-01
-3.000000000000000000e+00,-5.000000000000000000e+00,1.400000000000000000e+01,1.700000000000000000e+01,0.000000000000000000e+00,-1.000000000000000000e+00,-3.000000000000000000e+00,-1.000000000000000000e+00,-4.155273437500000000e-01,2.239990234375000000e-01,6.968383789062500000e-01,5.399780273437500000e-01
-4.000000000000000000e+00,3.000000000000000000e+00,-1.000000000000000000e+00,-9.000000000000000000e+00,-1.000000000000000000e+01,-9.000000000000000000e+00,-5.000000000000000000e+00,-1.000000000000000000e+00,-4.155273437500000000e-01,2.239990234375000000e-01,6.968383789062500000e-01,5.399780273437500000e-01
0.000000000000000000e+00,-3.000000000000000000e+00,-1.100000000000000000e+01,-5.000000000000000000e+00,4.000000000000000000e+00,3.000000000000000000e+00,0.000000000000000000e+00,-1.000000000000000000e+00,-4.196166992187500000e-01,2.455444335937500000e-01,6.923828125000000000e-01,5.330810546875000000e-01
4.000000000000000000e+00,6.000000000000000000e+00,-4.000000000000000000e+00,-5.000000000000000000e+00,-6.000000000000000000e+00,-3.000000000000000000e+00,-2.000000000000000000e+00,-1.000000000000000000e+00,-4.196166992187500000e-01,2.455444335937500000e-01,6.923828125000000000e-01,5.330810546875000000e-01
-1.000000000000000000e+00,5.000000000000000000e+00,1.500000000000000000e+01,1.100000000000000000e+01,-2.000000000000000000e+00,-1.000000000000000000e+00,-1.000000000000000000e+00,-1.000000000000000000e+00,-4.196166992187500000e-01,2.455444335937500000e-01,6.923828125000000000e-01,5.330810546875000000e-01
0.000000000000000000e+00,-1.300000000000000000e+01,-1.800000000000000000e+01,-8.000000000000000000e+00,-2.000000000000000000e+00,-6.000000000000000000e+00,-3.000000000000000000e+00,-2.000000000000000000e+00,-4.196166992187500000e-01,2.455444335937500000e-01,6.923828125000000000e-01,5.330810546875000000e-01
0.000000000000000000e+00,1.800000000000000000e+01,2.000000000000000000e+01,0.000000000000000000e+00,-1.200000000000000000e+01,-2.000000000000000000e+00,0.000000000000000000e+00,0.000000000000000000e+00,-4.220581054687500000e-01,2.642211914062500000e-01,6.873168945312500000e-01,5.287475585937500000e-01
-4.000000000000000000e+00,-1.100000000000000000e+01,-2.300000000000000000e+01,-1.800000000000000000e+01,3.000000000000000000e+00,0.000000000000000000e+00,-1.000000000000000000e+00,0.000000000000000000e+00,-4.220581054687500000e-01,2.642211914062500000e-01,6.873168945312500000e-01,5.287475585937500000e-01
-1.000000000000000000e+00,7.000000000000000000e+00,1.000000000000000000e+00,-9.000000000000000000e+00,-4.000000000000000000e+00,0.000000000000000000e+00,-2.000000000000000000e+00,-4.000000000000000000e+00,-4.220581054687500000e-01,2.642211914062500000e-01,6.873168945312500000e-01,5.287475585937500000e-01
-3.000000000000000000e+00,-5.000000000000000000e+00,6.000000000000000000e+00,3.000000000000000000e+00,9.000000000000000000e+00,3.000000000000000000e+00,2.000000000000000000e+00,1.000000000000000000e+00,-4.220581054687500000e-01,2.642211914062500000e-01,6.873168945312500000e-01,5.287475585937500000e-01
3.000000000000000000e+00,-1.600000000000000000e+01,-1.100000000000000000e+01,1.400000000000000000e+01,1.000000000000000000e+01,3.000000000000000000e+00,1.000000000000000000e+00,3.000000000000000000e+00,-4.208374023437500000e-01,2.810668945312500000e-01,6.831665039062500000e-01,5.264282226562500000e-01
-2.000000000000000000e+00,1.500000000000000000e+01,2.600000000000000000e+01,9.000000000000000000e+00,-8.000000000000000000e+00,-2.000000000000000000e+00,-2.000000000000000000e+00,-3.000000000000000000e+00,-4.208374023437500000e-01,2.810668945312500000e-01,6.831665039062500000e-01,5.264282226562500000e-01
5.000000000000000000e+00,6.000000000000000000e+00,-7.000000000000000000e+00,5.000000000000000000e+00,1.100000000000000000e+01,3.000000000000000000e+00,1.000000000000000000e+00,2.000000000000000000e+00,-4.208374023437500000e-01,2.810668945312500000e-01,6.831665039062500000e-01,5.264282226562500000e-01
-5.000000000000000000e+00,-1.400000000000000000e+01,-3.000000000000000000e+00,-9.000000000000000000e+00,-9.000000000000000000e+00,-6.000000000000000000e+00,-2.000000000000000000e+00,-2.000000000000000000e+00,-4.208374023437500000e-01,2.810668945312500000e-01,6.831665039062500000e-01,5.264282226562500000e-01
-3.000000000000000000e+00,1.000000000000000000e+00,-9.000000000000000000e+00,-1.000000000000000000e+01,-5.000000000000000000e+00,-4.000000000000000000e+00,-3.000000000000000000e+00,-3.000000000000000000e+00,-4.171752929687500000e-01,2.952270507812500000e-01,6.795043945312500000e-01,5.263671875000000000e-01
-1.000000000000000000e+00,-1.000000000000000000e+01,-1.100000000000000000e+01,-1.400000000000000000e+01,-7.000000000000000000e+00,-1.000000000000000000e+00,-1.000000000000000000e+00,-1.000000000000000000e+00,-4.171752929687500000e-01,2.952270507812500000e-01,6.795043945312500000e-01,5.263671875000000000e-01
1.000000000000000000e+00,-1.600000000000000000e+01,7.000000000000000000e+00,1.400000000000000000e+01,0.000000000000000000e+00,2.000000000000000000e+00,0.000000000000000000e+00,-1.000000000000000000e+00,-4.171752929687500000e-01,2.952270507812500000e-01,6.795043945312500000e-01,5.263671875000000000e-01
1.000000000000000000e+00,2.800000000000000000e+01,4.000000000000000000e+00,-5.000000000000000000e+00,-8.000000000000000000e+00,-5.000000000000000000e+00,-2.000000000000000000e+00,-1.000000000000000000e+00,-4.171752929687500000e-01,2.952270507812500000e-01,6.795043945312500000e-01,5.263671875000000000e-01
-4.000000000000000000e+00,-5.000000000000000000e+00,-4.000000000000000000e+00,3.000000000000000000e+00,8.000000000000000000e+00,3.000000000000000000e+00,2.000000000000000000e+00,0.000000000000000000e+00,-4.160156250000000000e-01,3.048095703125000000e-01,6.754760742187500000e-01,5.269775390625000000e-01
-6.000000000000000000e+00,-1.000000000000000000e+01,-1.000000000000000000e+00,4.000000000000000000e+00,1.000000000000000000e+00,-2.000000000000000000e+00,-2.000000000000000000e+00,-2.000000000000000000e+00,-4.160156250000000000e-01,3.048095703125000000e-01,6.754760742187500000e-01,5.269775390625000000e-01
-2.000000000000000000e+00,-2.000000000000000000e+00,-2.300000000000000000e+01,-1.200000000000000000e+01,-4.000000000000000000e+00,-2.000000000000000000e+00,-2.000000000000000000e+00,-1.000000000000000000e+00,-4.160156250000000000e-01,3.048095703125000000e-01,6.754760742187500000e-01,5.269775390625000000e-01
7.000000000000000000e+00,4.000000000000000000e+00,1.000000000000000000e+01,4.000000000000000000e+00,6.000000000000000000e+00,4.000000000000000000e+00,4.000000000000000000e+00,4.000000000000000000e+00,-4.160156250000000000e-01,3.048095703125000000e-01,6.754760742187500000e-01,5.269775390625000000e-01
-7.000000000000000000e+00,-4.000000000000000000e+00,3.000000000000000000e+00,1.000000000000000000e+00,-1.000000000000000000e+00,-1.000000000000000000e+00,-2.000000000000000000e+00,-4.000000000000000000e+00,-4.161376953125000000e-01,3.124389648437500000e-01,6.715698242187500000e-01,5.273437500000000000e-01
1.000000000000000000e+00,1.000000000000000000e+01,2.000000000000000000e+00,0.000000000000000000e+00,-2.000000000000000000e+00,-3.000000000000000000e+00,-2.000000000000000000e+00,-1.000000000000000000e+00,-4.161376953125000000e-01,3.124389648437500000e-01,6.715698242187500000e-01,5.273437500000000000e-01
0.000000000000000000e+00,-9.000000000000000000e+00,-6.000000000000000000e+00,-1.000000000000000000e+00,0.000000000000000000e+00,0.000000000000000000e+00,-1.000000000000000000e+00,0.000000000000000000e+00,-4.161376953125000000e-01,3.124389648437500000e-01,6.715698242187500000e-01,5.273437500000000000e-01
-4.000000000000000000e+00,-7.000000000000000000e+00,-4.000000000000000000e+00,-2.000000000000000000e+00,-2.000000000000000000e+00,0.000000000000000000e+00,0.000000000000000000e+00,-3.000000000000000000e+00,-4.161376953125000000e-01,3.124389648437500000e-01,6.715698242187500000e-01,5.273437500000000000e-01
1.000000000000000000e+00,4.000000000000000000e+00,3.000000000000000000e+00,5.000000000000000000e+00,6.000000000000000000e+00,2.000000000000000000e+00,1.000000000000000000e+00,1.000000000000000000e+00,-4.165039062500000000e-01,3.198852539062500000e-01,6.672973632812500000e-01,5.280761718750000000e-01
0.000000000000000000e+00,0.000000000000000000e+00,-4.000000000000000000e+00,2.000000000000000000e+00,-5.000000000000000000e+00,0.000000000000000000e+00,0.000000000000000000e+00,-2.000000000000000000e+00,-4.165039062500000000e-01,3.198852539062500000e-01,6.672973632812500000e-01,5.280761718750000000e-01
2.000000000000000000e+00,1.000000000000000000e+01,-9.000000000000000000e+00,-2.700000000000000000e+01,-1.000000000000000000e+00,-2.000000000000000000e+00,-1.000000000000000000e+00,-1.000000000000000000e+00,-4.165039062500000000e-01,3.198852539062500000e-01,6.672973632812500000e-01,5.280761718750000000e-01
-2.000000000000000000e+00,1.000000000000000000e+00,7.000000000000000000e+00,1.600000000000000000e+01,-1.000000000000000000e+01,-5.000000000000000000e+00,-5.000000000000000000e+00,0.000000000000000000e+00,-4.165039062500000000e-01,3.198852539062500000e-01,6.672973632812500000e-01,5.280761718750000000e-01
2.000000000000000000e+00,-8.000000000000000000e+00,1.000000000000000000e+01,5.000000000000000000e+00,4.000000000000000000e+00,-1.000000000000000000e+00,-1.000000000000000000e+00,-1.000000000000000000e+00,-4.172973632812500000e-01,3.256835937500000000e-01,6.633300781250000000e-01,5.288696289062500000e-01
-4.000000000000000000e+00,-1.000000000000000000e+00,1.400000000000000000e+01,8.000000000000000000e+00,-5.000000000000000000e+00,-3.000000000000000000e+00,-3.000000000000000000e+00,-3.000000000000000000e+00,-4.172973632812500000e-01,3.256835937500000000e-01,6.633300781250000000e-01,5.288696289062500000e-01
-4.000000000000000000e+00,1.000000000000000000e+01,2.400000000000000000e+01,4.000000000000000000e+00,4.000000000000000000e+00,3.000000000000000000e+00,1.000000000000000000e+00,-3.000000000000000000e+00,-4.172973632812500000e-01,3.256835937500000000e-01,6.633300781250000000e-01,5.288696289062500000e-01
-5.000000000000000000e+00,-1.700000000000000000e+01,-1.600000000000000000e+01,-8.000000000000000000e+00,4.000000000000000000e+00,3.000000000000000000e+00,0.000000000000000000e+00,0.000000000000000000e+00,-4.172973632812500000e-01,3.256835937500000000e-01,6.633300781250000000e-01,5.288696289062500000e-01
1.000000000000000000e+00,6.000000000000000000e+00,-1.500000000000000000e+01,-1.500000000000000000e+01,-5.000000000000000000e+00,-1.000000000000000000e+00,-3.000000000000000000e+00,1.000000000000000000e+00,-4.188842773437500000e-01,3.292236328125000000e-01,6.601562500000000000e-01,5.294189453125000000e-01
0.000000000000000000e+00,-8.000000000000000000e+00,2.000000000000000000e+00,6.000000000000000000e+00,-5.000000000000000000e+00,-3.000000000000000000e+00,-3.000000000000000000e+00,2.000000000000000000e+00,-4.188842773437500000e-01,3.292236328125000000e-01,6.601562500000000000e-01,5.294189453125000000e-01
-2.000000000000000000e+00,3.000000000000000000e+00,3.000000000000000000e+00,1.000000000000000000e+00,-4.000000000000000000e+00,-4.000000000000000000e+00,-3.000000000000000000e+00,0.000000000000000000e+00,-4.188842773437500000e-01,3.292236328125000000e-01,6.601562500000000000e-01,5.294189453125000000e-01
0.000000000000000000e+00,8.000000000000000000e+00,2.000000000000000000e+00,-4.000000000000000000e+00,-3.000000000000000000e+00,-5.000000000000000000e+00,-3.000000000000000000e+00,-3.000000000000000000e+00,-4.188842773437500000e-01,3.292236328125000000e-01,6.601562500000000000e-01,5.294189453125000000e-01
-4.000000000000000000e+00,-9.000000000000000000e+00,-8.000000000000000000e+00,0.000000000000000000e+00,0.000000000000000000e+00,-1.000000000000000000e+00,-1.000000000000000000e+00,-3.000000000000000000e+00,-4.224853515625000000e-01,3.305053710937500000e-01,6.570434570312500000e-01,5.296630859375000000e-01
1.000000000000000000e+00,-6.000000000000000000e+00,6.000000000000000000e+00,0.000000000000000000e+00,6.000000000000000000e+00,-1.000000000000000000e+00,2.000000000000000000e+00,-2.000000000000000000e+00,-4.224853515625000000e-01,3.305053710937500000e-01,6.570434570312500000e-01,5.296630859375000000e-01
6.000000000000000000e+00,1.000000000000000000e+01,-4.000000000000000000e+00,-1.000000000000000000e+01,-7.000000000000000000e+00,0.000000000000000000e+00,-1.000000000000000000e+00,2.000000000000000000e+00,-4.224853515625000000e-01,3.305053710937500000e-01,6.570434570312500000e-01,5.296630859375000000e-01
0.000000000000000000e+00,-4.000000000000000000e+00,-8.000000000000000000e+00,9.000000000000000000e+00,8.000000000000000000e+00,3.000000000000000000e+00,1.000000000000000000e+00,-1.000000000000000000e+00,-4.224853515625000000e-01,3.305053710937500000e-01,6.570434570312500000e-01,5.296630859375000000e-01
-1.000000000000000000e+00,-2.000000000000000000e+00,1.000000000000000000e+00,5.000000000000000000e+00,4.000000000000000000e+00,1.000000000000000000e+00,-1.000000000000000000e+00,-1.000000000000000000e+00,-4.252319335937500000e-01,3.311767578125000000e-01,6.541137695312500000e-01,5.307006835937500000e-01
0.000000000000000000e+00,1.000000000000000000e+01,4.000000000000000000e+00,-2.000000000000000000e+00,0.000000000000000000e+00,0.000000000000000000e+00,-2.000000000000000000e+00,-1.000000000000000000e+00,-4.252319335937500000e-01,3.311767578125000000e-01,6.541137695312500000e-01,5.307006835937500000e-01
0.000000000000000000e+00,-1.100000000000000000e+01,-8.000000000000000000e+00,3.000000000000000000e+00,1.000000000000000000e+00,-2.000000000000000000e+00,1.000000000000000000e+00,-1.000000000000000000e+00,-4.252319335937500000e-01,3.311767578125000000e-01,6.541137695312500000e-01,5.307006835937500000e-01
-4.000000000000000000e+00,-1.000000000000000000e+01,0.000000000000000000e+00,-7.000000000000000000e+00,-1.300000000000000000e+01,-7.000000000000000000e+00,-4.000000000000000000e+00,-2.000000000000000000e+00,-4.252319335937500000e-01,3.311767578125000000e-01,6.541137695312500000e-01,5.307006835937500000e-01
-2.000000000000000000e+00,4.000000000000000000e+00,0.000000000000000000e+00,2.000000000000000000e+00,-2.000000000000000000e+00,1.000000000000000000e+00,0.000000000000000000e+00,-3.000000000000000000e+00,-4.259033203125000000e-01,3.320312500000000000e-01,6.511230468750000000e-01,5.332641601562500000e-01
1.000000000000000000e+00,2.000000000000000000e+00,-1.000000000000000000e+00,-3.000000000000000000e+00,-2.000000000000000000e+00,-4.000000000000000000e+00,-2.000000000000000000e+00,2.000000000000000000e+00,-4.259033203125000000e-01,3.320312500000000000e-01,6.511230468750000000e-01,5.332641601562500000e-01
-3.000000000000000000e+00,-1.000000000000000000e+00,-6.000000000000000000e+00,-1.000000000000000000e+00,0.000000000000000000e+00,3.000000000000000000e+00,4.000000000000000000e+00,-1.000000000000000000e+00,-4.259033203125000000e-01,3.320312500000000000e-01,6.511230468750000000e-01,5.332641601562500000e-01
1.000000000000000000e+00,1.000000000000000000e+00,-7.000000000000000000e+00,-6.000000000000000000e+00,1.000000000000000000e+00,1.000000000000000000e+00,1.000000000000000000e+00,1.000000000000000000e+00,-4.259033203125000000e-01,3.320312500000000000e-01,6.511230468750000000e-01,5.332641601562500000e-01
-2.000000000000000000e+00,-1.100000000000000000e+01,2.500000000000000000e+01,1.500000000000000000e+01,-2.000000000000000000e+00,-4.000000000000000000e+00,0.000000000000000000e+00,0.000000000000000000e+00,-4.252929687500000000e-01,3.328857421875000000e-01,6.486206054687500000e-01,5.361938476562500000e-01
-2.000000000000000000e+00,1.000000000000000000e+00,-1.400000000000000000e+01,-6.000000000000000000e+00,-1.400000000000000000e+01,-4.000000000000000000e+00,-4.000000000000000000e+00,0.000000000000000000e+00,-4.252929687500000000e-01,3.328857421875000000e-01,6.486206054687500000e-01,5.361938476562500000e-01
1.000000000000000000e+00,3.000000000000000000e+00,4.000000000000000000e+00,1.000000000000000000e+01,3.000000000000000000e+01,1.100000000000000000e+01,2.000000000000000000e+00,3.000000000000000000e+00,-4.252929687500000000e-01,3.328857421875000000e-01,6.486206054687500000e-01,5.361938476562500000e-01
1.000000000000000000e+00,1.000000000000000000e+00,4.000000000000000000e+00,1.000000000000000000e+00,-1.000000000000000000e+00,-2.000000000000000000e+00,0.000000000000000000e+00,-3.000000000000000000e+00,-4.252929687500000000e-01,3.328857421875000000e-01,6.486206054687500000e-01,5.361938476562500000e-01
0.000000000000000000e+00,7.000000000000000000e+00,1.000000000000000000e+00,-5.000000000000000000e+00,-1.000000000000000000e+00,0.000000000000000000e+00,0.000000000000000000e+00,-2.000000000000000000e+00,-4.246215820312500000e-01,3.331909179687500000e-01,6.470336914062500000e-01,5.385131835937500000e-01
-2.000000000000000000e+00,-1.400000000000000000e+01,-1.100000000000000000e+01,-4.000000000000000000e+00,-1.000000000000000000e+00,-3.000000000000000000e+00,0.000000000000000000e+00,-1.000000000000000000e+00,-4.246215820312500000e-01,3.331909179687500000e-01,6.470336914062500000e-01,5.385131835937500000e-01
-2.000000000000000000e+00,0.000000000000000000e+00,-7.000000000000000000e+00,3.000000000000000000e+00,-7.000000000000000000e+00,-4.000000000000000000e+00,-2.000000000000000000e+00,-3.000000000000000000e+00,-4.246215820312500000e-01,3.331909179687500000e-01,6.470336914062500000e-01,5.385131835937500000e-01
0.000000000000000000e+00,4.000000000000000000e+00,-8.000000000000000000e+00,-6.000000000000000000e+00,-1.000000000000000000e+00,1.000000000000000000e+00,-3.000000000000000000e+00,0.000000000000000000e+00,-4.246215820312500000e-01,3.331909179687500000e-01,6.470336914062500000e-01,5.385131835937500000e-01
2.000000000000000000e+00,5.000000000000000000e+00,1.000000000000000000e+01,-3.000000000000000000e+00,-2.000000000000000000e+00,-3.000000000000000000e+00,-3.000000000000000000e+00,0.000000000000000000e+00,-4.244995117187500000e-01,3.319091796875000000e-01,6.459350585937500000e-01,5.406494140625000000e-01
-1.000000000000000000e+00,2.000000000000000000e+00,3.000000000000000000e+00,1.000000000000000000e+00,2.000000000000000000e+00,0.000000000000000000e+00,-1.000000000000000000e+00,-1.000000000000000000e+00,-4.244995117187500000e-01,3.319091796875000000e-01,6.459350585937500000e-01,5.406494140625000000e-01
-2.000000000000000000e+00,-6.000000000000000000e+00,-1.400000000000000000e+01,-1.000000000000000000e+00,1.000000000000000000e+00,-1.000000000000000000e+00,-1.000000000000000000e+00,-2.000000000000000000e+00,-4.244995117187500000e-01,3.319091796875000000e-01,6.459350585937500000e-01,5.406494140625000000e-01
-2.000000000000000000e+00,-7.000000000000000000e+00,4.000000000000000000e+00,1.000000000000000000e+00,-1.000000000000000000e+00,-1.000000000000000000e+00,0.000000000000000000e+00,-1.000000000000000000e+00,-4.244995117187500000e-01,3.319091796875000000e-01,6.459350585937500000e-01,5.406494140625000000e-01
1.000000000000000000e+00,2.100000000000000000e+01,4.000000000000000000e+00,-2.000000000000000000e+00,-6.000000000000000000e+00,-1.000000000000000000e+00,-2.000000000000000000e+00,1.000000000000000000e+00,-4.240722656250000000e-01,3.297119140625000000e-01,6.453857421875000000e-01,5.430297851562500000e-01
0.000000000000000000e+00,-1.600000000000000000e+01,-4.000000000000000000e+00,-3.000000000000000000e+00,5.000000000000000000e+00,4.000000000000000000e+00,1.000000000000000000e+00,-1.000000000000000000e+00,-4.240722656250000000e-01,3.297119140625000000e-01,6.453857421875000000e-01,5.430297851562500000e-01
0.000000000000000000e+00,9.000000000000000000e+00,1.000000000000000000e+01,-2.000000000000000000e+00,-5.000000000000000000e+00,-1.000000000000000000e+00,0.000000000000000000e+00,-1.000000000000000000e+00,-4.240722656250000000e-01,3.297119140625000000e-01,6.453857421875000000e-01,5.430297851562500000e-01
-3.000000000000000000e+00,-9.000000000000000000e+00,-8.000000000000000000e+00,-7.000000000000000000e+00,-2.000000000000000000e+00,0.000000000000000000e+00,1.000000000000000000e+00,-3.000000000000000000e+00,-4.240722656250000000e-01,3.297119140625000000e-01,6.453857421875000000e-01,5.430297851562500000e-01
-1.000000000000000000e+00,0.000000000000000000e+00,-1.200000000000000000e+01,1.000000000000000000e+00,-1.000000000000000000e+00,-1.000000000000000000e+00,-1.000000000000000000e+00,-1.000000000000000000e+00,-4.230346679687500000e-01,3.280029296875000000e-01,6.447753906250000000e-01,5.455322265625000000e-01
-2.000000000000000000e+00,-6.000000000000000000e+00,1.300000000000000000e+01,4.000000000000000000e+00,1.000000000000000000e+00,0.000000000000000000e+00,1.000000000000000000e+00,-1.000000000000000000e+00,-4.230346679687500000e-01,3.280029296875000000e-01,6.447753906250000000e-01,5.455322265625000000e-01
-2.000000000000000000e+00,6.000000000000000000e+00,-3.000000000000000000e+00,0.000000000000000000e+00,-3.000000000000000000e+00,-3.000000000000000000e+00,0.000000000000000000e+00,-1.000000000000000000e+00,-4.230346679687500000e-01,3.280029296875000000e-01,6.447753906250000000e-01,5.455322265625000000e-01
0.000000000000000000e+00,1.000000000000000000e+00,6.000000000000000000e+00,7.000000000000000000e+00,-1.000000000000000000e+00,-3.000000000000000000e+00,-1.000000000000000000e+00,1.000000000000000000e+00,-4.230346679687500000e-01,3.280029296875000000e-01,6.447753906250000000e-01,5.455322265625000000e-01
