1.000000000000000000e+01,2.700000000000000000e+01,1.200000000000000000e+01,-3.000000000000000000e+00,0.000000000000000000e+00,2.000000000000000000e+01,3.000000000000000000e+01,1.500000000000000000e+01,1.345214843750000000e-01,5.183715820312500000e-01,-2.478027343750000000e-01,8.073120117187500000e-01
6.000000000000000000e+00,-1.100000000000000000e+01,-1.200000000000000000e+01,-2.000000000000000000e+00,1.000000000000000000e+00,-1.000000000000000000e+00,3.000000000000000000e+00,-4.000000000000000000e+00,1.345214843750000000e-01,5.183715820312500000e-01,-2.478027343750000000e-01,8.073120117187500000e-01
3.000000000000000000e+01,5.000000000000000000e+00,-9.000000000000000000e+00,-1.300000000000000000e+01,-3.000000000000000000e+00,4.000000000000000000e+00,8.000000000000000000e+00,1.600000000000000000e+01,1.337890625000000000e-01,5.172729492187500000e-01,-2.492675781250000000e-01,8.076782226562500000e-01
1.200000000000000000e+01,8.000000000000000000e+00,4.100000000000000000e+01,3.700000000000000000e+01,6.000000000000000000e+00,-7.000000000000000000e+00,-1.000000000000000000e+01,-1.300000000000000000e+01,1.337890625000000000e-01,5.172729492187500000e-01,-2.492675781250000000e-01,8.076782226562500000e-01
-3.100000000000000000e+01,-2.100000000000000000e+01,-2.600000000000000000e+01,-1.300000000000000000e+01,-5.000000000000000000e+00,-1.500000000000000000e+01,-2.100000000000000000e+01,-1.500000000000000000e+01,1.337890625000000000e-01,5.172729492187500000e-01,-2.492675781250000000e-01,8.076782226562500000e-01
6.000000000000000000e+00,0.000000000000000000e+00,-3.300000000000000000e+01,-2.200000000000000000e+01,1.000000000000000000e+00,9.000000000000000000e+00,7.000000000000000000e+00,2.000000000000000000e+00,1.337890625000000000e-01,5.172729492187500000e-01,-2.492675781250000000e-01,8.076782226562500000e-01
-7.000000000000000000e+00,-2.000000000000000000e+00,2.600000000000000000e+01,1.600000000000000000e+01,2.000000000000000000e+00,-4.000000000000000000e+00,-4.000000000000000000e+00,1.000000000000000000e+00,1.326904296875000000e-01,5.167846679687500000e-01,-2.494506835937500000e-01,8.081054687500000000e-01
0.000000000000000000e+00,-4.000000000000000000e+00,-4.000000000000000000e+00,3.000000000000000000e+00,0.000000000000000000e+00,-2.000000000000000000e+00,-2.000000000000000000e+00,-1.000000000000000000e+00,1.326904296875000000e-01,5.167846679687500000e-01,-2.494506835937500000e-01,8.081054687500000000e-01
-5.000000000000000000e+00,-2.500000000000000000e+01,-1.900000000000000000e+01,-1.400000000000000000e+01,-4.000000000000000000e+00,-2.000000000000000000e+00,-4.000000000000000000e+00,-5.000000000000000000e+00,1.326904296875000000e-01,5.167846679687500000e-01,-2.494506835937500000e-01,8.081054687500000000e-01
1.000000000000000000e+00,3.100000000000000000e+01,4.000000000000000000e+01,1.600000000000000000e+01,2.000000000000000000e+00,3.000000000000000000e+00,6.000000000000000000e+00,-2.000000000000000000e+00,1.326904296875000000e-01,5.167846679687500000e-01,-2.494506835937500000e-01,8.081054687500000000e-01
-5.000000000000000000e+00,-5.000000000000000000e+00,-3.700000000000000000e+01,-2.700000000000000000e+01,-1.000000000000000000e+00,-1.000000000000000000e+00,-2.000000000000000000e+00,6.000000000000000000e+00,1.307983398437500000e-01,5.166015625000000000e-01,-2.490844726562500000e-01,8.086547851562500000e-01
3.300000000000000000e+01,1.000000000000000000e+01,1.500000000000000000e+01,-1.000000000000000000e+00,0.000000000000000000e+00,2.000000000000000000e+00,7.000000000000000000e+00,9.000000000000000000e+00,1.307983398437500000e-01,5.166015625000000000e-01,-2.490844726562500000e-01,8.086547851562500000e-01
3.000000000000000000e+00,7.000000000000000000e+00,-7.000000000000000000e+00,-7.000000000000000000e+00,-5.000000000000000000e+00,1.000000000000000000e+00,-3.000000000000000000e+00,-7.000000000000000000e+00,1.307983398437500000e-01,5.166015625000000000e-01,-2.490844726562500000e-01,8.086547851562500000e-01
1.400000000000000000e+01,-1.800000000000000000e+01,-1.200000000000000000e+01,-8.000000000000000000e+00,-3.000000000000000000e+00,-2.000000000000000000e+00,-2.000000000000000000e+00,1.000000000000000000e+00,1.307983398437500000e-01,5.166015625000000000e-01,-2.490844726562500000e-01,8.086547851562500000e-01
-1.800000000000000000e+01,-6.000000000000000000e+00,-7.000000000000000000e+00,3.000000000000000000e+00,-2.000000000000000000e+00,-7.000000000000000000e+00,-6.000000000000000000e+00,-1.300000000000000000e+01,1.282958984375000000e-01,5.158691406250000000e-01,-2.493896484375000000e-01,8.094482421875000000e-01
1.400000000000000000e+01,3.000000000000000000e+00,1.800000000000000000e+01,5.000000000000000000e+00,0.000000000000000000e+00,5.000000000000000000e+00,7.000000000000000000e+00,-1.000000000000000000e+01,1.282958984375000000e-01,5.158691406250000000e-01,-2.493896484375000000e-01,8.094482421875000000e-01
-4.000000000000000000e+00,-3.000000000000000000e+00,-3.000000000000000000e+00,-7.000000000000000000e+00,0.000000000000000000e+00,-4.000000000000000000e+00,-4.000000000000000000e+00,-4.000000000000000000e+00,1.282958984375000000e-01,5.158691406250000000e-01,-2.493896484375000000e-01,8.094482421875000000e-01
-1.000000000000000000e+00,2.000000000000000000e+00,5.000000000000000000e+00,7.000000000000000000e+00,-3.000000000000000000e+00,1.000000000000000000e+00,0.000000000000000000e+00,3.000000000000000000e+00,1.282958984375000000e-01,5.158691406250000000e-01,-2.493896484375000000e-01,8.094482421875000000e-01
1.900000000000000000e+01,2.000000000000000000e+00,-1.300000000000000000e+01,1.500000000000000000e+01,-2.000000000000000000e+00,2.000000000000000000e+00,5.000000000000000000e+00,-4.000000000000000000e+00,1.273193359375000000e-01,5.144653320312500000e-01,-2.502441406250000000e-01,8.101806640625000000e-01
-2.800000000000000000e+01,-8.000000000000000000e+00,1.700000000000000000e+01,-1.200000000000000000e+01,-3.000000000000000000e+00,-1.300000000000000000e+01,-9.000000000000000000e+00,1.000000000000000000e+01,1.273193359375000000e-01,5.144653320312500000e-01,-2.502441406250000000e-01,8.101806640625000000e-01
3.000000000000000000e+00,-1.100000000000000000e+01,-1.300000000000000000e+01,-1.000000000000000000e+00,-2.000000000000000000e+00,-9.000000000000000000e+00,-1.500000000000000000e+01,-6.000000000000000000e+00,1.273193359375000000e-01,5.144653320312500000e-01,-2.502441406250000000e-01,8.101806640625000000e-01
4.000000000000000000e+00,-1.100000000000000000e+01,-3.000000000000000000e+00,-2.000000000000000000e+01,2.000000000000000000e+00,1.600000000000000000e+01,2.000000000000000000e+01,2.000000000000000000e+00,1.273193359375000000e-01,5.144653320312500000e-01,-2.502441406250000000e-01,8.101806640625000000e-01
-2.300000000000000000e+01,2.000000000000000000e+01,7.000000000000000000e+00,1.000000000000000000e+01,-1.000000000000000000e+00,-3.000000000000000000e+00,-4.000000000000000000e+00,-2.000000000000000000e+00,1.268920898437500000e-01,5.132446289062500000e-01,-2.504882812500000000e-01,8.109741210937500000e-01
0.000000000000000000e+00,-1.000000000000000000e+01,-3.000000000000000000e+01,3.000000000000000000e+00,-2.000000000000000000e+00,4.000000000000000000e+00,2.000000000000000000e+00,-8.000000000000000000e+00,1.268920898437500000e-01,5.132446289062500000e-01,-2.504882812500000000e-01,8.109741210937500000e-01
-1.600000000000000000e+01,2.000000000000000000e+00,2.300000000000000000e+01,-1.400000000000000000e+01,5.000000000000000000e+00,-2.000000000000000000e+00,1.000000000000000000e+00,-2.000000000000000000e+00,1.268920898437500000e-01,5.132446289062500000e-01,-2.504882812500000000e-01,8.109741210937500000e-01
1.900000000000000000e+01,-5.000000000000000000e+00,-8.000000000000000000e+00,9.000000000000000000e+00,-6.000000000000000000e+00,-7.000000000000000000e+00,-1.100000000000000000e+01,3.000000000000000000e+00,1.268920898437500000e-01,5.132446289062500000e-01,-2.504882812500000000e-01,8.109741210937500000e-01
2.000000000000000000e+00,-2.000000000000000000e+00,2.000000000000000000e+00,3.000000000000000000e+00,2.000000000000000000e+00,2.000000000000000000e+00,0.000000000000000000e+00,1.000000000000000000e+00,1.254272460937500000e-01,5.123901367187500000e-01,-2.499389648437500000e-01,8.118896484375000000e-01
-5.000000000000000000e+00,0.000000000000000000e+00,-3.000000000000000000e+00,4.000000000000000000e+00,0.000000000000000000e+00,0.000000000000000000e+00,-4.000000000000000000e+00,-3.000000000000000000e+00,1.254272460937500000e-01,5.123901367187500000e-01,-2.499389648437500000e-01,8.118896484375000000e-01
-4.000000000000000000e+00,-4.000000000000000000e+00,-1.200000000000000000e+01,-8.000000000000000000e+00,1.000000000000000000e+00,1.000000000000000000e+00,0.000000000000000000e+00,-5.000000000000000000e+00,1.254272460937500000e-01,5.123901367187500000e-01,-2.499389648437500000e-01,8.118896484375000000e-01
0.000000000000000000e+00,-3.000000000000000000e+00,9.000000000000000000e+00,2.000000000000000000e+00,-8.000000000000000000e+00,-9.000000000000000000e+00,-5.000000000000000000e+00,2.000000000000000000e+01,1.254272460937500000e-01,5.123901367187500000e-01,-2.499389648437500000e-01,8.118896484375000000e-01
-3.100000000000000000e+01,-6.000000000000000000e+00,-3.500000000000000000e+01,-1.900000000000000000e+01,-2.000000000000000000e+00,-1.000000000000000000e+00,3.000000000000000000e+00,-2.000000000000000000e+00,1.238403320312500000e-01,5.112304687500000000e-01,-2.497558593750000000e-01,8.129272460937500000e-01
-1.400000000000000000e+01,1.100000000000000000e+01,1.000000000000000000e+00,-2.300000000000000000e+01,-4.000000000000000000e+00,1.000000000000000000e+00,0.000000000000000000e+00,-7.000000000000000000e+00,1.238403320312500000e-01,5.112304687500000000e-01,-2.497558593750000000e-01,8.129272460937500000e-01
1.000000000000000000e+00,-1.000000000000000000e+00,1.500000000000000000e+01,5.000000000000000000e+00,-1.000000000000000000e+00,5.000000000000000000e+00,1.000000000000000000e+01,-8.000000000000000000e+00,1.238403320312500000e-01,5.112304687500000000e-01,-2.497558593750000000e-01,8.129272460937500000e-01
-1.300000000000000000e+01,-8.000000000000000000e+00,-1.000000000000000000e+01,-2.000000000000000000e+00,0.000000000000000000e+00,5.000000000000000000e+00,1.000000000000000000e+00,-9.000000000000000000e+00,1.238403320312500000e-01,5.112304687500000000e-01,-2.497558593750000000e-01,8.129272460937500000e-01
-8.000000000000000000e+00,6.000000000000000000e+00,6.000000000000000000e+00,1.400000000000000000e+01,-4.000000000000000000e+00,-6.000000000000000000e+00,-8.000000000000000000e+00,1.200000000000000000e+01,1.225585937500000000e-01,5.101928710937500000e-01,-2.498168945312500000e-01,8.137207031250000000e-01
4.000000000000000000e+00,1.200000000000000000e+01,3.000000000000000000e+00,1.000000000000000000e+01,1.000000000000000000e+00,3.000000000000000000e+00,3.000000000000000000e+00,7.000000000000000000e+00,1.225585937500000000e-01,5.101928710937500000e-01,-2.498168945312500000e-01,8.137207031250000000e-01
-4.000000000000000000e+00,-8.000000000000000000e+00,-2.000000000000000000e+00,-1.300000000000000000e+01,-1.000000000000000000e+00,-7.000000000000000000e+00,-7.000000000000000000e+00,-4.000000000000000000e+00,1.225585937500000000e-01,5.101928710937500000e-01,-2.498168945312500000e-01,8.137207031250000000e-01
1.800000000000000000e+01,1.400000000000000000e+01,-2.500000000000000000e+01,1.900000000000000000e+01,3.000000000000000000e+00,-1.000000000000000000e+00,-3.000000000000000000e+00,-1.000000000000000000e+00,1.225585937500000000e-01,5.101928710937500000e-01,-2.498168945312500000e-01,8.137207031250000000e-01
1.300000000000000000e+01,-3.100000000000000000e+01,2.700000000000000000e+01,-4.000000000000000000e+00,-1.000000000000000000e+00,2.000000000000000000e+00,3.000000000000000000e+00,1.100000000000000000e+01,1.216430664062500000e-01,5.093994140625000000e-01,-2.497558593750000000e-01,8.143920898437500000e-01
-3.600000000000000000e+01,-3.000000000000000000e+00,-2.700000000000000000e+01,9.000000000000000000e+00,0.000000000000000000e+00,3.000000000000000000e+00,1.000000000000000000e+00,-3.000000000000000000e+00,1.216430664062500000e-01,5.093994140625000000e-01,-2.497558593750000000e-01,8.143920898437500000e-01
-3.300000000000000000e+01,1.700000000000000000e+01,7.000000000000000000e+00,-1.000000000000000000e+01,-2.000000000000000000e+00,4.000000000000000000e+00,2.000000000000000000e+00,-2.000000000000000000e+00,1.216430664062500000e-01,5.093994140625000000e-01,-2.497558593750000000e-01,8.143920898437500000e-01
-1.500000000000000000e+01,-7.000000000000000000e+00,3.000000000000000000e+00,-1.400000000000000000e+01,-3.000000000000000000e+00,-5.000000000000000000e+00,-4.000000000000000000e+00,-5.000000000000000000e+00,1.216430664062500000e-01,5.093994140625000000e-01,-2.497558593750000000e-01,8.143920898437500000e-01
2.300000000000000000e+01,1.000000000000000000e+00,-1.400000000000000000e+01,1.500000000000000000e+01,-2.000000000000000000e+00,-1.000000000000000000e+00,-4.000000000000000000e+00,-3.000000000000000000e+00,1.208496093750000000e-01,5.088500976562500000e-01,-2.494506835937500000e-01,8.149414062500000000e-01
1.000000000000000000e+00,-1.000000000000000000e+00,3.000000000000000000e+00,-1.100000000000000000e+01,0.000000000000000000e+00,1.000000000000000000e+00,1.000000000000000000e+00,4.000000000000000000e+00,1.208496093750000000e-01,5.088500976562500000e-01,-2.494506835937500000e-01,8.149414062500000000e-01
6.000000000000000000e+00,-7.000000000000000000e+00,-8.000000000000000000e+00,-2.000000000000000000e+00,-4.000000000000000000e+00,-3.000000000000000000e+00,-3.000000000000000000e+00,0.000000000000000000e+00,1.208496093750000000e-01,5.088500976562500000e-01,-2.494506835937500000e-01,8.149414062500000000e-01
5.000000000000000000e+00,-1.000000000000000000e+00,2.200000000000000000e+01,7.000000000000000000e+00,1.000000000000000000e+00,-3.000000000000000000e+00,-2.000000000000000000e+00,-4.000000000000000000e+00,1.208496093750000000e-01,5.088500976562500000e-01,-2.494506835937500000e-01,8.149414062500000000e-01
0.000000000000000000e+00,-1.000000000000000000e+00,1.000000000000000000e+00,-1.100000000000000000e+01,-3.000000000000000000e+00,2.000000000000000000e+00,4.000000000000000000e+00,1.300000000000000000e+01,1.201171875000000000e-01,5.083618164062500000e-01,-2.489624023437500000e-01,8.155517578125000000e-01
1.000000000000000000e+01,-6.000000000000000000e+00,-1.200000000000000000e+01,-8.000000000000000000e+00,-4.000000000000000000e+00,-1.600000000000000000e+01,-1.200000000000000000e+01,-2.500000000000000000e+01,1.201171875000000000e-01,5.083618164062500000e-01,-2.489624023437500000e-01,8.155517578125000000e-01
-2.300000000000000000e+01,-1.400000000000000000e+01,2.000000000000000000e+00,1.400000000000000000e+01,0.000000000000000000e+00,7.000000000000000000e+00,4.000000000000000000e+00,2.300000000000000000e+01,1.201171875000000000e-01,5.083618164062500000e-01,-2.489624023437500000e-01,8.155517578125000000e-01
3.400000000000000000e+01,7.000000000000000000e+00,7.000000000000000000e+00,-8.000000000000000000e+00,2.000000000000000000e+00,2.000000000000000000e+00,1.000000000000000000e+00,-1.700000000000000000e+01,1.201171875000000000e-01,5.083618164062500000e-01,-2.489624023437500000e-01,8.155517578125000000e-01
8.000000000000000000e+00,2.600000000000000000e+01,3.300000000000000000e+01,3.900000000000000000e+01,6.000000000000000000e+00,-3.000000000000000000e+00,-8.000000000000000000e+00,7.000000000000000000e+00,1.196289062500000000e-01,5.078735351562500000e-01,-2.482299804687500000e-01,8.161010742187500000e-01
-1.200000000000000000e+01,-2.100000000000000000e+01,-9.000000000000000000e+00,-1.200000000000000000e+01,-5.000000000000000000e+00,-6.000000000000000000e+00,-2.000000000000000000e+00,3.000000000000000000e+00,1.196289062500000000e-01,5.078735351562500000e-01,-2.482299804687500000e-01,8.161010742187500000e-01
3.600000000000000000e+01,-5.000000000000000000e+00,-2.000000000000000000e+00,-2.000000000000000000e+00,-1.000000000000000000e+00,-2.000000000000000000e+00,3.000000000000000000e+00,4.000000000000000000e+00,1.196289062500000000e-01,5.078735351562500000e-01,-2.482299804687500000e-01,8.161010742187500000e-01
-5.000000000000000000e+00,1.000000000000000000e+01,-7.000000000000000000e+00,-1.800000000000000000e+01,-3.000000000000000000e+00,-1.000000000000000000e+00,-3.000000000000000000e+00,1.000000000000000000e+01,1.196289062500000000e-01,5.078735351562500000e-01,-2.482299804687500000e-01,8.161010742187500000e-01
-3.400000000000000000e+01,-9.000000000000000000e+00,-1.000000000000000000e+01,-5.000000000000000000e+00,0.000000000000000000e+00,-1.000000000000000000e+00,-1.000000000000000000e+00,-1.700000000000000000e+01,1.188354492187500000e-01,5.079956054687500000e-01,-2.473144531250000000e-01,8.164672851562500000e-01
1.800000000000000000e+01,-3.000000000000000000e+00,3.400000000000000000e+01,3.000000000000000000e+01,2.000000000000000000e+00,-2.000000000000000000e+00,-1.200000000000000000e+01,-1.000000000000000000e+00,1.188354492187500000e-01,5.079956054687500000e-01,-2.473144531250000000e-01,8.164672851562500000e-01
-6.000000000000000000e+00,2.100000000000000000e+01,5.000000000000000000e+00,1.000000000000000000e+00,-6.000000000000000000e+00,-5.000000000000000000e+00,-4.000000000000000000e+00,-3.000000000000000000e+00,1.188354492187500000e-01,5.079956054687500000e-01,-2.473144531250000000e-01,8.164672851562500000e-01
0.000000000000000000e+00,-6.000000000000000000e+00,1.600000000000000000e+01,-1.000000000000000000e+00,-2.000000000000000000e+00,-1.000000000000000000e+00,0.000000000000000000e+00,2.000000000000000000e+00,1.188354492187500000e-01,5.079956054687500000e-01,-2.473144531250000000e-01,8.164672851562500000e-01
-6.000000000000000000e+00,-7.000000000000000000e+00,-5.000000000000000000e+01,-3.000000000000000000e+00,-3.000000000000000000e+00,-2.000000000000000000e+00,1.000000000000000000e+00,-2.000000000000000000e+00,1.187133789062500000e-01,5.083618164062500000e-01,-2.467041015625000000e-01,8.164062500000000000e-01
1.000000000000000000e+00,-1.000000000000000000e+01,-3.200000000000000000e+01,-1.600000000000000000e+01,4.000000000000000000e+00,6.000000000000000000e+00,8.000000000000000000e+00,-4.000000000000000000e+00,1.187133789062500000e-01,5.083618164062500000e-01,-2.467041015625000000e-01,8.164062500000000000e-01
1.000000000000000000e+00,1.100000000000000000e+01,1.400000000000000000e+01,-7.000000000000000000e+00,-2.000000000000000000e+00,1.000000000000000000e+00,-3.000000000000000000e+00,-2.000000000000000000e+00,1.187133789062500000e-01,5.083618164062500000e-01,-2.467041015625000000e-01,8.164062500000000000e-01
5.000000000000000000e+00,-4.000000000000000000e+00,-1.000000000000000000e+00,1.400000000000000000e+01,0.000000000000000000e+00,4.000000000000000000e+00,1.000000000000000000e+00,-2.000000000000000000e+00,1.187133789062500000e-01,5.083618164062500000e-01,-2.467041015625000000e-01,8.164062500000000000e-01
2.000000000000000000e+01,-2.000000000000000000e+00,1.000000000000000000e+00,-3.200000000000000000e+01,-3.000000000000000000e+00,-5.000000000000000000e+00,-5.000000000000000000e+00,-1.200000000000000000e+01,1.186523437500000000e-01,5.088500976562500000e-01,-2.460937500000000000e-01,8.163452148437500000e-01
-1.800000000000000000e+01,8.000000000000000000e+00,5.000000000000000000e+00,6.000000000000000000e+00,1.000000000000000000e+00,3.000000000000000000e+00,4.000000000000000000e+00,7.000000000000000000e+00,1.186523437500000000e-01,5.088500976562500000e-01,-2.460937500000000000e-01,8.163452148437500000e-01
3.000000000000000000e+00,1.000000000000000000e+00,1.600000000000000000e+01,1.800000000000000000e+01,-2.000000000000000000e+00,-5.000000000000000000e+00,-5.000000000000000000e+00,-2.000000000000000000e+00,1.186523437500000000e-01,5.088500976562500000e-01,-2.460937500000000000e-01,8.163452148437500000e-01
-1.000000000000000000e+00,-1.400000000000000000e+01,-3.300000000000000000e+01,-1.600000000000000000e+01,0.000000000000000000e+00,-3.000000000000000000e+00,-1.000000000000000000e+00,-1.800000000000000000e+01,1.186523437500000000e-01,5.088500976562500000e-01,-2.460937500000000000e-01,8.163452148437500000e-01
1.000000000000000000e+01,1.800000000000000000e+01,4.000000000000000000e+01,1.600000000000000000e+01,2.000000000000000000e+00,-4.000000000000000000e+00,-2.000000000000000000e+00,-2.000000000000000000e+00,1.185302734375000000e-01,5.089721679687500000e-01,-2.457275390625000000e-01,8.163452148437500000e-01
-3.600000000000000000e+01,-1.200000000000000000e+01,-1.500000000000000000e+01,2.000000000000000000e+00,-2.000000000000000000e+00,2.000000000000000000e+00,-1.000000000000000000e+00,-3.000000000000000000e+00,1.185302734375000000e-01,5.089721679687500000e-01,-2.457275390625000000e-01,8.163452148437500000e-01
1.700000000000000000e+01,-2.200000000000000000e+01,-8.000000000000000000e+00,-6.000000000000000000e+00,0.000000000000000000e+00,3.000000000000000000e+00,6.000000000000000000e+00,4.000000000000000000e+00,1.185302734375000000e-01,5.089721679687500000e-01,-2.457275390625000000e-01,8.163452148437500000e-01
-2.300000000000000000e+01,2.300000000000000000e+01,1.000000000000000000e+00,-5.000000000000000000e+00,-5.000000000000000000e+00,-7.000000000000000000e+00,-6.000000000000000000e+00,-2.000000000000000000e+00,1.185302734375000000e-01,5.089721679687500000e-01,-2.457275390625000000e-01,8.163452148437500000e-01
1.500000000000000000e+01,6.000000000000000000e+00,5.000000000000000000e+00,-4.000000000000000000e+00,0.000000000000000000e+00,8.000000000000000000e+00,3.000000000000000000e+00,4.000000000000000000e+00,1.177368164062500000e-01,5.090332031250000000e-01,-2.449951171875000000e-01,8.166503906250000000e-01
2.400000000000000000e+01,7.000000000000000000e+00,2.600000000000000000e+01,-6.000000000000000000e+00,-6.000000000000000000e+00,-5.000000000000000000e+00,1.000000000000000000e+00,3.000000000000000000e+00,1.177368164062500000e-01,5.090332031250000000e-01,-2.449951171875000000e-01,8.166503906250000000e-01
-8.000000000000000000e+00,-3.000000000000000000e+00,-1.700000000000000000e+01,1.500000000000000000e+01,3.000000000000000000e+00,-6.000000000000000000e+00,-4.000000000000000000e+00,-6.000000000000000000e+00,1.177368164062500000e-01,5.090332031250000000e-01,-2.449951171875000000e-01,8.166503906250000000e-01
4.000000000000000000e+00,-4.000000000000000000e+00,-1.400000000000000000e+01,-1.300000000000000000e+01,-2.000000000000000000e+00,1.000000000000000000e+00,3.000000000000000000e+00,3.000000000000000000e+00,1.177368164062500000e-01,5.090332031250000000e-01,-2.449951171875000000e-01,8.166503906250000000e-01
-2.100000000000000000e+01,-1.800000000000000000e+01,-1.600000000000000000e+01,-1.500000000000000000e+01,-6.000000000000000000e+00,-8.000000000000000000e+00,-8.000000000000000000e+00,0.000000000000000000e+00,1.171875000000000000e-01,5.093994140625000000e-01,-2.439575195312500000e-01,8.168334960937500000e-01
6.000000000000000000e+00,1.700000000000000000e+01,3.400000000000000000e+01,2.700000000000000000e+01,4.000000000000000000e+00,4.000000000000000000e+00,-1.000000000000000000e+00,-6.000000000000000000e+00,1.171875000000000000e-01,5.093994140625000000e-01,-2.439575195312500000e-01,8.168334960937500000e-01
4.000000000000000000e+00,5.000000000000000000e+00,-4.100000000000000000e+01,-1.100000000000000000e+01,-2.000000000000000000e+00,-1.000000000000000000e+00,0.000000000000000000e+00,3.000000000000000000e+00,1.171875000000000000e-01,5.093994140625000000e-01,-2.439575195312500000e-01,8.168334960937500000e-01
-1.300000000000000000e+01,-9.000000000000000000e+00,9.000000000000000000e+00,-2.400000000000000000e+01,-2.000000000000000000e+00,2.000000000000000000e+00,3.000000000000000000e+00,2.000000000000000000e+00,1.171875000000000000e-01,5.093994140625000000e-01,-2.439575195312500000e-01,8.168334960937500000e-01
1.400000000000000000e+01,6.000000000000000000e+00,-3.000000000000000000e+00,0.000000000000000000e+00,-1.000000000000000000e+00,0.000000000000000000e+00,0.000000000000000000e+00,-1.100000000000000000e+01,1.171875000000000000e-01,5.098876953125000000e-01,-2.434082031250000000e-01,8.166503906250000000e-01
-1.200000000000000000e+01,-9.000000000000000000e+00,-1.300000000000000000e+01,-5.000000000000000000e+00,-2.000000000000000000e+00,1.000000000000000000e+00,0.000000000000000000e+00,7.000000000000000000e+00,1.171875000000000000e-01,5.098876953125000000e-01,-2.434082031250000000e-01,8.166503906250000000e-01
1.000000000000000000e+00,4.000000000000000000e+00,1.000000000000000000e+01,-6.000000000000000000e+00,3.000000000000000000e+00,-3.000000000000000000e+00,-5.000000000000000000e+00,-1.000000000000000000e+00,1.171875000000000000e-01,5.098876953125000000e-01,-2.434082031250000000e-01,8.166503906250000000e-01
-5.000000000000000000e+00,-9.000000000000000000e+00,-4.600000000000000000e+01,3.600000000000000000e+01,0.000000000000000000e+00,-5.000000000000000000e+00,-7.000000000000000000e+00,-4.000000000000000000e+00,1.171875000000000000e-01,5.098876953125000000e-01,-2.434082031250000000e-01,8.166503906250000000e-01
1.300000000000000000e+01,8.000000000000000000e+00,3.500000000000000000e+01,-1.700000000000000000e+01,0.000000000000000000e+00,5.000000000000000000e+00,4.000000000000000000e+00,1.000000000000000000e+01,1.176147460937500000e-01,5.098266601562500000e-01,-2.435913085937500000e-01,8.165893554687500000e-01
4.000000000000000000e+00,-9.000000000000000000e+00,-1.600000000000000000e+01,-1.000000000000000000e+01,-3.000000000000000000e+00,-1.000000000000000000e+00,0.000000000000000000e+00,-4.000000000000000000e+00,1.176147460937500000e-01,5.098266601562500000e-01,-2.435913085937500000e-01,8.165893554687500000e-01
-2.000000000000000000e+00,-2.000000000000000000e+00,-1.200000000000000000e+01,-3.000000000000000000e+00,0.000000000000000000e+00,-5.000000000000000000e+00,-3.000000000000000000e+00,-1.000000000000000000e+01,1.176147460937500000e-01,5.098266601562500000e-01,-2.435913085937500000e-01,8.165893554687500000e-01
1.000000000000000000e+01,-2.500000000000000000e+01,2.900000000000000000e+01,6.000000000000000000e+00,0.000000000000000000e+00,-1.000000000000000000e+00,0.000000000000000000e+00,4.000000000000000000e+00,1.176147460937500000e-01,5.098266601562500000e-01,-2.435913085937500000e-01,8.165893554687500000e-01
4.000000000000000000e+00,1.800000000000000000e+01,-1.100000000000000000e+01,6.000000000000000000e+00,-1.000000000000000000e+00,1.000000000000000000e+00,3.000000000000000000e+00,-1.100000000000000000e+01,1.180419921875000000e-01,5.094604492187500000e-01,-2.434082031250000000e-01,8.167724609375000000e-01
1.800000000000000000e+01,7.000000000000000000e+00,-4.000000000000000000e+01,2.000000000000000000e+00,2.000000000000000000e+00,-1.000000000000000000e+00,-3.000000000000000000e+00,0.000000000000000000e+00,1.180419921875000000e-01,5.094604492187500000e-01,-2.434082031250000000e-01,8.167724609375000000e-01
7.000000000000000000e+00,-2.000000000000000000e+00,-1.000000000000000000e+00,-1.600000000000000000e+01,-3.000000000000000000e+00,-1.000000000000000000e+00,-1.000000000000000000e+00,1.000000000000000000e+01,1.180419921875000000e-01,5.094604492187500000e-01,-2.434082031250000000e-01,8.167724609375000000e-01
6.000000000000000000e+00,9.000000000000000000e+00,3.000000000000000000e+01,2.000000000000000000e+01,-1.000000000000000000e+00,-6.000000000000000000e+00,-6.000000000000000000e+00,-8.000000000000000000e+00,1.180419921875000000e-01,5.094604492187500000e-01,-2.434082031250000000e-01,8.167724609375000000e-01
-2.700000000000000000e+01,-2.200000000000000000e+01,-3.000000000000000000e+00,2.000000000000000000e+00,-1.000000000000000000e+00,-2.000000000000000000e+00,-4.000000000000000000e+00,2.000000000000000000e+00,1.181640625000000000e-01,5.093383789062500000e-01,-2.429809570312500000e-01,8.170166015625000000e-01
1.700000000000000000e+01,6.000000000000000000e+00,2.400000000000000000e+01,-1.300000000000000000e+01,-2.000000000000000000e+00,-1.000000000000000000e+00,3.000000000000000000e+00,6.000000000000000000e+00,1.181640625000000000e-01,5.093383789062500000e-01,-2.429809570312500000e-01,8.170166015625000000e-01
3.000000000000000000e+00,4.000000000000000000e+00,-1.600000000000000000e+01,1.500000000000000000e+01,-1.000000000000000000e+00,-3.000000000000000000e+00,-6.000000000000000000e+00,-6.000000000000000000e+00,1.181640625000000000e-01,5.093383789062500000e-01,-2.429809570312500000e-01,8.170166015625000000e-01
-2.000000000000000000e+01,-8.000000000000000000e+00,-5.000000000000000000e+00,1.000000000000000000e+00,0.000000000000000000e+00,5.000000000000000000e+00,4.000000000000000000e+00,2.000000000000000000e+00,1.181640625000000000e-01,5.093383789062500000e-01,-2.429809570312500000e-01,8.170166015625000000e-01
5.000000000000000000e+00,-5.000000000000000000e+00,-1.100000000000000000e+01,-3.400000000000000000e+01,-7.000000000000000000e+00,-3.000000000000000000e+00,-3.000000000000000000e+00,0.000000000000000000e+00,1.176147460937500000e-01,5.094604492187500000e-01,-2.423095703125000000e-01,8.171997070312500000e-01
1.000000000000000000e+01,2.000000000000000000e+00,-6.000000000000000000e+00,-2.000000000000000000e+00,0.000000000000000000e+00,1.000000000000000000e+00,2.000000000000000000e+00,2.000000000000000000e+00,1.176147460937500000e-01,5.094604492187500000e-01,-2.423095703125000000e-01,8.171997070312500000e-01
-1.700000000000000000e+01,0.000000000000000000e+00,3.000000000000000000e+01,1.500000000000000000e+01,-2.000000000000000000e+00,3.000000000000000000e+00,3.000000000000000000e+00,6.000000000000000000e+00,1.176147460937500000e-01,5.094604492187500000e-01,-2.423095703125000000e-01,8.171997070312500000e-01
7.000000000000000000e+00,5.000000000000000000e+00,-3.400000000000000000e+01,-1.100000000000000000e+01,-1.000000000000000000e+00,1.000000000000000000e+00,-3.000000000000000000e+00,2.000000000000000000e+00,1.176147460937500000e-01,5.094604492187500000e-01,-2.423095703125000000e-01,8.171997070312500000e-01
-2.000000000000000000e+01,-1.500000000000000000e+01,-4.000000000000000000e+00,5.000000000000000000e+00,0.000000000000000000e+00,-6.000000000000000000e+00,-3.000000000000000000e+00,-2.000000000000000000e+00,1.177978515625000000e-01,5.093383789062500000e-01,-2.422485351562500000e-01,8.172607421875000000e-01
9.000000000000000000e+00,-4.000000000000000000e+00,-1.700000000000000000e+01,7.000000000000000000e+00,0.000000000000000000e+00,8.000000000000000000e+00,1.000000000000000000e+00,8.000000000000000000e+00,1.177978515625000000e-01,5.093383789062500000e-01,-2.422485351562500000e-01,8.172607421875000000e-01
1.600000000000000000e+01,0.000000000000000000e+00,4.000000000000000000e+00,-6.000000000000000000e+00,-5.000000000000000000e+00,-2.000000000000000000e+00,2.000000000000000000e+00,-1.300000000000000000e+01,1.177978515625000000e-01,5.093383789062500000e-01,-2.422485351562500000e-01,8.172607421875000000e-01
-1.500000000000000000e+01,1.000000000000000000e+01,3.400000000000000000e+01,1.200000000000000000e+01,-1.000000000000000000e+00,-1.000000000000000000e+00,0.000000000000000000e+00,-9.000000000000000000e+00,1.177978515625000000e-01,5.093383789062500000e-01,-2.422485351562500000e-01,8.172607421875000000e-01
3.000000000000000000e+00,-2.000000000000000000e+00,-3.700000000000000000e+01,-1.200000000000000000e+01,-1.000000000000000000e+00,0.000000000000000000e+00,9.000000000000000000e+00,1.600000000000000000e+01,1.179199218750000000e-01,5.089721679687500000e-01,-2.426147460937500000e-01,8.173828125000000000e-01
-1.000000000000000000e+01,-6.000000000000000000e+00,1.000000000000000000e+01,-2.000000000000000000e+00,0.000000000000000000e+00,1.800000000000000000e+01,2.500000000000000000e+01,-9.000000000000000000e+00,1.179199218750000000e-01,5.089721679687500000e-01,-2.426147460937500000e-01,8.173828125000000000e-01
3.900000000000000000e+01,7.000000000000000000e+00,5.000000000000000000e+00,1.400000000000000000e+01,3.000000000000000000e+00,-6.000000000000000000e+00,-9.000000000000000000e+00,1.000000000000000000e+00,1.179199218750000000e-01,5.089721679687500000e-01,-2.426147460937500000e-01,8.173828125000000000e-01
-2.700000000000000000e+01,-3.000000000000000000e+00,-6.000000000000000000e+00,-1.000000000000000000e+00,-5.000000000000000000e+00,-4.000000000000000000e+00,-3.000000000000000000e+00,-4.000000000000000000e+00,1.179199218750000000e-01,5.089721679687500000e-01,-2.426147460937500000e-01,8.173828125000000000e-01
-1.800000000000000000e+01,-1.300000000000000000e+01,-2.300000000000000000e+01,-1.000000000000000000e+00,7.000000000000000000e+00,-2.000000000000000000e+00,-1.000000000000000000e+01,-5.000000000000000000e+00,1.178588867187500000e-01,5.087280273437500000e-01,-2.427368164062500000e-01,8.175048828125000000e-01
-2.000000000000000000e+00,-6.000000000000000000e+00,0.000000000000000000e+00,-1.600000000000000000e+01,-5.000000000000000000e+00,-1.100000000000000000e+01,-9.000000000000000000e+00,-7.000000000000000000e+00,1.178588867187500000e-01,5.087280273437500000e-01,-2.427368164062500000e-01,8.175048828125000000e-01
9.000000000000000000e+00,3.800000000000000000e+01,3.400000000000000000e+01,2.600000000000000000e+01,2.000000000000000000e+00,3.000000000000000000e+00,0.000000000000000000e+00,8.000000000000000000e+00,1.178588867187500000e-01,5.087280273437500000e-01,-2.427368164062500000e-01,8.175048828125000000e-01
-6.000000000000000000e+00,-1.800000000000000000e+01,1.000000000000000000e+00,-1.200000000000000000e+01,-1.000000000000000000e+00,-1.000000000000000000e+00,-2.000000000000000000e+00,7.000000000000000000e+00,1.178588867187500000e-01,5.087280273437500000e-01,-2.427368164062500000e-01,8.175048828125000000e-01
1.200000000000000000e+01,-2.000000000000000000e+00,3.000000000000000000e+01,1.500000000000000000e+01,-1.000000000000000000e+00,3.000000000000000000e+00,2.000000000000000000e+00,-4.000000000000000000e+00,1.176757812500000000e-01,5.090332031250000000e-01,-2.425537109375000000e-01,8.173828125000000000e-01
-8.000000000000000000e+00,-1.000000000000000000e+00,-3.400000000000000000e+01,-1.400000000000000000e+01,0.000000000000000000e+00,-3.000000000000000000e+00,-4.000000000000000000e+00,2.000000000000000000e+00,1.176757812500000000e-01,5.090332031250000000e-01,-2.425537109375000000e-01,8.173828125000000000e-01
-1.300000000000000000e+01,3.000000000000000000e+00,-2.400000000000000000e+01,-4.700000000000000000e+01,-1.000000000000000000e+00,1.000000000000000000e+00,-1.000000000000000000e+00,0.000000000000000000e+00,1.176757812500000000e-01,5.090332031250000000e-01,-2.425537109375000000e-01,8.173828125000000000e-01
1.600000000000000000e+01,1.100000000000000000e+01,2.200000000000000000e+01,9.000000000000000000e+00,1.000000000000000000e+00,-5.000000000000000000e+00,-4.000000000000000000e+00,6.000000000000000000e+00,1.176757812500000000e-01,5.090332031250000000e-01,-2.425537109375000000e-01,8.173828125000000000e-01
-1.500000000000000000e+01,4.000000000000000000e+00,1.000000000000000000e+01,7.000000000000000000e+00,-5.000000000000000000e+00,-5.000000000000000000e+00,-8.000000000000000000e+00,-3.000000000000000000e+01,1.174316406250000000e-01,5.092773437500000000e-01,-2.422485351562500000e-01,8.173828125000000000e-01
-2.000000000000000000e+00,-1.000000000000000000e+01,4.000000000000000000e+00,1.300000000000000000e+01,1.000000000000000000e+00,3.000000000000000000e+00,3.000000000000000000e+00,1.600000000000000000e+01,1.174316406250000000e-01,5.092773437500000000e-01,-2.422485351562500000e-01,8.173828125000000000e-01
-1.300000000000000000e+01,-1.300000000000000000e+01,-2.500000000000000000e+01,-2.100000000000000000e+01,-4.000000000000000000e+00,-7.000000000000000000e+00,-9.000000000000000000e+00,-1.400000000000000000e+01,1.174316406250000000e-01,5.092773437500000000e-01,-2.422485351562500000e-01,8.173828125000000000e-01
6.000000000000000000e+00,1.800000000000000000e+01,1.400000000000000000e+01,1.000000000000000000e+01,1.000000000000000000e+00,-5.000000000000000000e+00,-1.000000000000000000e+00,0.000000000000000000e+00,1.174316406250000000e-01,5.092773437500000000e-01,-2.422485351562500000e-01,8.173828125000000000e-01
2.400000000000000000e+01,-1.300000000000000000e+01,-1.800000000000000000e+01,-2.300000000000000000e+01,-5.000000000000000000e+00,1.700000000000000000e+01,1.300000000000000000e+01,1.000000000000000000e+00,1.177978515625000000e-01,5.095214843750000000e-01,-2.420043945312500000e-01,8.172607421875000000e-01
1.300000000000000000e+01,1.300000000000000000e+01,3.100000000000000000e+01,1.300000000000000000e+01,2.000000000000000000e+00,-1.200000000000000000e+01,-9.000000000000000000e+00,6.000000000000000000e+00,1.177978515625000000e-01,5.095214843750000000e-01,-2.420043945312500000e-01,8.172607421875000000e-01
-2.000000000000000000e+01,-1.800000000000000000e+01,-4.900000000000000000e+01,3.400000000000000000e+01,5.000000000000000000e+00,1.000000000000000000e+00,3.000000000000000000e+00,3.000000000000000000e+00,1.177978515625000000e-01,5.095214843750000000e-01,-2.420043945312500000e-01,8.172607421875000000e-01
-2.400000000000000000e+01,-3.000000000000000000e+00,3.700000000000000000e+01,-3.200000000000000000e+01,-7.000000000000000000e+00,-6.000000000000000000e+00,-8.000000000000000000e+00,-2.000000000000000000e+01,1.177978515625000000e-01,5.095214843750000000e-01,-2.420043945312500000e-01,8.172607421875000000e-01
-1.000000000000000000e+00,-1.400000000000000000e+01,-5.700000000000000000e+01,3.000000000000000000e+00,-4.000000000000000000e+00,-6.000000000000000000e+00,-9.000000000000000000e+00,-3.000000000000000000e+00,1.179809570312500000e-01,5.099487304687500000e-01,-2.418212890625000000e-01,8.170166015625000000e-01
-3.000000000000000000e+00,-2.000000000000000000e+00,-1.100000000000000000e+01,-8.000000000000000000e+00,-4.000000000000000000e+00,1.000000000000000000e+00,1.000000000000000000e+00,-2.000000000000000000e+00,1.179809570312500000e-01,5.099487304687500000e-01,-2.418212890625000000e-01,8.170166015625000000e-01
1.100000000000000000e+01,2.200000000000000000e+01,4.800000000000000000e+01,5.300000000000000000e+01,1.000000000000000000e+00,2.000000000000000000e+00,6.000000000000000000e+00,1.400000000000000000e+01,1.179809570312500000e-01,5.099487304687500000e-01,-2.418212890625000000e-01,8.170166015625000000e-01
-8.000000000000000000e+00,-9.000000000000000000e+00,2.000000000000000000e+00,-4.700000000000000000e+01,-5.000000000000000000e+00,-2.000000000000000000e+00,-5.000000000000000000e+00,-9.000000000000000000e+00,1.179809570312500000e-01,5.099487304687500000e-01,-2.418212890625000000e-01,8.170166015625000000e-01
0.000000000000000000e+00,1.000000000000000000e+01,1.100000000000000000e+01,-3.000000000000000000e+00,4.000000000000000000e+00,-2.000000000000000000e+00,3.000000000000000000e+00,5.000000000000000000e+00,1.183471679687500000e-01,5.105590820312500000e-01,-2.414550781250000000e-01,8.167114257812500000e-01
8.000000000000000000e+00,-1.000000000000000000e+00,3.000000000000000000e+00,-1.300000000000000000e+01,-1.000000000000000000e+00,-2.000000000000000000e+00,-8.000000000000000000e+00,-2.000000000000000000e+00,1.183471679687500000e-01,5.105590820312500000e-01,-2.414550781250000000e-01,8.167114257812500000e-01
-2.100000000000000000e+01,-3.300000000000000000e+01,-1.200000000000000000e+01,4.000000000000000000e+00,-3.000000000000000000e+00,-1.000000000000000000e+00,1.000000000000000000e+00,-1.600000000000000000e+01,1.183471679687500000e-01,5.105590820312500000e-01,-2.414550781250000000e-01,8.167114257812500000e-01
1.300000000000000000e+01,4.000000000000000000e+00,-2.400000000000000000e+01,8.000000000000000000e+00,8.000000000000000000e+00,7.000000000000000000e+00,3.000000000000000000e+00,1.000000000000000000e+01,1.183471679687500000e-01,5.105590820312500000e-01,-2.414550781250000000e-01,8.167114257812500000e-01
-7.000000000000000000e+00,-3.000000000000000000e+00,2.400000000000000000e+01,2.300000000000000000e+01,-1.000000000000000000e+00,-4.000000000000000000e+00,-1.000000000000000000e+00,1.800000000000000000e+01,1.188354492187500000e-01,5.111694335937500000e-01,-2.411499023437500000e-01,8.162841796875000000e-01
-2.000000000000000000e+00,-1.000000000000000000e+01,-8.000000000000000000e+00,-1.000000000000000000e+01,-1.000000000000000000e+00,-2.000000000000000000e+00,-1.000000000000000000e+01,-2.200000000000000000e+01,1.188354492187500000e-01,5.111694335937500000e-01,-2.411499023437500000e-01,8.162841796875000000e-01
-6.000000000000000000e+00,3.500000000000000000e+01,1.100000000000000000e+01,4.000000000000000000e+00,-1.000000000000000000e+00,-1.200000000000000000e+01,-5.000000000000000000e+00,2.900000000000000000e+01,1.188354492187500000e-01,5.111694335937500000e-01,-2.411499023437500000e-01,8.162841796875000000e-01
3.900000000000000000e+01,-1.800000000000000000e+01,-1.300000000000000000e+01,-9.000000000000000000e+00,-2.000000000000000000e+00,2.500000000000000000e+01,1.600000000000000000e+01,-1.300000000000000000e+01,1.188354492187500000e-01,5.111694335937500000e-01,-2.411499023437500000e-01,8.162841796875000000e-01
-9.000000000000000000e+00,7.000000000000000000e+00,1.600000000000000000e+01,-8.000000000000000000e+00,0.000000000000000000e+00,2.000000000000000000e+00,0.000000000000000000e+00,6.000000000000000000e+00,1.192626953125000000e-01,5.115356445312500000e-01,-2.409667968750000000e-01,8.160400390625000000e-01
-3.100000000000000000e+01,-3.000000000000000000e+00,-1.400000000000000000e+01,-3.000000000000000000e+00,-7.000000000000000000e+00,-3.000000000000000000e+00,6.000000000000000000e+00,-9.000000000000000000e+00,1.192626953125000000e-01,5.115356445312500000e-01,-2.409667968750000000e-01,8.160400390625000000e-01
-1.900000000000000000e+01,-5.900000000000000000e+01,1.300000000000000000e+01,-1.800000000000000000e+01,-4.000000000000000000e+00,-5.000000000000000000e+00,-5.000000000000000000e+00,-1.000000000000000000e+00,1.192626953125000000e-01,5.115356445312500000e-01,-2.409667968750000000e-01,8.160400390625000000e-01
-7.000000000000000000e+00,6.000000000000000000e+01,-4.700000000000000000e+01,-1.100000000000000000e+01,-4.000000000000000000e+00,-5.000000000000000000e+00,-4.000000000000000000e+00,3.000000000000000000e+00,1.192626953125000000e-01,5.115356445312500000e-01,-2.409667968750000000e-01,8.160400390625000000e-01
2.300000000000000000e+01,-4.000000000000000000e+00,3.000000000000000000e+01,1.400000000000000000e+01,-3.000000000000000000e+00,-5.000000000000000000e+00,-3.000000000000000000e+00,-3.000000000000000000e+00,1.196899414062500000e-01,5.119628906250000000e-01,-2.407226562500000000e-01,8.157958984375000000e-01
-2.000000000000000000e+00,1.000000000000000000e+00,1.800000000000000000e+01,1.600000000000000000e+01,3.000000000000000000e+00,-4.000000000000000000e+00,-9.000000000000000000e+00,2.000000000000000000e+00,1.196899414062500000e-01,5.119628906250000000e-01,-2.407226562500000000e-01,8.157958984375000000e-01
2.200000000000000000e+01,2.000000000000000000e+00,-1.600000000000000000e+01,-7.000000000000000000e+00,0.000000000000000000e+00,1.500000000000000000e+01,9.000000000000000000e+00,-6.000000000000000000e+00,1.195068359375000000e-01,5.127563476562500000e-01,-2.403564453125000000e-01,8.154296875000000000e-01
-5.000000000000000000e+00,-2.400000000000000000e+01,-1.000000000000000000e+00,-1.300000000000000000e+01,0.000000000000000000e+00,-7.000000000000000000e+00,-2.000000000000000000e+00,1.200000000000000000e+01,1.195068359375000000e-01,5.127563476562500000e-01,-2.403564453125000000e-01,8.154296875000000000e-01
-9.000000000000000000e+00,-3.000000000000000000e+00,1.000000000000000000e+01,1.200000000000000000e+01,0.000000000000000000e+00,2.000000000000000000e+00,1.000000000000000000e+00,-1.200000000000000000e+01,1.195068359375000000e-01,5.127563476562500000e-01,-2.403564453125000000e-01,8.154296875000000000e-01
1.900000000000000000e+01,-9.000000000000000000e+00,2.000000000000000000e+00,0.000000000000000000e+00,-6.000000000000000000e+00,-1.200000000000000000e+01,-4.000000000000000000e+00,5.000000000000000000e+00,1.195068359375000000e-01,5.127563476562500000e-01,-2.403564453125000000e-01,8.154296875000000000e-01
-2.400000000000000000e+01,3.100000000000000000e+01,2.200000000000000000e+01,-2.000000000000000000e+01,-1.000000000000000000e+00,2.000000000000000000e+00,-2.000000000000000000e+00,-4.000000000000000000e+00,1.193847656250000000e-01,5.135498046875000000e-01,-2.401123046875000000e-01,8.150634765625000000e-01
-1.100000000000000000e+01,-1.800000000000000000e+01,-2.200000000000000000e+01,2.100000000000000000e+01,0.000000000000000000e+00,1.000000000000000000e+00,2.000000000000000000e+00,-2.000000000000000000e+00,1.193847656250000000e-01,5.135498046875000000e-01,-2.401123046875000000e-01,8.150634765625000000e-01
-7.000000000000000000e+00,1.500000000000000000e+01,-1.000000000000000000e+01,-9.000000000000000000e+00,-1.000000000000000000e+00,2.000000000000000000e+00,3.000000000000000000e+00,2.000000000000000000e+00,1.193847656250000000e-01,5.135498046875000000e-01,-2.401123046875000000e-01,8.150634765625000000e-01
6.000000000000000000e+00,-1.300000000000000000e+01,6.000000000000000000e+00,1.000000000000000000e+00,0.000000000000000000e+00,0.000000000000000000e+00,-2.000000000000000000e+00,-1.000000000000000000e+00,1.193847656250000000e-01,5.135498046875000000e-01,-2.401123046875000000e-01,8.150634765625000000e-01
1.200000000000000000e+01,6.000000000000000000e+00,1.900000000000000000e+01,1.000000000000000000e+01,-4.000000000000000000e+00,2.000000000000000000e+00,5.000000000000000000e+00,0.000000000000000000e+00,1.187744140625000000e-01,5.139770507812500000e-01,-2.399902343750000000e-01,8.148803710937500000e-01
-1.000000000000000000e+01,-9.000000000000000000e+00,-5.400000000000000000e+01,-1.900000000000000000e+01,-5.000000000000000000e+00,-5.000000000000000000e+00,-9.000000000000000000e+00,-5.000000000000000000e+00,1.187744140625000000e-01,5.139770507812500000e-01,-2.399902343750000000e-01,8.148803710937500000e-01
1.900000000000000000e+01,-2.000000000000000000e+00,4.000000000000000000e+00,2.300000000000000000e+01,4.000000000000000000e+00,-5.000000000000000000e+00,-5.000000000000000000e+00,7.000000000000000000e+00,1.187744140625000000e-01,5.139770507812500000e-01,-2.399902343750000000e-01,8.148803710937500000e-01
-2.200000000000000000e+01,2.000000000000000000e+00,-9.000000000000000000e+00,-3.500000000000000000e+01,-1.100000000000000000e+01,-1.400000000000000000e+01,-1.600000000000000000e+01,8.000000000000000000e+00,1.187744140625000000e-01,5.139770507812500000e-01,-2.399902343750000000e-01,8.148803710937500000e-01
4.600000000000000000e+01,-1.500000000000000000e+01,-1.000000000000000000e+00,3.500000000000000000e+01,8.000000000000000000e+00,1.100000000000000000e+01,9.000000000000000000e+00,-3.000000000000000000e+00,1.182861328125000000e-01,5.142822265625000000e-01,-2.399291992187500000e-01,8.148193359375000000e-01
-6.900000000000000000e+01,3.400000000000000000e+01,3.500000000000000000e+01,-2.700000000000000000e+01,0.000000000000000000e+00,1.600000000000000000e+01,3.400000000000000000e+01,1.700000000000000000e+01,1.182861328125000000e-01,5.142822265625000000e-01,-2.399291992187500000e-01,8.148193359375000000e-01
1.000000000000000000e+00,-1.700000000000000000e+01,-1.300000000000000000e+01,2.000000000000000000e+00,0.000000000000000000e+00,-7.000000000000000000e+00,-9.000000000000000000e+00,2.000000000000000000e+00,1.182861328125000000e-01,5.142822265625000000e-01,-2.399291992187500000e-01,8.148193359375000000e-01
-9.000000000000000000e+00,-1.900000000000000000e+01,-8.000000000000000000e+00,-8.000000000000000000e+00,1.000000000000000000e+00,4.000000000000000000e+00,7.000000000000000000e+00,4.000000000000000000e+00,1.182861328125000000e-01,5.142822265625000000e-01,-2.399291992187500000e-01,8.148193359375000000e-01
-2.000000000000000000e+01,4.000000000000000000e+01,-1.900000000000000000e+01,1.000000000000000000e+01,-6.000000000000000000e+00,-1.600000000000000000e+01,-1.800000000000000000e+01,-1.800000000000000000e+01,1.177978515625000000e-01,5.145263671875000000e-01,-2.398071289062500000e-01,8.146972656250000000e-01
5.600000000000000000e+01,-2.400000000000000000e+01,2.200000000000000000e+01,-3.000000000000000000e+00,0.000000000000000000e+00,-5.000000000000000000e+00,-1.000000000000000000e+01,2.000000000000000000e+00,1.177978515625000000e-01,5.145263671875000000e-01,-2.398071289062500000e-01,8.146972656250000000e-01
3.000000000000000000e+00,-1.000000000000000000e+00,-2.100000000000000000e+01,-2.000000000000000000e+00,-2.000000000000000000e+00,3.000000000000000000e+00,1.000000000000000000e+00,-1.100000000000000000e+01,1.177978515625000000e-01,5.145263671875000000e-01,-2.398071289062500000e-01,8.146972656250000000e-01
-1.600000000000000000e+01,-8.000000000000000000e+00,6.000000000000000000e+00,1.300000000000000000e+01,3.000000000000000000e+00,0.000000000000000000e+00,0.000000000000000000e+00,-2.000000000000000000e+00,1.177978515625000000e-01,5.145263671875000000e-01,-2.398071289062500000e-01,8.146972656250000000e-01
7.000000000000000000e+00,-8.000000000000000000e+00,-3.700000000000000000e+01,-3.200000000000000000e+01,-6.000000000000000000e+00,-2.000000000000000000e+00,-2.000000000000000000e+00,2.000000000000000000e+00,1.171264648437500000e-01,5.146484375000000000e-01,-2.398681640625000000e-01,8.147583007812500000e-01
-3.000000000000000000e+00,-6.000000000000000000e+00,2.100000000000000000e+01,3.400000000000000000e+01,5.000000000000000000e+00,-4.000000000000000000e+00,-5.000000000000000000e+00,-6.000000000000000000e+00,1.171264648437500000e-01,5.146484375000000000e-01,-2.398681640625000000e-01,8.147583007812500000e-01
-2.000000000000000000e+01,8.000000000000000000e+00,2.300000000000000000e+01,4.900000000000000000e+01,4.000000000000000000e+00,3.000000000000000000e+00,3.000000000000000000e+00,0.000000000000000000e+00,1.171264648437500000e-01,5.146484375000000000e-01,-2.398681640625000000e-01,8.147583007812500000e-01
1.900000000000000000e+01,-1.000000000000000000e+00,-2.100000000000000000e+01,-5.200000000000000000e+01,-5.000000000000000000e+00,0.000000000000000000e+00,-4.000000000000000000e+00,-1.700000000000000000e+01,1.171264648437500000e-01,5.146484375000000000e-01,-2.398681640625000000e-01,8.147583007812500000e-01
4.000000000000000000e+00,-9.000000000000000000e+00,-6.000000000000000000e+00,-3.300000000000000000e+01,-1.100000000000000000e+01,-4.000000000000000000e+00,-1.000000000000000000e+00,0.000000000000000000e+00,1.169433593750000000e-01,5.144653320312500000e-01,-2.400512695312500000e-01,8.148193359375000000e-01
-1.800000000000000000e+01,-4.000000000000000000e+00,-2.000000000000000000e+00,0.000000000000000000e+00,1.000000000000000000e+00,-3.000000000000000000e+00,-8.000000000000000000e+00,2.000000000000000000e+00,1.169433593750000000e-01,5.144653320312500000e-01,-2.400512695312500000e-01,8.148193359375000000e-01
2.000000000000000000e+00,4.000000000000000000e+00,-8.000000000000000000e+00,1.600000000000000000e+01,4.000000000000000000e+00,9.000000000000000000e+00,1.300000000000000000e+01,-8.000000000000000000e+00,1.169433593750000000e-01,5.144653320312500000e-01,-2.400512695312500000e-01,8.148193359375000000e-01
8.000000000000000000e+00,5.000000000000000000e+00,1.100000000000000000e+01,2.200000000000000000e+01,5.000000000000000000e+00,-2.000000000000000000e+00,2.000000000000000000e+00,2.200000000000000000e+01,1.169433593750000000e-01,5.144653320312500000e-01,-2.400512695312500000e-01,8.148193359375000000e-01
-3.900000000000000000e+01,1.700000000000000000e+01,1.800000000000000000e+01,-2.400000000000000000e+01,-5.000000000000000000e+00,1.100000000000000000e+01,6.000000000000000000e+00,-2.000000000000000000e+00,1.166381835937500000e-01,5.140380859375000000e-01,-2.400512695312500000e-01,8.151855468750000000e-01
-1.400000000000000000e+01,-2.400000000000000000e+01,-5.300000000000000000e+01,0.000000000000000000e+00,-2.000000000000000000e+00,-1.000000000000000000e+00,-3.000000000000000000e+00,-1.800000000000000000e+01,1.166381835937500000e-01,5.140380859375000000e-01,-2.400512695312500000e-01,8.151855468750000000e-01
3.000000000000000000e+00,-1.000000000000000000e+00,2.100000000000000000e+01,-4.000000000000000000e+00,-5.000000000000000000e+00,-5.000000000000000000e+00,-7.000000000000000000e+00,-2.000000000000000000e+00,1.166381835937500000e-01,5.140380859375000000e-01,-2.400512695312500000e-01,8.151855468750000000e-01
-8.000000000000000000e+00,-1.600000000000000000e+01,-1.300000000000000000e+01,8.000000000000000000e+00,2.000000000000000000e+00,1.000000000000000000e+00,2.000000000000000000e+00,-4.000000000000000000e+00,1.166381835937500000e-01,5.140380859375000000e-01,-2.400512695312500000e-01,8.151855468750000000e-01
6.000000000000000000e+00,2.900000000000000000e+01,1.000000000000000000e+01,-1.200000000000000000e+01,-3.000000000000000000e+00,-5.000000000000000000e+00,-9.000000000000000000e+00,-2.000000000000000000e+00,1.160278320312500000e-01,5.136108398437500000e-01,-2.399291992187500000e-01,8.155517578125000000e-01
8.000000000000000000e+00,0.000000000000000000e+00,7.000000000000000000e+00,8.000000000000000000e+00,-2.000000000000000000e+00,-4.000000000000000000e+00,0.000000000000000000e+00,4.000000000000000000e+00,1.160278320312500000e-01,5.136108398437500000e-01,-2.399291992187500000e-01,8.155517578125000000e-01
-7.000000000000000000e+00,-1.000000000000000000e+01,-1.200000000000000000e+01,-2.000000000000000000e+01,0.000000000000000000e+00,-1.000000000000000000e+00,-3.000000000000000000e+00,1.000000000000000000e+00,1.160278320312500000e-01,5.136108398437500000e-01,-2.399291992187500000e-01,8.155517578125000000e-01
-5.000000000000000000e+00,6.000000000000000000e+00,4.000000000000000000e+00,-1.000000000000000000e+00,-6.000000000000000000e+00,-1.000000000000000000e+00,1.000000000000000000e+00,-7.000000000000000000e+00,1.160278320312500000e-01,5.136108398437500000e-01,-2.399291992187500000e-01,8.155517578125000000e-01
1.400000000000000000e+01,-3.000000000000000000e+01,-8.000000000000000000e+00,6.000000000000000000e+00,3.000000000000000000e+00,-2.000000000000000000e+00,-4.000000000000000000e+00,3.000000000000000000e+00,1.154785156250000000e-01,5.133666992187500000e-01,-2.397460937500000000e-01,8.157958984375000000e-01
0.000000000000000000e+00,1.000000000000000000e+01,1.700000000000000000e+01,3.300000000000000000e+01,0.000000000000000000e+00,-7.000000000000000000e+00,-6.000000000000000000e+00,-2.000000000000000000e+00,1.154785156250000000e-01,5.133666992187500000e-01,-2.397460937500000000e-01,8.157958984375000000e-01
-6.000000000000000000e+00,-1.200000000000000000e+01,-1.500000000000000000e+01,-5.400000000000000000e+01,-8.000000000000000000e+00,-1.000000000000000000e+00,4.000000000000000000e+00,-2.000000000000000000e+00,1.154785156250000000e-01,5.133666992187500000e-01,-2.397460937500000000e-01,8.157958984375000000e-01
-1.800000000000000000e+01,1.000000000000000000e+01,1.200000000000000000e+01,1.100000000000000000e+01,0.000000000000000000e+00,0.000000000000000000e+00,-7.000000000000000000e+00,-7.000000000000000000e+00,1.154785156250000000e-01,5.133666992187500000e-01,-2.397460937500000000e-01,8.157958984375000000e-01
1.700000000000000000e+01,-1.600000000000000000e+01,-7.000000000000000000e+00,-1.800000000000000000e+01,-2.000000000000000000e+00,0.000000000000000000e+00,2.000000000000000000e+00,-1.000000000000000000e+00,1.152343750000000000e-01,5.127563476562500000e-01,-2.398681640625000000e-01,8.162231445312500000e-01
3.000000000000000000e+00,1.500000000000000000e+01,4.000000000000000000e+00,3.000000000000000000e+01,7.000000000000000000e+00,1.000000000000000000e+00,1.000000000000000000e+00,-2.000000000000000000e+00,1.152343750000000000e-01,5.127563476562500000e-01,-2.398681640625000000e-01,8.162231445312500000e-01
-2.200000000000000000e+01,-2.000000000000000000e+00,1.200000000000000000e+01,-1.500000000000000000e+01,-4.000000000000000000e+00,-1.200000000000000000e+01,-7.000000000000000000e+00,1.200000000000000000e+01,1.152343750000000000e-01,5.127563476562500000e-01,-2.398681640625000000e-01,8.162231445312500000e-01
5.100000000000000000e+01,1.800000000000000000e+01,3.200000000000000000e+01,2.300000000000000000e+01,0.000000000000000000e+00,-1.000000000000000000e+00,-5.000000000000000000e+00,1.500000000000000000e+01,1.152343750000000000e-01,5.127563476562500000e-01,-2.398681640625000000e-01,8.162231445312500000e-01
-2.700000000000000000e+01,-6.000000000000000000e+00,-5.400000000000000000e+01,-1.800000000000000000e+01,-1.000000000000000000e+00,1.000000000000000000e+01,1.800000000000000000e+01,-1.800000000000000000e+01,1.152954101562500000e-01,5.120849609375000000e-01,-2.401123046875000000e-01,8.165283203125000000e-01
0.000000000000000000e+00,-2.400000000000000000e+01,3.000000000000000000e+00,-8.000000000000000000e+00,3.000000000000000000e+00,8.000000000000000000e+00,7.000000000000000000e+00,6.000000000000000000e+00,1.152954101562500000e-01,5.120849609375000000e-01,-2.401123046875000000e-01,8.165283203125000000e-01
0.000000000000000000e+00,-1.400000000000000000e+01,-2.000000000000000000e+00,-7.000000000000000000e+00,-3.000000000000000000e+00,-7.000000000000000000e+00,-5.000000000000000000e+00,-5.000000000000000000e+00,1.152954101562500000e-01,5.120849609375000000e-01,-2.401123046875000000e-01,8.165283203125000000e-01
-6.000000000000000000e+00,1.600000000000000000e+01,0.000000000000000000e+00,-4.000000000000000000e+00,-1.000000000000000000e+00,-6.000000000000000000e+00,-5.000000000000000000e+00,-9.000000000000000000e+00,1.152954101562500000e-01,5.120849609375000000e-01,-2.401123046875000000e-01,8.165283203125000000e-01
9.000000000000000000e+00,2.000000000000000000e+00,4.200000000000000000e+01,3.300000000000000000e+01,4.000000000000000000e+00,-3.000000000000000000e+00,-3.000000000000000000e+00,9.000000000000000000e+00,1.152954101562500000e-01,5.116577148437500000e-01,-2.402954101562500000e-01,8.167724609375000000e-01
2.900000000000000000e+01,-5.000000000000000000e+00,-2.000000000000000000e+01,-1.000000000000000000e+01,-7.000000000000000000e+00,-1.000000000000000000e+01,-1.400000000000000000e+01,-4.000000000000000000e+00,1.152954101562500000e-01,5.116577148437500000e-01,-2.402954101562500000e-01,8.167724609375000000e-01
-1.100000000000000000e+01,2.300000000000000000e+01,1.000000000000000000e+00,-1.700000000000000000e+01,-3.000000000000000000e+00,3.000000000000000000e+00,6.000000000000000000e+00,-1.000000000000000000e+00,1.152954101562500000e-01,5.116577148437500000e-01,-2.402954101562500000e-01,8.167724609375000000e-01
1.000000000000000000e+00,8.000000000000000000e+00,-1.100000000000000000e+01,6.000000000000000000e+00,-5.000000000000000000e+00,-1.000000000000000000e+00,0.000000000000000000e+00,-1.000000000000000000e+00,1.152954101562500000e-01,5.116577148437500000e-01,-2.402954101562500000e-01,8.167724609375000000e-01
-9.000000000000000000e+00,4.000000000000000000e+00,2.000000000000000000e+01,-2.000000000000000000e+00,3.000000000000000000e+00,-2.000000000000000000e+00,-2.000000000000000000e+00,-1.000000000000000000e+00,1.154785156250000000e-01,5.112915039062500000e-01,-2.403564453125000000e-01,8.169555664062500000e-01
-6.000000000000000000e+00,-1.800000000000000000e+01,-1.100000000000000000e+01,-2.600000000000000000e+01,-8.000000000000000000e+00,-5.000000000000000000e+00,-1.000000000000000000e+01,-3.000000000000000000e+00,1.154785156250000000e-01,5.112915039062500000e-01,-2.403564453125000000e-01,8.169555664062500000e-01
-8.000000000000000000e+00,7.000000000000000000e+00,4.600000000000000000e+01,1.400000000000000000e+01,2.000000000000000000e+00,2.000000000000000000e+00,-2.000000000000000000e+00,-6.000000000000000000e+00,1.154785156250000000e-01,5.112915039062500000e-01,-2.403564453125000000e-01,8.169555664062500000e-01
-1.200000000000000000e+01,-2.000000000000000000e+00,-6.100000000000000000e+01,-1.000000000000000000e+01,-3.000000000000000000e+00,3.000000000000000000e+00,3.000000000000000000e+00,-6.000000000000000000e+00,1.154785156250000000e-01,5.112915039062500000e-01,-2.403564453125000000e-01,8.169555664062500000e-01
-7.000000000000000000e+00,-2.000000000000000000e+01,-6.000000000000000000e+00,1.400000000000000000e+01,2.000000000000000000e+00,-1.000000000000000000e+01,-1.000000000000000000e+01,-1.400000000000000000e+01,1.153564453125000000e-01,5.112915039062500000e-01,-2.402343750000000000e-01,8.170166015625000000e-01
1.300000000000000000e+01,1.900000000000000000e+01,3.800000000000000000e+01,-1.400000000000000000e+01,-2.000000000000000000e+00,3.000000000000000000e+00,4.000000000000000000e+00,1.300000000000000000e+01,1.153564453125000000e-01,5.112915039062500000e-01,-2.402343750000000000e-01,8.170166015625000000e-01
5.000000000000000000e+00,-7.000000000000000000e+00,-4.400000000000000000e+01,1.000000000000000000e+00,0.000000000000000000e+00,1.000000000000000000e+00,1.000000000000000000e+00,1.000000000000000000e+00,1.153564453125000000e-01,5.112915039062500000e-01,-2.402343750000000000e-01,8.170166015625000000e-01
-8.000000000000000000e+00,-1.100000000000000000e+01,1.100000000000000000e+01,1.100000000000000000e+01,0.000000000000000000e+00,0.000000000000000000e+00,2.000000000000000000e+00,-1.000000000000000000e+00,1.153564453125000000e-01,5.112915039062500000e-01,-2.402343750000000000e-01,8.170166015625000000e-01
-1.100000000000000000e+01,4.000000000000000000e+00,-4.000000000000000000e+00,8.000000000000000000e+00,3.000000000000000000e+00,-1.000000000000000000e+00,-7.000000000000000000e+00,0.000000000000000000e+00,1.155395507812500000e-01,5.111694335937500000e-01,-2.403564453125000000e-01,8.170166015625000000e-01
3.400000000000000000e+01,-7.000000000000000000e+00,-1.800000000000000000e+01,-3.200000000000000000e+01,-5.000000000000000000e+00,-4.000000000000000000e+00,5.000000000000000000e+00,1.800000000000000000e+01,1.155395507812500000e-01,5.111694335937500000e-01,-2.403564453125000000e-01,8.170166015625000000e-01
-6.000000000000000000e+00,0.000000000000000000e+00,1.300000000000000000e+01,1.500000000000000000e+01,-5.000000000000000000e+00,2.000000000000000000e+00,2.000000000000000000e+00,-2.500000000000000000e+01,1.155395507812500000e-01,5.111694335937500000e-01,-2.403564453125000000e-01,8.170166015625000000e-01
-5.800000000000000000e+01,7.000000000000000000e+00,1.500000000000000000e+01,-5.000000000000000000e+00,0.000000000000000000e+00,4.000000000000000000e+00,2.000000000000000000e+00,-8.000000000000000000e+00,1.155395507812500000e-01,5.111694335937500000e-01,-2.403564453125000000e-01,8.170166015625000000e-01
1.200000000000000000e+01,-1.500000000000000000e+01,-3.200000000000000000e+01,0.000000000000000000e+00,-1.000000000000000000e+00,-2.000000000000000000e+00,-3.000000000000000000e+00,-1.000000000000000000e+00,1.156005859375000000e-01,5.111083984375000000e-01,-2.402954101562500000e-01,8.170776367187500000e-01
-3.300000000000000000e+01,1.000000000000000000e+00,3.000000000000000000e+00,8.000000000000000000e+00,3.000000000000000000e+00,-3.000000000000000000e+00,-7.000000000000000000e+00,3.000000000000000000e+00,1.156005859375000000e-01,5.111083984375000000e-01,-2.402954101562500000e-01,8.170776367187500000e-01
1.500000000000000000e+01,-5.000000000000000000e+00,-1.200000000000000000e+01,-1.700000000000000000e+01,-1.000000000000000000e+00,3.000000000000000000e+00,4.000000000000000000e+00,1.100000000000000000e+01,1.156005859375000000e-01,5.111083984375000000e-01,-2.402954101562500000e-01,8.170776367187500000e-01
1.000000000000000000e+00,-1.100000000000000000e+01,8.000000000000000000e+00,2.800000000000000000e+01,3.000000000000000000e+00,-2.000000000000000000e+00,-3.000000000000000000e+00,-1.000000000000000000e+01,1.156005859375000000e-01,5.111083984375000000e-01,-2.402954101562500000e-01,8.170776367187500000e-01
8.000000000000000000e+00,2.300000000000000000e+01,5.600000000000000000e+01,1.000000000000000000e+01,-2.000000000000000000e+00,-3.000000000000000000e+00,3.000000000000000000e+00,9.000000000000000000e+00,1.155395507812500000e-01,5.111083984375000000e-01,-2.401733398437500000e-01,8.171386718750000000e-01
-8.000000000000000000e+00,-1.400000000000000000e+01,-2.200000000000000000e+01,-2.700000000000000000e+01,-6.000000000000000000e+00,-6.000000000000000000e+00,-2.000000000000000000e+00,-7.000000000000000000e+00,1.155395507812500000e-01,5.111083984375000000e-01,-2.401733398437500000e-01,8.171386718750000000e-01
7.000000000000000000e+00,2.000000000000000000e+01,1.500000000000000000e+01,-7.000000000000000000e+00,1.000000000000000000e+00,-4.000000000000000000e+00,-8.000000000000000000e+00,1.000000000000000000e+00,1.155395507812500000e-01,5.111083984375000000e-01,-2.401733398437500000e-01,8.171386718750000000e-01
-2.000000000000000000e+00,-1.300000000000000000e+01,-1.800000000000000000e+01,1.100000000000000000e+01,2.000000000000000000e+00,4.000000000000000000e+00,1.000000000000000000e+00,0.000000000000000000e+00,1.155395507812500000e-01,5.111083984375000000e-01,-2.401733398437500000e-01,8.171386718750000000e-01
4.000000000000000000e+00,2.000000000000000000e+00,4.000000000000000000e+00,-1.800000000000000000e+01,-1.000000000000000000e+00,2.000000000000000000e+00,1.000000000000000000e+00,8.000000000000000000e+00,1.159057617187500000e-01,5.112304687500000000e-01,-2.400512695312500000e-01,8.170166015625000000e-01
-2.000000000000000000e+00,-1.000000000000000000e+00,-4.000000000000000000e+00,2.300000000000000000e+01,7.000000000000000000e+00,6.000000000000000000e+00,4.000000000000000000e+00,-1.400000000000000000e+01,1.159057617187500000e-01,5.112304687500000000e-01,-2.400512695312500000e-01,8.170166015625000000e-01
-8.000000000000000000e+00,-2.700000000000000000e+01,-1.900000000000000000e+01,1.000000000000000000e+00,1.000000000000000000e+00,-5.000000000000000000e+00,-5.000000000000000000e+00,3.000000000000000000e+00,1.159057617187500000e-01,5.112304687500000000e-01,-2.400512695312500000e-01,8.170166015625000000e-01
1.800000000000000000e+01,3.400000000000000000e+01,2.100000000000000000e+01,-2.700000000000000000e+01,-5.000000000000000000e+00,-3.000000000000000000e+00,-1.000000000000000000e+00,3.000000000000000000e+00,1.159057617187500000e-01,5.112304687500000000e-01,-2.400512695312500000e-01,8.170166015625000000e-01
-4.000000000000000000e+00,-2.000000000000000000e+00,1.000000000000000000e+01,1.300000000000000000e+01,-1.000000000000000000e+00,5.000000000000000000e+00,5.000000000000000000e+00,4.000000000000000000e+00,1.161499023437500000e-01,5.115356445312500000e-01,-2.399902343750000000e-01,8.167724609375000000e-01
7.000000000000000000e+00,1.500000000000000000e+01,8.000000000000000000e+00,1.100000000000000000e+01,-2.000000000000000000e+00,-1.000000000000000000e+00,2.000000000000000000e+00,-3.000000000000000000e+00,1.161499023437500000e-01,5.115356445312500000e-01,-2.399902343750000000e-01,8.167724609375000000e-01
-6.000000000000000000e+00,-9.000000000000000000e+00,-9.000000000000000000e+00,5.000000000000000000e+00,-1.000000000000000000e+00,-5.000000000000000000e+00,-8.000000000000000000e+00,-3.000000000000000000e+00,1.161499023437500000e-01,5.115356445312500000e-01,-2.399902343750000000e-01,8.167724609375000000e-01
1.700000000000000000e+01,-7.000000000000000000e+00,-2.000000000000000000e+00,-8.000000000000000000e+00,0.000000000000000000e+00,8.000000000000000000e+00,5.000000000000000000e+00,9.000000000000000000e+00,1.161499023437500000e-01,5.115356445312500000e-01,-2.399902343750000000e-01,8.167724609375000000e-01
-2.700000000000000000e+01,-2.100000000000000000e+01,-5.000000000000000000e+00,-1.900000000000000000e+01,-3.000000000000000000e+00,-2.000000000000000000e+00,-8.000000000000000000e+00,-2.500000000000000000e+01,1.165161132812500000e-01,5.117187500000000000e-01,-2.401123046875000000e-01,8.165893554687500000e-01
-4.000000000000000000e+00,5.000000000000000000e+00,1.600000000000000000e+01,1.000000000000000000e+01,0.000000000000000000e+00,-3.000000000000000000e+00,8.000000000000000000e+00,5.000000000000000000e+00,1.165161132812500000e-01,5.117187500000000000e-01,-2.401123046875000000e-01,8.165893554687500000e-01
1.900000000000000000e+01,6.000000000000000000e+00,-2.900000000000000000e+01,3.000000000000000000e+00,-4.000000000000000000e+00,0.000000000000000000e+00,-1.000000000000000000e+00,3.000000000000000000e+00,1.165161132812500000e-01,5.117187500000000000e-01,-2.401123046875000000e-01,8.165893554687500000e-01
-4.700000000000000000e+01,-1.300000000000000000e+01,6.000000000000000000e+00,4.000000000000000000e+00,1.000000000000000000e+00,6.000000000000000000e+00,0.000000000000000000e+00,-7.000000000000000000e+00,1.165161132812500000e-01,5.117187500000000000e-01,-2.401123046875000000e-01,8.165893554687500000e-01
-1.000000000000000000e+00,-1.600000000000000000e+01,-3.200000000000000000e+01,-9.000000000000000000e+00,-2.000000000000000000e+00,9.000000000000000000e+00,4.000000000000000000e+00,0.000000000000000000e+00,1.165771484375000000e-01,5.119628906250000000e-01,-2.401123046875000000e-01,8.164672851562500000e-01
0.000000000000000000e+00,9.000000000000000000e+00,2.600000000000000000e+01,7.000000000000000000e+00,-4.000000000000000000e+00,-1.100000000000000000e+01,-1.200000000000000000e+01,-1.200000000000000000e+01,1.165771484375000000e-01,5.119628906250000000e-01,-2.401123046875000000e-01,8.164672851562500000e-01
8.000000000000000000e+00,2.100000000000000000e+01,2.400000000000000000e+01,2.000000000000000000e+00,-4.000000000000000000e+00,-4.000000000000000000e+00,-6.000000000000000000e+00,-5.000000000000000000e+00,1.165771484375000000e-01,5.119628906250000000e-01,-2.401123046875000000e-01,8.164672851562500000e-01
2.000000000000000000e+01,-4.000000000000000000e+00,-1.000000000000000000e+00,-1.000000000000000000e+00,1.000000000000000000e+00,-4.000000000000000000e+00,-2.000000000000000000e+00,-1.000000000000000000e+00,1.165771484375000000e-01,5.119628906250000000e-01,-2.401123046875000000e-01,8.164672851562500000e-01
1.500000000000000000e+01,-2.000000000000000000e+00,-2.500000000000000000e+01,-5.000000000000000000e+00,4.000000000000000000e+00,0.000000000000000000e+00,2.000000000000000000e+00,9.000000000000000000e+00,1.164550781250000000e-01,5.121459960937500000e-01,-2.398681640625000000e-01,8.164062500000000000e-01
-9.000000000000000000e+00,-1.400000000000000000e+01,-4.000000000000000000e+00,-1.100000000000000000e+01,-7.000000000000000000e+00,1.000000000000000000e+00,0.000000000000000000e+00,-5.000000000000000000e+00,1.164550781250000000e-01,5.121459960937500000e-01,-2.398681640625000000e-01,8.164062500000000000e-01
-5.000000000000000000e+00,2.000000000000000000e+00,2.200000000000000000e+01,6.000000000000000000e+00,0.000000000000000000e+00,1.000000000000000000e+00,2.000000000000000000e+00,2.000000000000000000e+00,1.164550781250000000e-01,5.121459960937500000e-01,-2.398681640625000000e-01,8.164062500000000000e-01
6.000000000000000000e+00,6.000000000000000000e+00,-6.000000000000000000e+00,4.000000000000000000e+00,3.000000000000000000e+00,1.000000000000000000e+00,0.000000000000000000e+00,-4.000000000000000000e+00,1.164550781250000000e-01,5.121459960937500000e-01,-2.398681640625000000e-01,8.164062500000000000e-01
4.000000000000000000e+00,0.000000000000000000e+00,2.100000000000000000e+01,2.500000000000000000e+01,2.000000000000000000e+00,-3.000000000000000000e+00,1.000000000000000000e+00,5.000000000000000000e+00,1.160278320312500000e-01,5.123291015625000000e-01,-2.396850585937500000e-01,8.164062500000000000e-01
-6.000000000000000000e+00,-2.100000000000000000e+01,-2.400000000000000000e+01,-1.200000000000000000e+01,0.000000000000000000e+00,-1.000000000000000000e+00,-2.000000000000000000e+00,2.000000000000000000e+00,1.160278320312500000e-01,5.123291015625000000e-01,-2.396850585937500000e-01,8.164062500000000000e-01
4.000000000000000000e+00,1.700000000000000000e+01,-3.100000000000000000e+01,-3.400000000000000000e+01,-9.000000000000000000e+00,-3.000000000000000000e+00,0.000000000000000000e+00,-1.000000000000000000e+00,1.160278320312500000e-01,5.123291015625000000e-01,-2.396850585937500000e-01,8.164062500000000000e-01
0.000000000000000000e+00,-1.400000000000000000e+01,3.700000000000000000e+01,2.300000000000000000e+01,-2.000000000000000000e+00,-4.000000000000000000e+00,-6.000000000000000000e+00,-5.000000000000000000e+00,1.160278320312500000e-01,5.123291015625000000e-01,-2.396850585937500000e-01,8.164062500000000000e-01
1.900000000000000000e+01,2.100000000000000000e+01,1.100000000000000000e+01,-6.000000000000000000e+00,2.000000000000000000e+00,3.000000000000000000e+00,6.000000000000000000e+00,5.000000000000000000e+00,1.160278320312500000e-01,5.123901367187500000e-01,-2.396850585937500000e-01,8.164062500000000000e-01
-4.900000000000000000e+01,-1.200000000000000000e+01,1.800000000000000000e+01,4.500000000000000000e+01,8.000000000000000000e+00,1.000000000000000000e+00,0.000000000000000000e+00,-9.000000000000000000e+00,1.160278320312500000e-01,5.123901367187500000e-01,-2.396850585937500000e-01,8.164062500000000000e-01
2.000000000000000000e+01,0.000000000000000000e+00,-5.700000000000000000e+01,-3.100000000000000000e+01,2.000000000000000000e+00,4.000000000000000000e+00,0.000000000000000000e+00,-7.000000000000000000e+00,1.160278320312500000e-01,5.123901367187500000e-01,-2.396850585937500000e-01,8.164062500000000000e-01
-7.000000000000000000e+00,-3.000000000000000000e+00,-3.000000000000000000e+00,-2.300000000000000000e+01,-1.200000000000000000e+01,-1.100000000000000000e+01,-4.000000000000000000e+00,-2.000000000000000000e+00,1.160278320312500000e-01,5.123901367187500000e-01,-2.396850585937500000e-01,8.164062500000000000e-01
3.000000000000000000e+00,-4.000000000000000000e+00,5.000000000000000000e+00,-1.900000000000000000e+01,-1.100000000000000000e+01,-1.100000000000000000e+01,-5.000000000000000000e+00,-7.000000000000000000e+00,1.160888671875000000e-01,5.124511718750000000e-01,-2.398681640625000000e-01,8.162841796875000000e-01
3.400000000000000000e+01,-3.000000000000000000e+00,7.000000000000000000e+00,1.200000000000000000e+01,1.000000000000000000e+00,4.000000000000000000e+00,1.000000000000000000e+00,2.100000000000000000e+01,1.160888671875000000e-01,5.124511718750000000e-01,-2.398681640625000000e-01,8.162841796875000000e-01
-4.300000000000000000e+01,1.600000000000000000e+01,1.900000000000000000e+01,1.700000000000000000e+01,2.000000000000000000e+00,0.000000000000000000e+00,-4.000000000000000000e+00,-1.200000000000000000e+01,1.160888671875000000e-01,5.124511718750000000e-01,-2.398681640625000000e-01,8.162841796875000000e-01
2.000000000000000000e+00,1.000000000000000000e+00,-3.700000000000000000e+01,-2.000000000000000000e+00,5.000000000000000000e+00,4.000000000000000000e+00,1.000000000000000000e+00,-1.000000000000000000e+00,1.160888671875000000e-01,5.124511718750000000e-01,-2.398681640625000000e-01,8.162841796875000000e-01
3.000000000000000000e+00,-1.000000000000000000e+00,-4.000000000000000000e+00,-9.000000000000000000e+00,-6.000000000000000000e+00,-3.000000000000000000e+00,-1.000000000000000000e+00,2.000000000000000000e+00,1.163940429687500000e-01,5.122680664062500000e-01,-2.402343750000000000e-01,8.162841796875000000e-01
8.000000000000000000e+00,-2.000000000000000000e+00,-1.100000000000000000e+01,-8.000000000000000000e+00,2.000000000000000000e+00,-2.000000000000000000e+00,-7.000000000000000000e+00,-8.000000000000000000e+00,1.163940429687500000e-01,5.122680664062500000e-01,-2.402343750000000000e-01,8.162841796875000000e-01
-6.000000000000000000e+00,-1.600000000000000000e+01,7.000000000000000000e+00,3.000000000000000000e+00,-2.000000000000000000e+00,-1.000000000000000000e+00,0.000000000000000000e+00,4.000000000000000000e+00,1.163940429687500000e-01,5.122680664062500000e-01,-2.402343750000000000e-01,8.162841796875000000e-01
1.500000000000000000e+01,7.000000000000000000e+00,2.100000000000000000e+01,1.700000000000000000e+01,3.000000000000000000e+00,2.000000000000000000e+00,0.000000000000000000e+00,5.000000000000000000e+00,1.163940429687500000e-01,5.122680664062500000e-01,-2.402343750000000000e-01,8.162841796875000000e-01
-1.300000000000000000e+01,-2.000000000000000000e+00,-1.700000000000000000e+01,-1.400000000000000000e+01,-5.000000000000000000e+00,-4.000000000000000000e+00,-2.000000000000000000e+00,-5.000000000000000000e+00,1.161499023437500000e-01,5.119628906250000000e-01,-2.401123046875000000e-01,8.165283203125000000e-01
-3.000000000000000000e+00,2.000000000000000000e+00,-1.300000000000000000e+01,5.000000000000000000e+00,4.000000000000000000e+00,1.000000000000000000e+00,-4.000000000000000000e+00,-2.000000000000000000e+00,1.161499023437500000e-01,5.119628906250000000e-01,-2.401123046875000000e-01,8.165283203125000000e-01
