0.000000000000000000e+00,-3.000000000000000000e+00,-1.300000000000000000e+01,-2.300000000000000000e+01,-6.000000000000000000e+00,-4.000000000000000000e+00,-2.000000000000000000e+00,-3.000000000000000000e+00,-4.976806640625000000e-01,9.820556640625000000e-02,7.690429687500000000e-01,3.887939453125000000e-01
-3.000000000000000000e+00,-3.000000000000000000e+00,-9.000000000000000000e+00,-8.000000000000000000e+00,-5.000000000000000000e+00,0.000000000000000000e+00,-4.000000000000000000e+00,-1.000000000000000000e+00,-4.976806640625000000e-01,9.820556640625000000e-02,7.690429687500000000e-01,3.887939453125000000e-01
0.000000000000000000e+00,1.000000000000000000e+00,2.100000000000000000e+01,3.200000000000000000e+01,1.400000000000000000e+01,3.000000000000000000e+00,0.000000000000000000e+00,0.000000000000000000e+00,-4.980468750000000000e-01,9.826660156250000000e-02,7.690429687500000000e-01,3.883666992187500000e-01
0.000000000000000000e+00,3.000000000000000000e+00,-2.000000000000000000e+00,6.000000000000000000e+00,1.000000000000000000e+01,2.000000000000000000e+00,1.000000000000000000e+00,1.000000000000000000e+00,-4.980468750000000000e-01,9.826660156250000000e-02,7.690429687500000000e-01,3.883666992187500000e-01
-1.000000000000000000e+00,-2.000000000000000000e+00,2.000000000000000000e+00,-2.000000000000000000e+00,-4.000000000000000000e+00,-1.000000000000000000e+00,-3.000000000000000000e+00,-1.000000000000000000e+00,-4.980468750000000000e-01,9.826660156250000000e-02,7.690429687500000000e-01,3.883666992187500000e-01
1.000000000000000000e+00,0.000000000000000000e+00,1.400000000000000000e+01,6.000000000000000000e+00,-2.000000000000000000e+00,-1.000000000000000000e+00,2.000000000000000000e+00,-1.000000000000000000e+00,-4.980468750000000000e-01,9.826660156250000000e-02,7.690429687500000000e-01,3.883666992187500000e-01
0.000000000000000000e+00,-1.000000000000000000e+00,-9.000000000000000000e+00,-1.400000000000000000e+01,-1.200000000000000000e+01,-6.000000000000000000e+00,-2.000000000000000000e+00,-2.000000000000000000e+00,-4.977416992187500000e-01,9.838867187500000000e-02,7.691040039062500000e-01,3.885498046875000000e-01
-2.000000000000000000e+00,-4.000000000000000000e+00,-7.000000000000000000e+00,2.000000000000000000e+00,1.000000000000000000e+00,3.000000000000000000e+00,0.000000000000000000e+00,1.000000000000000000e+00,-4.977416992187500000e-01,9.838867187500000000e-02,7.691040039062500000e-01,3.885498046875000000e-01
-2.000000000000000000e+00,3.000000000000000000e+00,1.600000000000000000e+01,4.000000000000000000e+00,2.000000000000000000e+00,-2.000000000000000000e+00,-1.000000000000000000e+00,-2.000000000000000000e+00,-4.977416992187500000e-01,9.838867187500000000e-02,7.691040039062500000e-01,3.885498046875000000e-01
-2.000000000000000000e+00,-6.000000000000000000e+00,-3.000000000000000000e+00,-2.000000000000000000e+00,3.000000000000000000e+00,-2.000000000000000000e+00,-2.000000000000000000e+00,-2.000000000000000000e+00,-4.977416992187500000e-01,9.838867187500000000e-02,7.691040039062500000e-01,3.885498046875000000e-01
0.000000000000000000e+00,1.000000000000000000e+00,-1.000000000000000000e+00,5.000000000000000000e+00,-4.000000000000000000e+00,-3.000000000000000000e+00,-2.000000000000000000e+00,-2.000000000000000000e+00,-4.971313476562500000e-01,9.863281250000000000e-02,7.692260742187500000e-01,3.890380859375000000e-01
-1.000000000000000000e+00,-5.000000000000000000e+00,-1.300000000000000000e+01,-1.500000000000000000e+01,-9.000000000000000000e+00,-1.000000000000000000e+00,2.000000000000000000e+00,-2.000000000000000000e+00,-4.971313476562500000e-01,9.863281250000000000e-02,7.692260742187500000e-01,3.890380859375000000e-01
0.000000000000000000e+00,2.000000000000000000e+00,2.100000000000000000e+01,3.000000000000000000e+00,5.000000000000000000e+00,-3.000000000000000000e+00,-8.000000000000000000e+00,-1.000000000000000000e+00,-4.971313476562500000e-01,9.863281250000000000e-02,7.692260742187500000e-01,3.890380859375000000e-01
-1.000000000000000000e+00,0.000000000000000000e+00,-7.000000000000000000e+00,9.000000000000000000e+00,3.000000000000000000e+00,-4.000000000000000000e+00,0.000000000000000000e+00,-2.000000000000000000e+00,-4.971313476562500000e-01,9.863281250000000000e-02,7.692260742187500000e-01,3.890380859375000000e-01
-3.000000000000000000e+00,-5.000000000000000000e+00,-1.000000000000000000e+01,-1.600000000000000000e+01,-2.000000000000000000e+00,1.300000000000000000e+01,6.000000000000000000e+00,1.000000000000000000e+00,-4.965209960937500000e-01,9.942626953125000000e-02,7.691650390625000000e-01,3.897705078125000000e-01
-1.000000000000000000e+00,-2.000000000000000000e+00,-1.000000000000000000e+00,3.300000000000000000e+01,-2.000000000000000000e+00,-1.000000000000000000e+00,-1.000000000000000000e+00,-1.000000000000000000e+00,-4.965209960937500000e-01,9.942626953125000000e-02,7.691650390625000000e-01,3.897705078125000000e-01
-1.000000000000000000e+00,0.000000000000000000e+00,2.100000000000000000e+01,-2.100000000000000000e+01,-1.000000000000000000e+01,0.000000000000000000e+00,-3.000000000000000000e+00,0.000000000000000000e+00,-4.965209960937500000e-01,9.942626953125000000e-02,7.691650390625000000e-01,3.897705078125000000e-01
1.000000000000000000e+00,3.000000000000000000e+00,8.000000000000000000e+00,-6.000000000000000000e+00,-3.000000000000000000e+00,-5.000000000000000000e+00,1.000000000000000000e+00,0.000000000000000000e+00,-4.965209960937500000e-01,9.942626953125000000e-02,7.691650390625000000e-01,3.897705078125000000e-01
-1.000000000000000000e+00,-3.000000000000000000e+00,-2.300000000000000000e+01,1.500000000000000000e+01,6.000000000000000000e+00,-5.000000000000000000e+00,-6.000000000000000000e+00,-2.000000000000000000e+00,-4.960937500000000000e-01,1.005859375000000000e-01,7.689819335937500000e-01,3.903808593750000000e-01
0.000000000000000000e+00,2.000000000000000000e+00,-7.000000000000000000e+00,-5.000000000000000000e+01,-1.200000000000000000e+01,-6.000000000000000000e+00,-4.000000000000000000e+00,-3.000000000000000000e+00,-4.960937500000000000e-01,1.005859375000000000e-01,7.689819335937500000e-01,3.903808593750000000e-01
-4.000000000000000000e+00,-4.000000000000000000e+00,-1.700000000000000000e+01,3.200000000000000000e+01,7.000000000000000000e+00,2.000000000000000000e+00,2.000000000000000000e+00,0.000000000000000000e+00,-4.960937500000000000e-01,1.005859375000000000e-01,7.689819335937500000e-01,3.903808593750000000e-01
1.000000000000000000e+00,-1.000000000000000000e+00,1.100000000000000000e+01,-1.300000000000000000e+01,-3.000000000000000000e+00,0.000000000000000000e+00,-3.000000000000000000e+00,-2.000000000000000000e+00,-4.960937500000000000e-01,1.005859375000000000e-01,7.689819335937500000e-01,3.903808593750000000e-01
-2.000000000000000000e+00,0.000000000000000000e+00,-7.000000000000000000e+00,4.000000000000000000e+00,-7.000000000000000000e+00,-2.000000000000000000e+00,-1.000000000000000000e+00,-1.000000000000000000e+00,-4.958496093750000000e-01,1.017456054687500000e-01,7.687988281250000000e-01,3.906860351562500000e-01
-1.000000000000000000e+00,-2.000000000000000000e+00,-9.000000000000000000e+00,4.000000000000000000e+00,1.800000000000000000e+01,4.000000000000000000e+00,1.000000000000000000e+00,-1.000000000000000000e+00,-4.958496093750000000e-01,1.017456054687500000e-01,7.687988281250000000e-01,3.906860351562500000e-01
1.000000000000000000e+00,1.000000000000000000e+00,1.700000000000000000e+01,9.000000000000000000e+00,-2.000000000000000000e+00,-3.000000000000000000e+00,-1.000000000000000000e+00,0.000000000000000000e+00,-4.958496093750000000e-01,1.017456054687500000e-01,7.687988281250000000e-01,3.906860351562500000e-01
-1.000000000000000000e+00,-2.000000000000000000e+00,-1.100000000000000000e+01,-1.600000000000000000e+01,-1.000000000000000000e+00,1.000000000000000000e+00,0.000000000000000000e+00,0.000000000000000000e+00,-4.958496093750000000e-01,1.017456054687500000e-01,7.687988281250000000e-01,3.906860351562500000e-01
0.000000000000000000e+00,-1.000000000000000000e+00,1.100000000000000000e+01,7.000000000000000000e+00,-4.000000000000000000e+00,-3.000000000000000000e+00,-1.000000000000000000e+00,-1.000000000000000000e+00,-4.958496093750000000e-01,1.022949218750000000e-01,7.686767578125000000e-01,3.908081054687500000e-01
1.000000000000000000e+00,2.000000000000000000e+00,0.000000000000000000e+00,-1.200000000000000000e+01,-8.000000000000000000e+00,-2.000000000000000000e+00,1.000000000000000000e+00,0.000000000000000000e+00,-4.958496093750000000e-01,1.022949218750000000e-01,7.686767578125000000e-01,3.908081054687500000e-01
-3.000000000000000000e+00,-3.000000000000000000e+00,6.000000000000000000e+00,4.000000000000000000e+00,3.000000000000000000e+00,-1.000000000000000000e+00,-2.000000000000000000e+00,-2.000000000000000000e+00,-4.958496093750000000e-01,1.022949218750000000e-01,7.686767578125000000e-01,3.908081054687500000e-01
-1.000000000000000000e+00,0.000000000000000000e+00,-1.500000000000000000e+01,1.200000000000000000e+01,2.000000000000000000e+00,1.000000000000000000e+00,4.000000000000000000e+00,-1.000000000000000000e+00,-4.958496093750000000e-01,1.022949218750000000e-01,7.686767578125000000e-01,3.908081054687500000e-01
-3.000000000000000000e+00,-3.000000000000000000e+00,1.700000000000000000e+01,-7.000000000000000000e+00,0.000000000000000000e+00,-2.000000000000000000e+00,0.000000000000000000e+00,0.000000000000000000e+00,-4.962768554687500000e-01,1.022338867187500000e-01,7.684936523437500000e-01,3.907470703125000000e-01
0.000000000000000000e+00,1.000000000000000000e+00,2.000000000000000000e+00,-1.100000000000000000e+01,-6.000000000000000000e+00,-1.000000000000000000e+00,-2.000000000000000000e+00,-2.000000000000000000e+00,-4.962768554687500000e-01,1.022338867187500000e-01,7.684936523437500000e-01,3.907470703125000000e-01
-1.000000000000000000e+00,0.000000000000000000e+00,5.000000000000000000e+00,-2.000000000000000000e+00,0.000000000000000000e+00,0.000000000000000000e+00,-1.000000000000000000e+00,-3.000000000000000000e+00,-4.962768554687500000e-01,1.022338867187500000e-01,7.684936523437500000e-01,3.907470703125000000e-01
-3.000000000000000000e+00,-4.000000000000000000e+00,-3.000000000000000000e+00,-1.000000000000000000e+00,1.000000000000000000e+00,0.000000000000000000e+00,-1.000000000000000000e+00,0.000000000000000000e+00,-4.962768554687500000e-01,1.022338867187500000e-01,7.684936523437500000e-01,3.907470703125000000e-01
2.000000000000000000e+00,2.000000000000000000e+00,-5.000000000000000000e+00,-1.000000000000000000e+00,-3.000000000000000000e+00,-3.000000000000000000e+00,-2.000000000000000000e+00,-1.000000000000000000e+00,-4.969482421875000000e-01,1.023559570312500000e-01,7.680664062500000000e-01,3.906250000000000000e-01
-1.000000000000000000e+00,-1.000000000000000000e+00,5.000000000000000000e+00,-1.700000000000000000e+01,-8.000000000000000000e+00,-2.000000000000000000e+00,0.000000000000000000e+00,-1.000000000000000000e+00,-4.969482421875000000e-01,1.023559570312500000e-01,7.680664062500000000e-01,3.906250000000000000e-01
2.000000000000000000e+00,0.000000000000000000e+00,4.000000000000000000e+00,1.700000000000000000e+01,9.000000000000000000e+00,4.000000000000000000e+00,4.000000000000000000e+00,0.000000000000000000e+00,-4.969482421875000000e-01,1.023559570312500000e-01,7.680664062500000000e-01,3.906250000000000000e-01
-1.000000000000000000e+00,-5.000000000000000000e+00,-2.600000000000000000e+01,-1.800000000000000000e+01,-1.200000000000000000e+01,-6.000000000000000000e+00,-7.000000000000000000e+00,-2.000000000000000000e+00,-4.969482421875000000e-01,1.023559570312500000e-01,7.680664062500000000e-01,3.906250000000000000e-01
0.000000000000000000e+00,1.000000000000000000e+00,9.000000000000000000e+00,1.100000000000000000e+01,9.000000000000000000e+00,-1.000000000000000000e+00,2.000000000000000000e+00,1.000000000000000000e+00,-4.976806640625000000e-01,1.028442382812500000e-01,7.674560546875000000e-01,3.907470703125000000e-01
-1.000000000000000000e+00,-2.000000000000000000e+00,0.000000000000000000e+00,2.100000000000000000e+01,3.000000000000000000e+00,1.000000000000000000e+00,0.000000000000000000e+00,0.000000000000000000e+00,-4.976806640625000000e-01,1.028442382812500000e-01,7.674560546875000000e-01,3.907470703125000000e-01
-1.000000000000000000e+00,-1.000000000000000000e+00,7.000000000000000000e+00,-9.000000000000000000e+00,-1.500000000000000000e+01,-3.000000000000000000e+00,1.000000000000000000e+00,-2.000000000000000000e+00,-4.976806640625000000e-01,1.028442382812500000e-01,7.674560546875000000e-01,3.907470703125000000e-01
-2.000000000000000000e+00,-1.000000000000000000e+00,-2.000000000000000000e+01,-1.800000000000000000e+01,1.300000000000000000e+01,3.000000000000000000e+00,1.000000000000000000e+00,0.000000000000000000e+00,-4.976806640625000000e-01,1.028442382812500000e-01,7.674560546875000000e-01,3.907470703125000000e-01
-2.000000000000000000e+00,0.000000000000000000e+00,1.700000000000000000e+01,-1.600000000000000000e+01,-4.000000000000000000e+00,-1.000000000000000000e+00,-5.000000000000000000e+00,-1.000000000000000000e+00,-4.982910156250000000e-01,1.034545898437500000e-01,7.667846679687500000e-01,3.910522460937500000e-01
-3.000000000000000000e+00,-6.000000000000000000e+00,-2.700000000000000000e+01,0.000000000000000000e+00,0.000000000000000000e+00,-1.000000000000000000e+00,-3.000000000000000000e+00,-1.000000000000000000e+00,-4.982910156250000000e-01,1.034545898437500000e-01,7.667846679687500000e-01,3.910522460937500000e-01
0.000000000000000000e+00,1.000000000000000000e+00,-1.000000000000000000e+00,1.600000000000000000e+01,-1.100000000000000000e+01,-2.000000000000000000e+00,0.000000000000000000e+00,0.000000000000000000e+00,-4.982910156250000000e-01,1.034545898437500000e-01,7.667846679687500000e-01,3.910522460937500000e-01
-2.000000000000000000e+00,-1.000000000000000000e+00,1.200000000000000000e+01,-2.600000000000000000e+01,-9.000000000000000000e+00,-1.000000000000000000e+00,2.000000000000000000e+00,-1.000000000000000000e+00,-4.982910156250000000e-01,1.034545898437500000e-01,7.667846679687500000e-01,3.910522460937500000e-01
-1.000000000000000000e+00,2.000000000000000000e+00,8.000000000000000000e+00,1.000000000000000000e+00,8.000000000000000000e+00,0.000000000000000000e+00,-1.000000000000000000e+00,-1.000000000000000000e+00,-4.985961914062500000e-01,1.038208007812500000e-01,7.662353515625000000e-01,3.917236328125000000e-01
-1.000000000000000000e+00,0.000000000000000000e+00,-2.000000000000000000e+00,0.000000000000000000e+00,-8.000000000000000000e+00,-5.000000000000000000e+00,-2.000000000000000000e+00,-2.000000000000000000e+00,-4.985961914062500000e-01,1.038208007812500000e-01,7.662353515625000000e-01,3.917236328125000000e-01
0.000000000000000000e+00,0.000000000000000000e+00,-1.000000000000000000e+00,6.000000000000000000e+00,3.000000000000000000e+00,0.000000000000000000e+00,-2.000000000000000000e+00,-1.000000000000000000e+00,-4.985961914062500000e-01,1.038208007812500000e-01,7.662353515625000000e-01,3.917236328125000000e-01
0.000000000000000000e+00,1.000000000000000000e+00,-1.100000000000000000e+01,1.700000000000000000e+01,7.000000000000000000e+00,1.000000000000000000e+00,-2.000000000000000000e+00,0.000000000000000000e+00,-4.985961914062500000e-01,1.038208007812500000e-01,7.662353515625000000e-01,3.917236328125000000e-01
-1.000000000000000000e+00,-1.000000000000000000e+00,1.000000000000000000e+00,-1.000000000000000000e+01,-3.000000000000000000e+00,-4.000000000000000000e+00,-2.000000000000000000e+00,-1.000000000000000000e+00,-4.981689453125000000e-01,1.046752929687500000e-01,7.658691406250000000e-01,3.927612304687500000e-01
-1.000000000000000000e+00,1.000000000000000000e+00,5.000000000000000000e+00,2.100000000000000000e+01,2.000000000000000000e+00,1.000000000000000000e+00,0.000000000000000000e+00,-1.000000000000000000e+00,-4.981689453125000000e-01,1.046752929687500000e-01,7.658691406250000000e-01,3.927612304687500000e-01
-2.000000000000000000e+00,-4.000000000000000000e+00,-1.600000000000000000e+01,-2.800000000000000000e+01,2.000000000000000000e+00,0.000000000000000000e+00,1.000000000000000000e+00,-1.000000000000000000e+00,-4.981689453125000000e-01,1.046752929687500000e-01,7.658691406250000000e-01,3.927612304687500000e-01
0.000000000000000000e+00,2.000000000000000000e+00,1.500000000000000000e+01,5.000000000000000000e+00,-6.000000000000000000e+00,-3.000000000000000000e+00,-1.000000000000000000e+00,-1.000000000000000000e+00,-4.981689453125000000e-01,1.046752929687500000e-01,7.658691406250000000e-01,3.927612304687500000e-01
-1.000000000000000000e+00,1.000000000000000000e+00,-1.100000000000000000e+01,-2.100000000000000000e+01,-1.100000000000000000e+01,-2.000000000000000000e+00,-6.000000000000000000e+00,-1.000000000000000000e+00,-4.970703125000000000e-01,1.060791015625000000e-01,7.657470703125000000e-01,3.939819335937500000e-01
0.000000000000000000e+00,-2.000000000000000000e+00,4.000000000000000000e+00,3.100000000000000000e+01,8.000000000000000000e+00,5.000000000000000000e+00,3.000000000000000000e+00,1.000000000000000000e+00,-4.970703125000000000e-01,1.060791015625000000e-01,7.657470703125000000e-01,3.939819335937500000e-01
0.000000000000000000e+00,-1.000000000000000000e+00,-5.000000000000000000e+00,-2.000000000000000000e+01,-1.000000000000000000e+00,1.000000000000000000e+00,1.000000000000000000e+00,0.000000000000000000e+00,-4.970703125000000000e-01,1.060791015625000000e-01,7.657470703125000000e-01,3.939819335937500000e-01
-2.000000000000000000e+00,-3.000000000000000000e+00,2.000000000000000000e+00,8.000000000000000000e+00,-4.000000000000000000e+00,-2.000000000000000000e+00,-2.000000000000000000e+00,-2.000000000000000000e+00,-4.970703125000000000e-01,1.060791015625000000e-01,7.657470703125000000e-01,3.939819335937500000e-01
-1.000000000000000000e+00,-5.000000000000000000e+00,-1.900000000000000000e+01,-4.000000000000000000e+00,4.000000000000000000e+00,-4.000000000000000000e+00,-1.000000000000000000e+00,-1.000000000000000000e+00,-4.956054687500000000e-01,1.074218750000000000e-01,7.660522460937500000e-01,3.948974609375000000e-01
-2.000000000000000000e+00,-1.000000000000000000e+00,1.000000000000000000e+00,-1.100000000000000000e+01,-1.100000000000000000e+01,-6.000000000000000000e+00,-4.000000000000000000e+00,-3.000000000000000000e+00,-4.956054687500000000e-01,1.074218750000000000e-01,7.660522460937500000e-01,3.948974609375000000e-01
-2.000000000000000000e+00,1.000000000000000000e+00,-3.000000000000000000e+00,1.200000000000000000e+01,-9.000000000000000000e+00,0.000000000000000000e+00,1.000000000000000000e+00,1.000000000000000000e+00,-4.956054687500000000e-01,1.074218750000000000e-01,7.660522460937500000e-01,3.948974609375000000e-01
0.000000000000000000e+00,3.000000000000000000e+00,3.600000000000000000e+01,1.000000000000000000e+01,1.500000000000000000e+01,4.000000000000000000e+00,2.000000000000000000e+00,2.000000000000000000e+00,-4.956054687500000000e-01,1.074218750000000000e-01,7.660522460937500000e-01,3.948974609375000000e-01
-3.000000000000000000e+00,-7.000000000000000000e+00,-3.500000000000000000e+01,-1.100000000000000000e+01,-7.000000000000000000e+00,-4.000000000000000000e+00,-2.000000000000000000e+00,-2.000000000000000000e+00,-4.939575195312500000e-01,1.079101562500000000e-01,7.666625976562500000e-01,3.955688476562500000e-01
0.000000000000000000e+00,-5.000000000000000000e+00,0.000000000000000000e+00,1.000000000000000000e+00,8.000000000000000000e+00,-1.000000000000000000e+00,-2.000000000000000000e+00,-2.000000000000000000e+00,-4.939575195312500000e-01,1.079101562500000000e-01,7.666625976562500000e-01,3.955688476562500000e-01
0.000000000000000000e+00,2.000000000000000000e+00,-1.700000000000000000e+01,-1.500000000000000000e+01,8.000000000000000000e+00,2.000000000000000000e+00,1.000000000000000000e+00,1.000000000000000000e+00,-4.939575195312500000e-01,1.079101562500000000e-01,7.666625976562500000e-01,3.955688476562500000e-01
-1.000000000000000000e+00,0.000000000000000000e+00,4.000000000000000000e+00,9.000000000000000000e+00,-6.000000000000000000e+00,-2.000000000000000000e+00,-1.000000000000000000e+00,-3.000000000000000000e+00,-4.939575195312500000e-01,1.079101562500000000e-01,7.666625976562500000e-01,3.955688476562500000e-01
0.000000000000000000e+00,3.000000000000000000e+00,1.400000000000000000e+01,1.500000000000000000e+01,-3.000000000000000000e+00,-1.000000000000000000e+00,-2.000000000000000000e+00,0.000000000000000000e+00,-4.923706054687500000e-01,1.082763671875000000e-01,7.673950195312500000e-01,3.961181640625000000e-01
0.000000000000000000e+00,-5.000000000000000000e+00,-4.200000000000000000e+01,-2.800000000000000000e+01,-2.000000000000000000e+00,-1.000000000000000000e+00,-1.000000000000000000e+00,0.000000000000000000e+00,-4.923706054687500000e-01,1.082763671875000000e-01,7.673950195312500000e-01,3.961181640625000000e-01
1.000000000000000000e+00,3.000000000000000000e+00,1.100000000000000000e+01,6.000000000000000000e+00,-2.000000000000000000e+00,-3.000000000000000000e+00,-2.000000000000000000e+00,0.000000000000000000e+00,-4.923706054687500000e-01,1.082763671875000000e-01,7.673950195312500000e-01,3.961181640625000000e-01
-2.000000000000000000e+00,-3.000000000000000000e+00,8.000000000000000000e+00,2.000000000000000000e+00,7.000000000000000000e+00,1.000000000000000000e+00,0.000000000000000000e+00,-1.000000000000000000e+00,-4.923706054687500000e-01,1.082763671875000000e-01,7.673950195312500000e-01,3.961181640625000000e-01
0.000000000000000000e+00,-3.000000000000000000e+00,-1.500000000000000000e+01,-4.000000000000000000e+00,-3.000000000000000000e+00,-1.000000000000000000e+00,-4.000000000000000000e+00,-2.000000000000000000e+00,-4.915161132812500000e-01,1.084594726562500000e-01,7.678833007812500000e-01,3.961791992187500000e-01
1.000000000000000000e+00,4.000000000000000000e+00,1.800000000000000000e+01,1.400000000000000000e+01,-3.000000000000000000e+00,2.000000000000000000e+00,9.000000000000000000e+00,0.000000000000000000e+00,-4.915161132812500000e-01,1.084594726562500000e-01,7.678833007812500000e-01,3.961791992187500000e-01
-1.000000000000000000e+00,-2.000000000000000000e+00,0.000000000000000000e+00,9.000000000000000000e+00,4.000000000000000000e+00,1.000000000000000000e+00,-3.000000000000000000e+00,-1.000000000000000000e+00,-4.915161132812500000e-01,1.084594726562500000e-01,7.678833007812500000e-01,3.961791992187500000e-01
-1.000000000000000000e+00,-1.000000000000000000e+00,-1.200000000000000000e+01,-5.000000000000000000e+00,-2.000000000000000000e+00,0.000000000000000000e+00,2.000000000000000000e+00,-1.000000000000000000e+00,-4.915161132812500000e-01,1.084594726562500000e-01,7.678833007812500000e-01,3.961791992187500000e-01
0.000000000000000000e+00,1.000000000000000000e+00,1.600000000000000000e+01,-4.000000000000000000e+00,-2.000000000000000000e+00,0.000000000000000000e+00,-1.000000000000000000e+00,-1.000000000000000000e+00,-4.907836914062500000e-01,1.089477539062500000e-01,7.682495117187500000e-01,3.962402343750000000e-01
0.000000000000000000e+00,2.000000000000000000e+00,1.000000000000000000e+01,1.000000000000000000e+01,0.000000000000000000e+00,-4.000000000000000000e+00,-3.000000000000000000e+00,0.000000000000000000e+00,-4.907836914062500000e-01,1.089477539062500000e-01,7.682495117187500000e-01,3.962402343750000000e-01
-1.000000000000000000e+00,-5.000000000000000000e+00,-2.000000000000000000e+01,-1.200000000000000000e+01,-4.000000000000000000e+00,-2.000000000000000000e+00,-3.000000000000000000e+00,-2.000000000000000000e+00,-4.907836914062500000e-01,1.089477539062500000e-01,7.682495117187500000e-01,3.962402343750000000e-01
0.000000000000000000e+00,0.000000000000000000e+00,0.000000000000000000e+00,8.000000000000000000e+00,0.000000000000000000e+00,1.000000000000000000e+00,-2.000000000000000000e+00,-2.000000000000000000e+00,-4.907836914062500000e-01,1.089477539062500000e-01,7.682495117187500000e-01,3.962402343750000000e-01
-2.000000000000000000e+00,-4.000000000000000000e+00,-8.000000000000000000e+00,-1.200000000000000000e+01,-4.000000000000000000e+00,-3.000000000000000000e+00,-1.000000000000000000e+00,-2.000000000000000000e+00,-4.902343750000000000e-01,1.095581054687500000e-01,7.684326171875000000e-01,3.963623046875000000e-01
-2.000000000000000000e+00,2.000000000000000000e+00,2.700000000000000000e+01,1.600000000000000000e+01,1.000000000000000000e+00,-2.000000000000000000e+00,-3.000000000000000000e+00,-1.000000000000000000e+00,-4.902343750000000000e-01,1.095581054687500000e-01,7.684326171875000000e-01,3.963623046875000000e-01
-2.000000000000000000e+00,-3.000000000000000000e+00,-2.800000000000000000e+01,-2.600000000000000000e+01,-4.000000000000000000e+00,-3.000000000000000000e+00,1.000000000000000000e+00,-1.000000000000000000e+00,-4.902343750000000000e-01,1.095581054687500000e-01,7.684326171875000000e-01,3.963623046875000000e-01
-1.000000000000000000e+00,-2.000000000000000000e+00,-3.000000000000000000e+00,2.000000000000000000e+01,-7.000000000000000000e+00,1.000000000000000000e+00,-2.000000000000000000e+00,0.000000000000000000e+00,-4.902343750000000000e-01,1.095581054687500000e-01,7.684326171875000000e-01,3.963623046875000000e-01
2.000000000000000000e+00,4.000000000000000000e+00,1.100000000000000000e+01,-2.100000000000000000e+01,8.000000000000000000e+00,2.000000000000000000e+00,3.000000000000000000e+00,-1.000000000000000000e+00,-4.902343750000000000e-01,1.095581054687500000e-01,7.684936523437500000e-01,3.962402343750000000e-01
-2.000000000000000000e+00,-3.000000000000000000e+00,-1.100000000000000000e+01,-8.000000000000000000e+00,-8.000000000000000000e+00,-3.000000000000000000e+00,-2.000000000000000000e+00,-2.000000000000000000e+00,-4.902343750000000000e-01,1.095581054687500000e-01,7.684936523437500000e-01,3.962402343750000000e-01
-1.000000000000000000e+00,-3.000000000000000000e+00,1.400000000000000000e+01,1.400000000000000000e+01,6.000000000000000000e+00,0.000000000000000000e+00,-2.000000000000000000e+00,-1.000000000000000000e+00,-4.902343750000000000e-01,1.095581054687500000e-01,7.684936523437500000e-01,3.962402343750000000e-01
-2.000000000000000000e+00,-4.000000000000000000e+00,0.000000000000000000e+00,-5.000000000000000000e+00,-2.000000000000000000e+00,-4.000000000000000000e+00,-2.000000000000000000e+00,0.000000000000000000e+00,-4.902343750000000000e-01,1.095581054687500000e-01,7.684936523437500000e-01,3.962402343750000000e-01
-3.000000000000000000e+00,-5.000000000000000000e+00,-3.000000000000000000e+00,5.600000000000000000e+01,1.000000000000000000e+00,3.000000000000000000e+00,8.000000000000000000e+00,1.000000000000000000e+00,-4.906005859375000000e-01,1.093750000000000000e-01,7.684326171875000000e-01,3.959960937500000000e-01
1.000000000000000000e+00,0.000000000000000000e+00,-7.000000000000000000e+00,-6.600000000000000000e+01,-8.000000000000000000e+00,-3.000000000000000000e+00,-2.000000000000000000e+00,-1.000000000000000000e+00,-4.906005859375000000e-01,1.093750000000000000e-01,7.684326171875000000e-01,3.959960937500000000e-01
-1.000000000000000000e+00,0.000000000000000000e+00,-7.000000000000000000e+00,-3.000000000000000000e+00,-4.000000000000000000e+00,-3.000000000000000000e+00,-2.000000000000000000e+00,-3.000000000000000000e+00,-4.906005859375000000e-01,1.093750000000000000e-01,7.684326171875000000e-01,3.959960937500000000e-01
-1.000000000000000000e+00,-2.000000000000000000e+00,-2.000000000000000000e+00,-9.000000000000000000e+00,-2.000000000000000000e+00,-1.000000000000000000e+00,2.000000000000000000e+00,0.000000000000000000e+00,-4.906005859375000000e-01,1.093750000000000000e-01,7.684326171875000000e-01,3.959960937500000000e-01
-1.000000000000000000e+00,-1.000000000000000000e+00,-1.000000000000000000e+01,4.000000000000000000e+00,-1.000000000000000000e+00,-1.000000000000000000e+00,-2.000000000000000000e+00,0.000000000000000000e+00,-4.915161132812500000e-01,1.088867187500000000e-01,7.681274414062500000e-01,3.955688476562500000e-01
1.000000000000000000e+00,-1.000000000000000000e+00,7.000000000000000000e+00,2.100000000000000000e+01,5.000000000000000000e+00,-1.000000000000000000e+00,-2.000000000000000000e+00,-2.000000000000000000e+00,-4.915161132812500000e-01,1.088867187500000000e-01,7.681274414062500000e-01,3.955688476562500000e-01
-3.000000000000000000e+00,-3.000000000000000000e+00,-1.000000000000000000e+00,-1.000000000000000000e+01,-5.000000000000000000e+00,-3.000000000000000000e+00,-3.000000000000000000e+00,-2.000000000000000000e+00,-4.915161132812500000e-01,1.088867187500000000e-01,7.681274414062500000e-01,3.955688476562500000e-01
0.000000000000000000e+00,1.000000000000000000e+00,-1.000000000000000000e+00,-3.000000000000000000e+00,-1.000000000000000000e+00,-3.000000000000000000e+00,-1.000000000000000000e+00,0.000000000000000000e+00,-4.915161132812500000e-01,1.088867187500000000e-01,7.681274414062500000e-01,3.955688476562500000e-01
0.000000000000000000e+00,2.000000000000000000e+00,1.200000000000000000e+01,-1.200000000000000000e+01,-4.000000000000000000e+00,-1.000000000000000000e+00,-4.000000000000000000e+00,0.000000000000000000e+00,-4.920654296875000000e-01,1.089477539062500000e-01,7.678833007812500000e-01,3.954467773437500000e-01
1.000000000000000000e+00,0.000000000000000000e+00,-2.000000000000000000e+00,9.000000000000000000e+00,2.000000000000000000e+00,0.000000000000000000e+00,0.000000000000000000e+00,0.000000000000000000e+00,-4.920654296875000000e-01,1.089477539062500000e-01,7.678833007812500000e-01,3.954467773437500000e-01
0.000000000000000000e+00,-3.000000000000000000e+00,-2.000000000000000000e+00,-5.000000000000000000e+00,0.000000000000000000e+00,2.000000000000000000e+00,2.000000000000000000e+00,-1.000000000000000000e+00,-4.920654296875000000e-01,1.089477539062500000e-01,7.678833007812500000e-01,3.954467773437500000e-01
0.000000000000000000e+00,-1.000000000000000000e+00,-2.000000000000000000e+00,2.000000000000000000e+01,5.000000000000000000e+00,0.000000000000000000e+00,-2.000000000000000000e+00,0.000000000000000000e+00,-4.920654296875000000e-01,1.089477539062500000e-01,7.678833007812500000e-01,3.954467773437500000e-01
1.000000000000000000e+00,1.000000000000000000e+00,9.000000000000000000e+00,-1.500000000000000000e+01,-4.000000000000000000e+00,1.000000000000000000e+00,-2.000000000000000000e+00,-1.000000000000000000e+00,-4.923706054687500000e-01,1.090698242187500000e-01,7.676391601562500000e-01,3.953857421875000000e-01
0.000000000000000000e+00,-2.000000000000000000e+00,-3.000000000000000000e+00,-4.000000000000000000e+00,-2.000000000000000000e+00,-5.000000000000000000e+00,-1.000000000000000000e+00,-2.000000000000000000e+00,-4.923706054687500000e-01,1.090698242187500000e-01,7.676391601562500000e-01,3.953857421875000000e-01
0.000000000000000000e+00,4.000000000000000000e+00,1.400000000000000000e+01,1.600000000000000000e+01,2.000000000000000000e+00,-1.000000000000000000e+00,0.000000000000000000e+00,-1.000000000000000000e+00,-4.923706054687500000e-01,1.090698242187500000e-01,7.676391601562500000e-01,3.953857421875000000e-01
-1.000000000000000000e+00,0.000000000000000000e+00,-1.000000000000000000e+01,-1.000000000000000000e+01,2.000000000000000000e+00,4.000000000000000000e+00,1.000000000000000000e+00,-1.000000000000000000e+00,-4.923706054687500000e-01,1.090698242187500000e-01,7.676391601562500000e-01,3.953857421875000000e-01
-2.000000000000000000e+00,-1.000000000000000000e+00,1.000000000000000000e+00,-3.000000000000000000e+00,-7.000000000000000000e+00,-3.000000000000000000e+00,-2.000000000000000000e+00,-2.000000000000000000e+00,-4.926757812500000000e-01,1.092529296875000000e-01,7.675170898437500000e-01,3.952636718750000000e-01
0.000000000000000000e+00,0.000000000000000000e+00,5.000000000000000000e+00,1.000000000000000000e+01,7.000000000000000000e+00,2.000000000000000000e+00,-2.000000000000000000e+00,-1.000000000000000000e+00,-4.926757812500000000e-01,1.092529296875000000e-01,7.675170898437500000e-01,3.952636718750000000e-01
0.000000000000000000e+00,4.000000000000000000e+00,2.500000000000000000e+01,9.000000000000000000e+00,8.000000000000000000e+00,-3.000000000000000000e+00,-3.000000000000000000e+00,1.000000000000000000e+00,-4.926757812500000000e-01,1.092529296875000000e-01,7.675170898437500000e-01,3.952636718750000000e-01
-1.000000000000000000e+00,-4.000000000000000000e+00,-3.000000000000000000e+01,-2.400000000000000000e+01,-1.000000000000000000e+01,-3.000000000000000000e+00,0.000000000000000000e+00,-1.000000000000000000e+00,-4.926757812500000000e-01,1.092529296875000000e-01,7.675170898437500000e-01,3.952636718750000000e-01
0.000000000000000000e+00,-1.000000000000000000e+00,3.000000000000000000e+00,3.000000000000000000e+00,1.100000000000000000e+01,1.000000000000000000e+00,2.000000000000000000e+00,-1.000000000000000000e+00,-4.931640625000000000e-01,1.094360351562500000e-01,7.672119140625000000e-01,3.951416015625000000e-01
0.000000000000000000e+00,2.000000000000000000e+00,1.000000000000000000e+00,7.000000000000000000e+00,-3.000000000000000000e+00,1.000000000000000000e+00,1.000000000000000000e+00,0.000000000000000000e+00,-4.931640625000000000e-01,1.094360351562500000e-01,7.672119140625000000e-01,3.951416015625000000e-01
0.000000000000000000e+00,0.000000000000000000e+00,1.100000000000000000e+01,1.000000000000000000e+01,1.000000000000000000e+00,1.000000000000000000e+00,-1.000000000000000000e+00,0.000000000000000000e+00,-4.931640625000000000e-01,1.094360351562500000e-01,7.672119140625000000e-01,3.951416015625000000e-01
0.000000000000000000e+00,1.000000000000000000e+00,2.100000000000000000e+01,8.000000000000000000e+00,3.000000000000000000e+00,-1.000000000000000000e+00,-2.000000000000000000e+00,-1.000000000000000000e+00,-4.931640625000000000e-01,1.094360351562500000e-01,7.672119140625000000e-01,3.951416015625000000e-01
-4.000000000000000000e+00,-6.000000000000000000e+00,-2.700000000000000000e+01,-5.000000000000000000e+00,-1.000000000000000000e+01,-5.000000000000000000e+00,-3.000000000000000000e+00,-2.000000000000000000e+00,-4.934692382812500000e-01,1.098632812500000000e-01,7.669067382812500000e-01,3.952636718750000000e-01
-2.000000000000000000e+00,-2.000000000000000000e+00,-1.400000000000000000e+01,-2.000000000000000000e+00,-4.000000000000000000e+00,-3.000000000000000000e+00,-3.000000000000000000e+00,1.000000000000000000e+00,-4.934692382812500000e-01,1.098632812500000000e-01,7.669067382812500000e-01,3.952636718750000000e-01
-1.000000000000000000e+00,-3.000000000000000000e+00,-9.000000000000000000e+00,-9.000000000000000000e+00,-1.000000000000000000e+00,-1.000000000000000000e+00,2.000000000000000000e+00,0.000000000000000000e+00,-4.934692382812500000e-01,1.098632812500000000e-01,7.669067382812500000e-01,3.952636718750000000e-01
-1.000000000000000000e+00,1.000000000000000000e+00,4.000000000000000000e+00,-9.000000000000000000e+00,-6.000000000000000000e+00,-1.000000000000000000e+00,-1.000000000000000000e+00,-1.000000000000000000e+00,-4.934692382812500000e-01,1.098632812500000000e-01,7.669067382812500000e-01,3.952636718750000000e-01
0.000000000000000000e+00,2.000000000000000000e+00,1.000000000000000000e+01,1.200000000000000000e+01,4.000000000000000000e+00,1.000000000000000000e+00,2.000000000000000000e+00,0.000000000000000000e+00,-4.938354492187500000e-01,1.102905273437500000e-01,7.666015625000000000e-01,3.953247070312500000e-01
-2.000000000000000000e+00,-1.000000000000000000e+00,2.000000000000000000e+00,-4.000000000000000000e+00,-1.000000000000000000e+00,0.000000000000000000e+00,-3.000000000000000000e+00,0.000000000000000000e+00,-4.938354492187500000e-01,1.102905273437500000e-01,7.666015625000000000e-01,3.953247070312500000e-01
0.000000000000000000e+00,0.000000000000000000e+00,2.000000000000000000e+00,-5.000000000000000000e+00,1.000000000000000000e+00,1.000000000000000000e+00,2.000000000000000000e+00,-2.000000000000000000e+00,-4.938354492187500000e-01,1.102905273437500000e-01,7.666015625000000000e-01,3.953247070312500000e-01
-1.000000000000000000e+00,-1.000000000000000000e+00,0.000000000000000000e+00,7.000000000000000000e+00,1.000000000000000000e+00,0.000000000000000000e+00,-2.000000000000000000e+00,1.000000000000000000e+00,-4.938354492187500000e-01,1.102905273437500000e-01,7.666015625000000000e-01,3.953247070312500000e-01
0.000000000000000000e+00,-1.000000000000000000e+00,1.000000000000000000e+00,-1.100000000000000000e+01,-3.000000000000000000e+00,-1.000000000000000000e+00,-2.000000000000000000e+00,-2.000000000000000000e+00,-4.939575195312500000e-01,1.108398437500000000e-01,7.664184570312500000e-01,3.953857421875000000e-01
-1.000000000000000000e+00,-2.000000000000000000e+00,-5.000000000000000000e+00,1.000000000000000000e+00,3.000000000000000000e+00,-3.000000000000000000e+00,-2.000000000000000000e+00,-1.000000000000000000e+00,-4.939575195312500000e-01,1.108398437500000000e-01,7.664184570312500000e-01,3.953857421875000000e-01
-1.000000000000000000e+00,-1.000000000000000000e+00,-2.000000000000000000e+00,2.000000000000000000e+00,-7.000000000000000000e+00,0.000000000000000000e+00,-1.000000000000000000e+00,-1.000000000000000000e+00,-4.939575195312500000e-01,1.108398437500000000e-01,7.664184570312500000e-01,3.953857421875000000e-01
-2.000000000000000000e+00,1.000000000000000000e+00,2.000000000000000000e+01,3.000000000000000000e+00,-6.000000000000000000e+00,-3.000000000000000000e+00,2.000000000000000000e+00,-4.000000000000000000e+00,-4.939575195312500000e-01,1.108398437500000000e-01,7.664184570312500000e-01,3.953857421875000000e-01
1.000000000000000000e+00,0.000000000000000000e+00,-2.000000000000000000e+01,-5.000000000000000000e+00,5.000000000000000000e+00,0.000000000000000000e+00,-3.000000000000000000e+00,-1.000000000000000000e+00,-4.939575195312500000e-01,1.110229492187500000e-01,7.664184570312500000e-01,3.952026367187500000e-01
-1.000000000000000000e+00,-3.000000000000000000e+00,-6.000000000000000000e+00,-6.000000000000000000e+00,-4.000000000000000000e+00,1.000000000000000000e+00,-1.000000000000000000e+00,-1.000000000000000000e+00,-4.939575195312500000e-01,1.110229492187500000e-01,7.664184570312500000e-01,3.952026367187500000e-01
-2.000000000000000000e+00,-2.000000000000000000e+00,1.000000000000000000e+00,2.000000000000000000e+00,-4.000000000000000000e+00,-2.000000000000000000e+00,-1.000000000000000000e+00,-1.000000000000000000e+00,-4.939575195312500000e-01,1.110229492187500000e-01,7.664184570312500000e-01,3.952026367187500000e-01
-3.000000000000000000e+00,-4.000000000000000000e+00,-6.000000000000000000e+00,1.800000000000000000e+01,1.000000000000000000e+00,-2.000000000000000000e+00,-6.000000000000000000e+00,-2.000000000000000000e+00,-4.939575195312500000e-01,1.110229492187500000e-01,7.664184570312500000e-01,3.952026367187500000e-01
1.000000000000000000e+00,4.000000000000000000e+00,1.300000000000000000e+01,-3.200000000000000000e+01,-5.000000000000000000e+00,1.000000000000000000e+00,2.000000000000000000e+00,0.000000000000000000e+00,-4.940185546875000000e-01,1.110839843750000000e-01,7.664184570312500000e-01,3.952026367187500000e-01
-2.000000000000000000e+00,-3.000000000000000000e+00,-1.400000000000000000e+01,-1.000000000000000000e+00,-1.000000000000000000e+00,-4.000000000000000000e+00,2.000000000000000000e+00,-3.000000000000000000e+00,-4.940185546875000000e-01,1.110839843750000000e-01,7.664184570312500000e-01,3.952026367187500000e-01
-2.000000000000000000e+00,-1.000000000000000000e+00,0.000000000000000000e+00,8.000000000000000000e+00,0.000000000000000000e+00,-1.000000000000000000e+00,-3.000000000000000000e+00,-2.000000000000000000e+00,-4.940185546875000000e-01,1.110839843750000000e-01,7.664184570312500000e-01,3.952026367187500000e-01
-4.000000000000000000e+00,-1.000000000000000000e+00,-1.200000000000000000e+01,-1.500000000000000000e+01,-1.000000000000000000e+00,-3.000000000000000000e+00,-1.000000000000000000e+00,-1.000000000000000000e+00,-4.940185546875000000e-01,1.110839843750000000e-01,7.664184570312500000e-01,3.952026367187500000e-01
0.000000000000000000e+00,-3.000000000000000000e+00,2.000000000000000000e+00,5.000000000000000000e+00,5.000000000000000000e+00,1.000000000000000000e+00,0.000000000000000000e+00,-2.000000000000000000e+00,-4.940185546875000000e-01,1.111450195312500000e-01,7.664184570312500000e-01,3.952026367187500000e-01
0.000000000000000000e+00,1.000000000000000000e+00,2.700000000000000000e+01,1.700000000000000000e+01,4.000000000000000000e+00,1.000000000000000000e+00,-2.000000000000000000e+00,0.000000000000000000e+00,-4.940185546875000000e-01,1.111450195312500000e-01,7.664184570312500000e-01,3.952026367187500000e-01
0.000000000000000000e+00,-3.000000000000000000e+00,-3.000000000000000000e+01,-1.400000000000000000e+01,-4.000000000000000000e+00,-3.000000000000000000e+00,-1.000000000000000000e+00,0.000000000000000000e+00,-4.940185546875000000e-01,1.111450195312500000e-01,7.664184570312500000e-01,3.952026367187500000e-01
0.000000000000000000e+00,-1.000000000000000000e+00,7.000000000000000000e+00,-1.200000000000000000e+01,1.000000000000000000e+00,0.000000000000000000e+00,1.000000000000000000e+00,1.000000000000000000e+00,-4.940185546875000000e-01,1.111450195312500000e-01,7.664184570312500000e-01,3.952026367187500000e-01
-1.000000000000000000e+00,-1.000000000000000000e+00,-1.000000000000000000e+01,-6.000000000000000000e+00,-2.000000000000000000e+00,-4.000000000000000000e+00,-3.000000000000000000e+00,-1.000000000000000000e+00,-4.938354492187500000e-01,1.116943359375000000e-01,7.662353515625000000e-01,3.956298828125000000e-01
1.000000000000000000e+00,1.000000000000000000e+00,7.000000000000000000e+00,1.000000000000000000e+01,3.000000000000000000e+00,1.000000000000000000e+00,0.000000000000000000e+00,-2.000000000000000000e+00,-4.938354492187500000e-01,1.116943359375000000e-01,7.662353515625000000e-01,3.956298828125000000e-01
-2.000000000000000000e+00,-2.000000000000000000e+00,0.000000000000000000e+00,1.400000000000000000e+01,3.000000000000000000e+00,0.000000000000000000e+00,-3.000000000000000000e+00,-2.000000000000000000e+00,-4.938354492187500000e-01,1.116943359375000000e-01,7.662353515625000000e-01,3.956298828125000000e-01
0.000000000000000000e+00,-2.000000000000000000e+00,4.000000000000000000e+00,-1.000000000000000000e+00,-2.000000000000000000e+00,2.000000000000000000e+00,1.000000000000000000e+00,-1.000000000000000000e+00,-4.938354492187500000e-01,1.116943359375000000e-01,7.662353515625000000e-01,3.956298828125000000e-01
-1.000000000000000000e+00,0.000000000000000000e+00,3.000000000000000000e+00,-1.700000000000000000e+01,-1.500000000000000000e+01,-5.000000000000000000e+00,-2.000000000000000000e+00,-1.000000000000000000e+00,-4.932861328125000000e-01,1.126708984375000000e-01,7.658691406250000000e-01,3.967285156250000000e-01
-2.000000000000000000e+00,-2.000000000000000000e+00,2.000000000000000000e+00,2.000000000000000000e+00,1.500000000000000000e+01,3.000000000000000000e+00,0.000000000000000000e+00,-1.000000000000000000e+00,-4.932861328125000000e-01,1.126708984375000000e-01,7.658691406250000000e-01,3.967285156250000000e-01
0.000000000000000000e+00,-1.000000000000000000e+00,-9.000000000000000000e+00,9.000000000000000000e+00,5.000000000000000000e+00,0.000000000000000000e+00,0.000000000000000000e+00,-2.000000000000000000e+00,-4.932861328125000000e-01,1.126708984375000000e-01,7.658691406250000000e-01,3.967285156250000000e-01
0.000000000000000000e+00,0.000000000000000000e+00,-1.500000000000000000e+01,-1.800000000000000000e+01,-3.000000000000000000e+00,-3.000000000000000000e+00,-2.000000000000000000e+00,0.000000000000000000e+00,-4.932861328125000000e-01,1.126708984375000000e-01,7.658691406250000000e-01,3.967285156250000000e-01
-2.000000000000000000e+00,-3.000000000000000000e+00,6.000000000000000000e+00,3.000000000000000000e+00,-2.000000000000000000e+00,0.000000000000000000e+00,1.000000000000000000e+00,-2.000000000000000000e+00,-4.923706054687500000e-01,1.141357421875000000e-01,7.656250000000000000e-01,3.978271484375000000e-01
0.000000000000000000e+00,0.000000000000000000e+00,0.000000000000000000e+00,4.100000000000000000e+01,0.000000000000000000e+00,0.000000000000000000e+00,-1.000000000000000000e+00,-1.000000000000000000e+00,-4.923706054687500000e-01,1.141357421875000000e-01,7.656250000000000000e-01,3.978271484375000000e-01
-1.000000000000000000e+00,0.000000000000000000e+00,3.300000000000000000e+01,-5.300000000000000000e+01,-1.400000000000000000e+01,-2.000000000000000000e+00,-1.000000000000000000e+00,1.000000000000000000e+00,-4.923706054687500000e-01,1.141357421875000000e-01,7.656250000000000000e-01,3.978271484375000000e-01
-1.000000000000000000e+00,-3.000000000000000000e+00,-4.400000000000000000e+01,-1.000000000000000000e+00,3.000000000000000000e+00,-1.000000000000000000e+00,0.000000000000000000e+00,-1.000000000000000000e+00,-4.923706054687500000e-01,1.141357421875000000e-01,7.656250000000000000e-01,3.978271484375000000e-01
-4.000000000000000000e+00,-3.000000000000000000e+00,0.000000000000000000e+00,-1.000000000000000000e+00,-1.000000000000000000e+00,-2.000000000000000000e+00,-2.000000000000000000e+00,-2.000000000000000000e+00,-4.916381835937500000e-01,1.148681640625000000e-01,7.657470703125000000e-01,3.983764648437500000e-01
-1.000000000000000000e+00,0.000000000000000000e+00,-4.000000000000000000e+00,-4.000000000000000000e+00,-1.000000000000000000e+01,-3.000000000000000000e+00,-3.000000000000000000e+00,0.000000000000000000e+00,-4.916381835937500000e-01,1.148681640625000000e-01,7.657470703125000000e-01,3.983764648437500000e-01
-2.000000000000000000e+00,-4.000000000000000000e+00,-2.000000000000000000e+00,1.800000000000000000e+01,6.000000000000000000e+00,-1.000000000000000000e+00,2.000000000000000000e+00,-1.000000000000000000e+00,-4.916381835937500000e-01,1.148681640625000000e-01,7.657470703125000000e-01,3.983764648437500000e-01
1.000000000000000000e+00,2.000000000000000000e+00,1.800000000000000000e+01,2.100000000000000000e+01,2.000000000000000000e+00,-2.000000000000000000e+00,-3.000000000000000000e+00,0.000000000000000000e+00,-4.916381835937500000e-01,1.148681640625000000e-01,7.657470703125000000e-01,3.983764648437500000e-01
0.000000000000000000e+00,0.000000000000000000e+00,-1.000000000000000000e+00,-9.000000000000000000e+00,0.000000000000000000e+00,1.000000000000000000e+00,2.000000000000000000e+00,0.000000000000000000e+00,-4.914550781250000000e-01,1.140136718750000000e-01,7.662353515625000000e-01,3.978881835937500000e-01
0.000000000000000000e+00,-2.000000000000000000e+00,-1.700000000000000000e+01,-1.200000000000000000e+01,-2.000000000000000000e+00,-3.000000000000000000e+00,-4.000000000000000000e+00,0.000000000000000000e+00,-4.914550781250000000e-01,1.140136718750000000e-01,7.662353515625000000e-01,3.978881835937500000e-01
-1.000000000000000000e+00,-1.000000000000000000e+00,6.000000000000000000e+00,5.000000000000000000e+00,-1.000000000000000000e+00,3.000000000000000000e+00,0.000000000000000000e+00,0.000000000000000000e+00,-4.914550781250000000e-01,1.140136718750000000e-01,7.662353515625000000e-01,3.978881835937500000e-01
1.000000000000000000e+00,-3.000000000000000000e+00,7.000000000000000000e+00,-4.000000000000000000e+00,-3.000000000000000000e+00,0.000000000000000000e+00,-3.000000000000000000e+00,-1.000000000000000000e+00,-4.914550781250000000e-01,1.140136718750000000e-01,7.662353515625000000e-01,3.978881835937500000e-01
-1.000000000000000000e+00,-3.000000000000000000e+00,-1.000000000000000000e+00,7.000000000000000000e+00,2.000000000000000000e+00,-2.000000000000000000e+00,-1.000000000000000000e+00,-2.000000000000000000e+00,-4.913940429687500000e-01,1.127319335937500000e-01,7.667846679687500000e-01,3.972167968750000000e-01
0.000000000000000000e+00,-1.000000000000000000e+00,6.000000000000000000e+00,-1.000000000000000000e+00,-1.000000000000000000e+00,-1.000000000000000000e+00,0.000000000000000000e+00,-1.000000000000000000e+00,-4.913940429687500000e-01,1.127319335937500000e-01,7.667846679687500000e-01,3.972167968750000000e-01
-2.000000000000000000e+00,-4.000000000000000000e+00,-2.500000000000000000e+01,-4.000000000000000000e+00,0.000000000000000000e+00,0.000000000000000000e+00,0.000000000000000000e+00,-1.000000000000000000e+00,-4.913940429687500000e-01,1.127319335937500000e-01,7.667846679687500000e-01,3.972167968750000000e-01
-1.000000000000000000e+00,0.000000000000000000e+00,8.000000000000000000e+00,-9.000000000000000000e+00,-2.000000000000000000e+00,-1.000000000000000000e+00,1.000000000000000000e+00,-2.000000000000000000e+00,-4.913940429687500000e-01,1.127319335937500000e-01,7.667846679687500000e-01,3.972167968750000000e-01
-1.000000000000000000e+00,-1.000000000000000000e+00,-1.300000000000000000e+01,-5.000000000000000000e+00,-8.000000000000000000e+00,-2.000000000000000000e+00,-4.000000000000000000e+00,-3.000000000000000000e+00,-4.916992187500000000e-01,1.113281250000000000e-01,7.670288085937500000e-01,3.968505859375000000e-01
-1.000000000000000000e+00,-4.000000000000000000e+00,-2.000000000000000000e+00,-6.000000000000000000e+00,0.000000000000000000e+00,-2.000000000000000000e+00,0.000000000000000000e+00,-2.000000000000000000e+00,-4.916992187500000000e-01,1.113281250000000000e-01,7.670288085937500000e-01,3.968505859375000000e-01
-1.000000000000000000e+00,-2.000000000000000000e+00,5.000000000000000000e+00,7.000000000000000000e+00,3.000000000000000000e+00,-2.000000000000000000e+00,1.000000000000000000e+00,0.000000000000000000e+00,-4.916992187500000000e-01,1.113281250000000000e-01,7.670288085937500000e-01,3.968505859375000000e-01
0.000000000000000000e+00,2.000000000000000000e+00,3.000000000000000000e+00,3.900000000000000000e+01,1.000000000000000000e+00,0.000000000000000000e+00,-1.000000000000000000e+00,-2.000000000000000000e+00,-4.916992187500000000e-01,1.113281250000000000e-01,7.670288085937500000e-01,3.968505859375000000e-01
-2.000000000000000000e+00,3.000000000000000000e+00,2.800000000000000000e+01,-2.000000000000000000e+01,3.000000000000000000e+00,-1.000000000000000000e+00,-2.000000000000000000e+00,0.000000000000000000e+00,-4.918823242187500000e-01,1.103515625000000000e-01,7.670288085937500000e-01,3.968505859375000000e-01
-3.000000000000000000e+00,-5.000000000000000000e+00,-2.300000000000000000e+01,-5.400000000000000000e+01,-1.500000000000000000e+01,-4.000000000000000000e+00,0.000000000000000000e+00,-4.000000000000000000e+00,-4.918823242187500000e-01,1.103515625000000000e-01,7.670288085937500000e-01,3.968505859375000000e-01
-1.000000000000000000e+00,2.000000000000000000e+00,7.000000000000000000e+00,1.400000000000000000e+01,0.000000000000000000e+00,-2.000000000000000000e+00,-5.000000000000000000e+00,0.000000000000000000e+00,-4.918823242187500000e-01,1.103515625000000000e-01,7.670288085937500000e-01,3.968505859375000000e-01
2.000000000000000000e+00,2.000000000000000000e+00,-1.700000000000000000e+01,-1.400000000000000000e+01,-3.000000000000000000e+00,-3.000000000000000000e+00,-1.000000000000000000e+00,0.000000000000000000e+00,-4.918823242187500000e-01,1.103515625000000000e-01,7.670288085937500000e-01,3.968505859375000000e-01
1.000000000000000000e+00,0.000000000000000000e+00,8.000000000000000000e+00,2.000000000000000000e+01,-1.000000000000000000e+00,0.000000000000000000e+00,-3.000000000000000000e+00,0.000000000000000000e+00,-4.919433593750000000e-01,1.105346679687500000e-01,7.668457031250000000e-01,3.970947265625000000e-01
-3.000000000000000000e+00,-2.000000000000000000e+00,-1.000000000000000000e+00,1.000000000000000000e+01,1.100000000000000000e+01,4.000000000000000000e+00,5.000000000000000000e+00,-1.000000000000000000e+00,-4.919433593750000000e-01,1.105346679687500000e-01,7.668457031250000000e-01,3.970947265625000000e-01
0.000000000000000000e+00,0.000000000000000000e+00,-7.000000000000000000e+00,-1.000000000000000000e+01,-2.000000000000000000e+00,-3.000000000000000000e+00,-1.000000000000000000e+00,-4.000000000000000000e+00,-4.919433593750000000e-01,1.105346679687500000e-01,7.668457031250000000e-01,3.970947265625000000e-01
-1.000000000000000000e+00,-2.000000000000000000e+00,0.000000000000000000e+00,-5.000000000000000000e+00,-1.000000000000000000e+00,-2.000000000000000000e+00,0.000000000000000000e+00,-1.000000000000000000e+00,-4.919433593750000000e-01,1.105346679687500000e-01,7.668457031250000000e-01,3.970947265625000000e-01
0.000000000000000000e+00,-2.000000000000000000e+00,-8.000000000000000000e+00,8.000000000000000000e+00,-1.000000000000000000e+00,-1.000000000000000000e+00,-4.000000000000000000e+00,-2.000000000000000000e+00,-4.915771484375000000e-01,1.112670898437500000e-01,7.667846679687500000e-01,3.973999023437500000e-01
-1.000000000000000000e+00,1.000000000000000000e+00,1.000000000000000000e+00,-7.000000000000000000e+00,-6.000000000000000000e+00,-4.000000000000000000e+00,-2.000000000000000000e+00,0.000000000000000000e+00,-4.915771484375000000e-01,1.112670898437500000e-01,7.667846679687500000e-01,3.973999023437500000e-01
-2.000000000000000000e+00,-4.000000000000000000e+00,-1.400000000000000000e+01,-2.000000000000000000e+00,-6.000000000000000000e+00,-3.000000000000000000e+00,1.000000000000000000e+00,-1.000000000000000000e+00,-4.915771484375000000e-01,1.112670898437500000e-01,7.667846679687500000e-01,3.973999023437500000e-01
-3.000000000000000000e+00,-1.000000000000000000e+00,4.000000000000000000e+00,7.000000000000000000e+00,4.000000000000000000e+00,2.000000000000000000e+00,1.000000000000000000e+00,0.000000000000000000e+00,-4.915771484375000000e-01,1.112670898437500000e-01,7.667846679687500000e-01,3.973999023437500000e-01
-2.000000000000000000e+00,-5.000000000000000000e+00,-2.400000000000000000e+01,-1.300000000000000000e+01,-1.000000000000000000e+00,0.000000000000000000e+00,0.000000000000000000e+00,2.000000000000000000e+00,-4.913940429687500000e-01,1.117553710937500000e-01,7.669067382812500000e-01,3.972778320312500000e-01
-3.000000000000000000e+00,-3.000000000000000000e+00,2.000000000000000000e+00,3.000000000000000000e+00,-1.000000000000000000e+00,1.000000000000000000e+00,-2.000000000000000000e+00,-1.000000000000000000e+00,-4.913940429687500000e-01,1.117553710937500000e-01,7.669067382812500000e-01,3.972778320312500000e-01
1.000000000000000000e+00,0.000000000000000000e+00,9.000000000000000000e+00,1.000000000000000000e+01,0.000000000000000000e+00,-2.000000000000000000e+00,-2.000000000000000000e+00,-1.000000000000000000e+00,-4.913940429687500000e-01,1.117553710937500000e-01,7.669067382812500000e-01,3.972778320312500000e-01
-1.000000000000000000e+00,-3.000000000000000000e+00,-4.000000000000000000e+00,-8.000000000000000000e+00,-3.000000000000000000e+00,-4.000000000000000000e+00,-1.000000000000000000e+00,0.000000000000000000e+00,-4.913940429687500000e-01,1.117553710937500000e-01,7.669067382812500000e-01,3.972778320312500000e-01
0.000000000000000000e+00,-1.000000000000000000e+00,4.000000000000000000e+00,-1.800000000000000000e+01,-6.000000000000000000e+00,-3.000000000000000000e+00,-1.000000000000000000e+00,-1.000000000000000000e+00,-4.916992187500000000e-01,1.115112304687500000e-01,7.670288085937500000e-01,3.967285156250000000e-01
0.000000000000000000e+00,3.000000000000000000e+00,1.300000000000000000e+01,1.100000000000000000e+01,3.000000000000000000e+00,4.000000000000000000e+00,-2.000000000000000000e+00,-2.000000000000000000e+00,-4.916992187500000000e-01,1.115112304687500000e-01,7.670288085937500000e-01,3.967285156250000000e-01
-1.000000000000000000e+00,-4.000000000000000000e+00,-2.100000000000000000e+01,-1.600000000000000000e+01,-6.000000000000000000e+00,0.000000000000000000e+00,-1.000000000000000000e+00,-2.000000000000000000e+00,-4.916992187500000000e-01,1.115112304687500000e-01,7.670288085937500000e-01,3.967285156250000000e-01
-3.000000000000000000e+00,-4.000000000000000000e+00,-1.600000000000000000e+01,7.000000000000000000e+00,5.000000000000000000e+00,-1.000000000000000000e+00,-3.000000000000000000e+00,-2.000000000000000000e+00,-4.916992187500000000e-01,1.115112304687500000e-01,7.670288085937500000e-01,3.967285156250000000e-01
1.000000000000000000e+00,2.000000000000000000e+00,2.200000000000000000e+01,2.000000000000000000e+01,7.000000000000000000e+00,3.000000000000000000e+00,4.000000000000000000e+00,1.000000000000000000e+00,-4.921264648437500000e-01,1.112060546875000000e-01,7.669677734375000000e-01,3.964233398437500000e-01
0.000000000000000000e+00,2.000000000000000000e+00,2.000000000000000000e+00,-1.000000000000000000e+00,-3.000000000000000000e+00,-3.000000000000000000e+00,-1.000000000000000000e+00,1.000000000000000000e+00,-4.921264648437500000e-01,1.112060546875000000e-01,7.669677734375000000e-01,3.964233398437500000e-01
1.000000000000000000e+00,-1.000000000000000000e+00,7.000000000000000000e+00,3.900000000000000000e+01,5.000000000000000000e+00,0.000000000000000000e+00,-1.000000000000000000e+00,-1.000000000000000000e+00,-4.921264648437500000e-01,1.112060546875000000e-01,7.669677734375000000e-01,3.964233398437500000e-01
0.000000000000000000e+00,4.000000000000000000e+00,1.100000000000000000e+01,-7.200000000000000000e+01,-1.200000000000000000e+01,-4.000000000000000000e+00,-5.000000000000000000e+00,-2.000000000000000000e+00,-4.921264648437500000e-01,1.112060546875000000e-01,7.669677734375000000e-01,3.964233398437500000e-01
-2.000000000000000000e+00,-2.000000000000000000e+00,-3.000000000000000000e+00,2.000000000000000000e+00,-4.000000000000000000e+00,1.000000000000000000e+00,5.000000000000000000e+00,0.000000000000000000e+00,-4.921875000000000000e-01,1.115112304687500000e-01,7.668457031250000000e-01,3.964233398437500000e-01
-2.000000000000000000e+00,-2.000000000000000000e+00,8.000000000000000000e+00,-5.000000000000000000e+00,-4.000000000000000000e+00,-2.000000000000000000e+00,-3.000000000000000000e+00,-1.000000000000000000e+00,-4.921875000000000000e-01,1.115112304687500000e-01,7.668457031250000000e-01,3.964233398437500000e-01
-2.000000000000000000e+00,0.000000000000000000e+00,-8.000000000000000000e+00,6.000000000000000000e+00,2.000000000000000000e+00,1.000000000000000000e+00,-1.000000000000000000e+00,1.000000000000000000e+00,-4.921875000000000000e-01,1.115112304687500000e-01,7.668457031250000000e-01,3.964233398437500000e-01
2.000000000000000000e+00,1.000000000000000000e+00,-3.000000000000000000e+00,7.000000000000000000e+00,-2.000000000000000000e+00,-2.000000000000000000e+00,-2.000000000000000000e+00,0.000000000000000000e+00,-4.921875000000000000e-01,1.115112304687500000e-01,7.668457031250000000e-01,3.964233398437500000e-01
-2.000000000000000000e+00,-6.000000000000000000e+00,1.000000000000000000e+01,1.400000000000000000e+01,5.000000000000000000e+00,-4.000000000000000000e+00,-4.000000000000000000e+00,-3.000000000000000000e+00,-4.923706054687500000e-01,1.115722656250000000e-01,7.667846679687500000e-01,3.964233398437500000e-01
-3.000000000000000000e+00,-3.000000000000000000e+00,-5.000000000000000000e+00,-9.000000000000000000e+00,-2.000000000000000000e+00,1.000000000000000000e+00,-3.000000000000000000e+00,-1.000000000000000000e+00,-4.923706054687500000e-01,1.115722656250000000e-01,7.667846679687500000e-01,3.964233398437500000e-01
0.000000000000000000e+00,0.000000000000000000e+00,-3.000000000000000000e+00,0.000000000000000000e+00,-1.000000000000000000e+00,-1.000000000000000000e+00,5.000000000000000000e+00,2.000000000000000000e+00,-4.923706054687500000e-01,1.115722656250000000e-01,7.667846679687500000e-01,3.964233398437500000e-01
-1.000000000000000000e+00,-1.000000000000000000e+00,7.000000000000000000e+00,-1.000000000000000000e+00,-3.000000000000000000e+00,-3.000000000000000000e+00,0.000000000000000000e+00,-1.000000000000000000e+00,-4.923706054687500000e-01,1.115722656250000000e-01,7.667846679687500000e-01,3.964233398437500000e-01
1.000000000000000000e+00,3.000000000000000000e+00,1.400000000000000000e+01,6.000000000000000000e+00,-3.000000000000000000e+00,1.000000000000000000e+00,0.000000000000000000e+00,0.000000000000000000e+00,-4.925537109375000000e-01,1.117553710937500000e-01,7.664184570312500000e-01,3.968505859375000000e-01
-2.000000000000000000e+00,-7.000000000000000000e+00,-3.300000000000000000e+01,-1.300000000000000000e+01,-3.000000000000000000e+00,-3.000000000000000000e+00,-4.000000000000000000e+00,-3.000000000000000000e+00,-4.925537109375000000e-01,1.117553710937500000e-01,7.664184570312500000e-01,3.968505859375000000e-01
-3.000000000000000000e+00,-1.000000000000000000e+00,6.000000000000000000e+00,-1.200000000000000000e+01,-3.000000000000000000e+00,-4.000000000000000000e+00,-5.000000000000000000e+00,-2.000000000000000000e+00,-4.925537109375000000e-01,1.117553710937500000e-01,7.664184570312500000e-01,3.968505859375000000e-01
0.000000000000000000e+00,-1.000000000000000000e+00,-2.000000000000000000e+00,1.000000000000000000e+00,1.000000000000000000e+00,2.000000000000000000e+00,1.000000000000000000e+00,-1.000000000000000000e+00,-4.925537109375000000e-01,1.117553710937500000e-01,7.664184570312500000e-01,3.968505859375000000e-01
-2.000000000000000000e+00,-4.000000000000000000e+00,5.000000000000000000e+00,3.600000000000000000e+01,4.000000000000000000e+00,-1.000000000000000000e+00,-3.000000000000000000e+00,-1.000000000000000000e+00,-4.927978515625000000e-01,1.124877929687500000e-01,7.658081054687500000e-01,3.973999023437500000e-01
1.000000000000000000e+00,-2.000000000000000000e+00,-1.700000000000000000e+01,-3.800000000000000000e+01,-1.000000000000000000e+01,-3.000000000000000000e+00,1.000000000000000000e+00,-2.000000000000000000e+00,-4.927978515625000000e-01,1.124877929687500000e-01,7.658081054687500000e-01,3.973999023437500000e-01
-3.000000000000000000e+00,0.000000000000000000e+00,8.000000000000000000e+00,-9.000000000000000000e+00,-2.000000000000000000e+00,-1.000000000000000000e+00,-2.000000000000000000e+00,-2.000000000000000000e+00,-4.927978515625000000e-01,1.124877929687500000e-01,7.658081054687500000e-01,3.973999023437500000e-01
0.000000000000000000e+00,-2.000000000000000000e+00,0.000000000000000000e+00,9.000000000000000000e+00,-1.000000000000000000e+00,2.000000000000000000e+00,0.000000000000000000e+00,2.000000000000000000e+00,-4.927978515625000000e-01,1.124877929687500000e-01,7.658081054687500000e-01,3.973999023437500000e-01
-1.000000000000000000e+00,-3.000000000000000000e+00,-1.800000000000000000e+01,2.000000000000000000e+00,3.000000000000000000e+00,-1.000000000000000000e+00,-1.000000000000000000e+00,-2.000000000000000000e+00,-4.934692382812500000e-01,1.130371093750000000e-01,7.653198242187500000e-01,3.974609375000000000e-01
1.000000000000000000e+00,1.000000000000000000e+00,1.300000000000000000e+01,2.000000000000000000e+01,2.000000000000000000e+00,-2.000000000000000000e+00,-1.000000000000000000e+00,1.000000000000000000e+00,-4.934692382812500000e-01,1.130371093750000000e-01,7.653198242187500000e-01,3.974609375000000000e-01
0.000000000000000000e+00,0.000000000000000000e+00,3.000000000000000000e+00,-2.300000000000000000e+01,-7.000000000000000000e+00,-1.000000000000000000e+00,1.000000000000000000e+00,0.000000000000000000e+00,-4.934692382812500000e-01,1.130371093750000000e-01,7.653198242187500000e-01,3.974609375000000000e-01
-2.000000000000000000e+00,-2.000000000000000000e+00,-1.500000000000000000e+01,1.200000000000000000e+01,5.000000000000000000e+00,-1.000000000000000000e+00,-4.000000000000000000e+00,-3.000000000000000000e+00,-4.934692382812500000e-01,1.130371093750000000e-01,7.653198242187500000e-01,3.974609375000000000e-01
-4.000000000000000000e+00,-3.000000000000000000e+00,-4.000000000000000000e+00,-9.000000000000000000e+00,-4.000000000000000000e+00,1.000000000000000000e+00,0.000000000000000000e+00,-1.000000000000000000e+00,-4.944458007812500000e-01,1.129760742187500000e-01,7.651367187500000000e-01,3.966674804687500000e-01
-1.000000000000000000e+00,2.000000000000000000e+00,8.000000000000000000e+00,7.000000000000000000e+00,2.000000000000000000e+00,0.000000000000000000e+00,0.000000000000000000e+00,2.000000000000000000e+00,-4.944458007812500000e-01,1.129760742187500000e-01,7.651367187500000000e-01,3.966674804687500000e-01
1.000000000000000000e+00,-2.000000000000000000e+00,3.000000000000000000e+00,-2.000000000000000000e+00,1.000000000000000000e+00,3.000000000000000000e+00,-1.000000000000000000e+00,-2.000000000000000000e+00,-4.944458007812500000e-01,1.129760742187500000e-01,7.651367187500000000e-01,3.966674804687500000e-01
0.000000000000000000e+00,-2.000000000000000000e+00,-4.000000000000000000e+00,-1.400000000000000000e+01,-4.000000000000000000e+00,-5.000000000000000000e+00,1.000000000000000000e+00,-1.000000000000000000e+00,-4.944458007812500000e-01,1.129760742187500000e-01,7.651367187500000000e-01,3.966674804687500000e-01
-1.000000000000000000e+00,0.000000000000000000e+00,-1.300000000000000000e+01,-1.000000000000000000e+01,-4.000000000000000000e+00,1.000000000000000000e+00,-2.000000000000000000e+00,-1.000000000000000000e+00,-4.956665039062500000e-01,1.122436523437500000e-01,7.651367187500000000e-01,3.953247070312500000e-01
-1.000000000000000000e+00,0.000000000000000000e+00,3.000000000000000000e+00,1.000000000000000000e+00,-2.000000000000000000e+00,1.000000000000000000e+00,1.000000000000000000e+00,-1.000000000000000000e+00,-4.956665039062500000e-01,1.122436523437500000e-01,7.651367187500000000e-01,3.953247070312500000e-01
-1.000000000000000000e+00,-1.000000000000000000e+00,-4.000000000000000000e+00,-6.000000000000000000e+00,0.000000000000000000e+00,0.000000000000000000e+00,-2.000000000000000000e+00,-1.000000000000000000e+00,-4.956665039062500000e-01,1.122436523437500000e-01,7.651367187500000000e-01,3.953247070312500000e-01
0.000000000000000000e+00,4.000000000000000000e+00,2.300000000000000000e+01,1.400000000000000000e+01,1.000000000000000000e+00,2.000000000000000000e+00,-1.000000000000000000e+00,0.000000000000000000e+00,-4.956665039062500000e-01,1.122436523437500000e-01,7.651367187500000000e-01,3.953247070312500000e-01
-2.000000000000000000e+00,0.000000000000000000e+00,-1.000000000000000000e+01,-3.000000000000000000e+00,0.000000000000000000e+00,-4.000000000000000000e+00,0.000000000000000000e+00,0.000000000000000000e+00,-4.971313476562500000e-01,1.112060546875000000e-01,7.650756835937500000e-01,3.937988281250000000e-01
1.000000000000000000e+00,1.000000000000000000e+00,6.000000000000000000e+00,-7.000000000000000000e+00,0.000000000000000000e+00,-2.000000000000000000e+00,-1.000000000000000000e+00,-1.000000000000000000e+00,-4.971313476562500000e-01,1.112060546875000000e-01,7.650756835937500000e-01,3.937988281250000000e-01
-2.000000000000000000e+00,-2.000000000000000000e+00,-6.000000000000000000e+00,1.100000000000000000e+01,-3.000000000000000000e+00,-3.000000000000000000e+00,-1.000000000000000000e+00,-2.000000000000000000e+00,-4.971313476562500000e-01,1.112060546875000000e-01,7.650756835937500000e-01,3.937988281250000000e-01
0.000000000000000000e+00,-1.000000000000000000e+00,9.000000000000000000e+00,-1.300000000000000000e+01,-7.000000000000000000e+00,1.000000000000000000e+00,-1.000000000000000000e+00,-2.000000000000000000e+00,-4.971313476562500000e-01,1.112060546875000000e-01,7.650756835937500000e-01,3.937988281250000000e-01
0.000000000000000000e+00,-2.000000000000000000e+00,-1.600000000000000000e+01,-9.000000000000000000e+00,-3.000000000000000000e+00,-3.000000000000000000e+00,-3.000000000000000000e+00,0.000000000000000000e+00,-4.979858398437500000e-01,1.111450195312500000e-01,7.648925781250000000e-01,3.931274414062500000e-01
-3.000000000000000000e+00,-4.000000000000000000e+00,0.000000000000000000e+00,1.600000000000000000e+01,0.000000000000000000e+00,0.000000000000000000e+00,-1.000000000000000000e+00,-2.000000000000000000e+00,-4.979858398437500000e-01,1.111450195312500000e-01,7.648925781250000000e-01,3.931274414062500000e-01
0.000000000000000000e+00,3.000000000000000000e+00,1.500000000000000000e+01,9.000000000000000000e+00,2.000000000000000000e+00,2.000000000000000000e+00,1.000000000000000000e+00,0.000000000000000000e+00,-4.979858398437500000e-01,1.111450195312500000e-01,7.648925781250000000e-01,3.931274414062500000e-01
-2.000000000000000000e+00,-6.000000000000000000e+00,-2.400000000000000000e+01,-5.000000000000000000e+00,-4.000000000000000000e+00,-1.000000000000000000e+00,1.000000000000000000e+00,0.000000000000000000e+00,-4.979858398437500000e-01,1.111450195312500000e-01,7.648925781250000000e-01,3.931274414062500000e-01
-1.000000000000000000e+00,-1.000000000000000000e+00,-1.300000000000000000e+01,-9.000000000000000000e+00,-1.000000000000000000e+00,0.000000000000000000e+00,-1.000000000000000000e+00,-3.000000000000000000e+00,-4.980468750000000000e-01,1.119384765625000000e-01,7.648315429687500000e-01,3.929443359375000000e-01
2.000000000000000000e+00,-1.000000000000000000e+00,1.500000000000000000e+01,2.000000000000000000e+00,-7.000000000000000000e+00,-3.000000000000000000e+00,0.000000000000000000e+00,0.000000000000000000e+00,-4.980468750000000000e-01,1.119384765625000000e-01,7.648315429687500000e-01,3.929443359375000000e-01
0.000000000000000000e+00,-4.000000000000000000e+00,-2.000000000000000000e+01,2.000000000000000000e+00,0.000000000000000000e+00,-1.000000000000000000e+00,-3.000000000000000000e+00,-1.000000000000000000e+00,-4.980468750000000000e-01,1.119384765625000000e-01,7.648315429687500000e-01,3.929443359375000000e-01
-1.000000000000000000e+00,0.000000000000000000e+00,4.000000000000000000e+00,1.600000000000000000e+01,0.000000000000000000e+00,0.000000000000000000e+00,-2.000000000000000000e+00,-2.000000000000000000e+00,-4.980468750000000000e-01,1.119384765625000000e-01,7.648315429687500000e-01,3.929443359375000000e-01
0.000000000000000000e+00,2.000000000000000000e+00,3.700000000000000000e+01,-2.000000000000000000e+01,6.000000000000000000e+00,0.000000000000000000e+00,1.000000000000000000e+00,0.000000000000000000e+00,-4.977416992187500000e-01,1.124877929687500000e-01,7.650146484375000000e-01,3.928222656250000000e-01
-3.000000000000000000e+00,-4.000000000000000000e+00,-6.200000000000000000e+01,-1.500000000000000000e+01,-3.000000000000000000e+00,-3.000000000000000000e+00,1.000000000000000000e+00,-2.000000000000000000e+00,-4.977416992187500000e-01,1.124877929687500000e-01,7.650146484375000000e-01,3.928222656250000000e-01
-1.000000000000000000e+00,0.000000000000000000e+00,-1.200000000000000000e+01,-5.000000000000000000e+00,-3.000000000000000000e+00,-4.000000000000000000e+00,-4.000000000000000000e+00,-2.000000000000000000e+00,-4.977416992187500000e-01,1.124877929687500000e-01,7.650146484375000000e-01,3.928222656250000000e-01
-4.000000000000000000e+00,-4.000000000000000000e+00,-9.000000000000000000e+00,8.000000000000000000e+00,1.000000000000000000e+00,4.000000000000000000e+00,9.000000000000000000e+00,0.000000000000000000e+00,-4.977416992187500000e-01,1.124877929687500000e-01,7.650146484375000000e-01,3.928222656250000000e-01
-2.000000000000000000e+00,-2.000000000000000000e+00,-3.000000000000000000e+00,5.000000000000000000e+00,-1.000000000000000000e+00,0.000000000000000000e+00,0.000000000000000000e+00,0.000000000000000000e+00,-4.971313476562500000e-01,1.126708984375000000e-01,7.653808593750000000e-01,3.927612304687500000e-01
0.000000000000000000e+00,4.000000000000000000e+00,1.300000000000000000e+01,-5.000000000000000000e+00,0.000000000000000000e+00,2.000000000000000000e+00,0.000000000000000000e+00,-1.000000000000000000e+00,-4.971313476562500000e-01,1.126708984375000000e-01,7.653808593750000000e-01,3.927612304687500000e-01
0.000000000000000000e+00,0.000000000000000000e+00,1.000000000000000000e+01,3.000000000000000000e+00,2.000000000000000000e+00,-1.000000000000000000e+00,-1.000000000000000000e+00,0.000000000000000000e+00,-4.971313476562500000e-01,1.126708984375000000e-01,7.653808593750000000e-01,3.927612304687500000e-01
0.000000000000000000e+00,-3.000000000000000000e+00,-3.000000000000000000e+00,-2.000000000000000000e+00,-3.000000000000000000e+00,-4.000000000000000000e+00,-6.000000000000000000e+00,-4.000000000000000000e+00,-4.971313476562500000e-01,1.126708984375000000e-01,7.653808593750000000e-01,3.927612304687500000e-01
0.000000000000000000e+00,0.000000000000000000e+00,0.000000000000000000e+00,2.000000000000000000e+00,-4.000000000000000000e+00,-2.000000000000000000e+00,1.000000000000000000e+00,0.000000000000000000e+00,-4.964599609375000000e-01,1.130371093750000000e-01,7.656250000000000000e-01,3.931274414062500000e-01
-2.000000000000000000e+00,0.000000000000000000e+00,1.100000000000000000e+01,3.400000000000000000e+01,6.000000000000000000e+00,-1.000000000000000000e+00,1.000000000000000000e+00,0.000000000000000000e+00,-4.964599609375000000e-01,1.130371093750000000e-01,7.656250000000000000e-01,3.931274414062500000e-01
-2.000000000000000000e+00,-4.000000000000000000e+00,-8.000000000000000000e+00,-3.000000000000000000e+01,-3.000000000000000000e+00,-1.000000000000000000e+00,-2.000000000000000000e+00,-3.000000000000000000e+00,-4.964599609375000000e-01,1.130371093750000000e-01,7.656250000000000000e-01,3.931274414062500000e-01
-1.000000000000000000e+00,3.000000000000000000e+00,1.700000000000000000e+01,-9.000000000000000000e+00,-8.000000000000000000e+00,-3.000000000000000000e+00,-2.000000000000000000e+00,0.000000000000000000e+00,-4.964599609375000000e-01,1.130371093750000000e-01,7.656250000000000000e-01,3.931274414062500000e-01
0.000000000000000000e+00,-3.000000000000000000e+00,-4.000000000000000000e+00,1.800000000000000000e+01,7.000000000000000000e+00,1.000000000000000000e+00,0.000000000000000000e+00,-1.000000000000000000e+00,-4.957885742187500000e-01,1.133422851562500000e-01,7.657470703125000000e-01,3.935546875000000000e-01
0.000000000000000000e+00,-4.000000000000000000e+00,-1.300000000000000000e+01,-6.000000000000000000e+00,-3.000000000000000000e+00,0.000000000000000000e+00,-3.000000000000000000e+00,-1.000000000000000000e+00,-4.957885742187500000e-01,1.133422851562500000e-01,7.657470703125000000e-01,3.935546875000000000e-01
0.000000000000000000e+00,1.000000000000000000e+00,1.700000000000000000e+01,3.400000000000000000e+01,1.500000000000000000e+01,2.000000000000000000e+00,1.000000000000000000e+00,1.000000000000000000e+00,-4.957885742187500000e-01,1.133422851562500000e-01,7.657470703125000000e-01,3.935546875000000000e-01
-2.000000000000000000e+00,1.000000000000000000e+00,1.700000000000000000e+01,-6.000000000000000000e+00,2.000000000000000000e+00,-3.000000000000000000e+00,-2.000000000000000000e+00,-1.000000000000000000e+00,-4.957885742187500000e-01,1.133422851562500000e-01,7.657470703125000000e-01,3.935546875000000000e-01
0.000000000000000000e+00,-2.000000000000000000e+00,-1.400000000000000000e+01,-2.100000000000000000e+01,-1.000000000000000000e+01,-3.000000000000000000e+00,-2.000000000000000000e+00,-2.000000000000000000e+00,-4.950561523437500000e-01,1.138305664062500000e-01,7.659912109375000000e-01,3.939819335937500000e-01
1.000000000000000000e+00,1.000000000000000000e+00,8.000000000000000000e+00,4.000000000000000000e+00,2.000000000000000000e+00,1.000000000000000000e+00,-1.000000000000000000e+00,0.000000000000000000e+00,-4.950561523437500000e-01,1.138305664062500000e-01,7.659912109375000000e-01,3.939819335937500000e-01
-4.000000000000000000e+00,-3.000000000000000000e+00,1.200000000000000000e+01,1.000000000000000000e+01,2.000000000000000000e+00,0.000000000000000000e+00,0.000000000000000000e+00,-3.000000000000000000e+00,-4.950561523437500000e-01,1.138305664062500000e-01,7.659912109375000000e-01,3.939819335937500000e-01
-3.000000000000000000e+00,-6.000000000000000000e+00,-2.300000000000000000e+01,2.000000000000000000e+00,-4.000000000000000000e+00,-3.000000000000000000e+00,-4.000000000000000000e+00,-1.000000000000000000e+00,-4.950561523437500000e-01,1.138305664062500000e-01,7.659912109375000000e-01,3.939819335937500000e-01
1.000000000000000000e+00,1.000000000000000000e+00,2.000000000000000000e+00,-1.000000000000000000e+01,-6.000000000000000000e+00,-1.000000000000000000e+00,0.000000000000000000e+00,-1.000000000000000000e+00,-4.945068359375000000e-01,1.141967773437500000e-01,7.660522460937500000e-01,3.944091796875000000e-01
0.000000000000000000e+00,2.000000000000000000e+00,1.200000000000000000e+01,-1.000000000000000000e+01,-2.000000000000000000e+00,0.000000000000000000e+00,-1.000000000000000000e+00,-2.000000000000000000e+00,-4.945068359375000000e-01,1.141967773437500000e-01,7.660522460937500000e-01,3.944091796875000000e-01
0.000000000000000000e+00,-2.000000000000000000e+00,-1.400000000000000000e+01,-1.500000000000000000e+01,-5.000000000000000000e+00,-3.000000000000000000e+00,-2.000000000000000000e+00,1.000000000000000000e+00,-4.945068359375000000e-01,1.141967773437500000e-01,7.660522460937500000e-01,3.944091796875000000e-01
1.000000000000000000e+00,0.000000000000000000e+00,4.000000000000000000e+00,7.000000000000000000e+00,4.000000000000000000e+00,1.000000000000000000e+00,1.000000000000000000e+00,1.000000000000000000e+00,-4.945068359375000000e-01,1.141967773437500000e-01,7.660522460937500000e-01,3.944091796875000000e-01
