0.000000000000000000e+00,5.000000000000000000e+00,-1.000000000000000000e+00,-8.000000000000000000e+00,-9.000000000000000000e+00,-5.000000000000000000e+00,-2.000000000000000000e+00,0.000000000000000000e+00,-2.208862304687500000e-01,4.791259765625000000e-01,2.350463867187500000e-01,8.162841796875000000e-01
-3.000000000000000000e+00,-6.000000000000000000e+00,9.000000000000000000e+00,6.000000000000000000e+00,4.000000000000000000e+00,0.000000000000000000e+00,-2.000000000000000000e+00,-4.000000000000000000e+00,-2.208862304687500000e-01,4.791259765625000000e-01,2.350463867187500000e-01,8.162841796875000000e-01
-1.000000000000000000e+00,-2.000000000000000000e+00,-1.000000000000000000e+00,-7.000000000000000000e+00,-1.100000000000000000e+01,-4.000000000000000000e+00,-2.000000000000000000e+00,0.000000000000000000e+00,-2.208862304687500000e-01,4.791259765625000000e-01,2.350463867187500000e-01,8.162841796875000000e-01
2.000000000000000000e+00,3.000000000000000000e+00,0.000000000000000000e+00,0.000000000000000000e+00,3.000000000000000000e+00,-1.000000000000000000e+00,-1.000000000000000000e+00,-1.000000000000000000e+00,-2.208862304687500000e-01,4.791259765625000000e-01,2.350463867187500000e-01,8.162841796875000000e-01
-1.000000000000000000e+00,6.000000000000000000e+00,-5.000000000000000000e+00,2.000000000000000000e+00,3.000000000000000000e+00,0.000000000000000000e+00,0.000000000000000000e+00,-1.000000000000000000e+00,-2.208862304687500000e-01,4.779052734375000000e-01,2.353515625000000000e-01,8.168945312500000000e-01
0.000000000000000000e+00,-5.000000000000000000e+00,-5.000000000000000000e+00,-1.000000000000000000e+01,-4.000000000000000000e+00,-2.000000000000000000e+00,1.000000000000000000e+00,-1.000000000000000000e+00,-2.208862304687500000e-01,4.779052734375000000e-01,2.353515625000000000e-01,8.168945312500000000e-01
-5.000000000000000000e+00,-8.000000000000000000e+00,-7.000000000000000000e+00,-4.000000000000000000e+00,-4.000000000000000000e+00,-5.000000000000000000e+00,-3.000000000000000000e+00,-1.000000000000000000e+00,-2.208862304687500000e-01,4.779052734375000000e-01,2.353515625000000000e-01,8.168945312500000000e-01
-5.000000000000000000e+00,-7.000000000000000000e+00,1.100000000000000000e+01,3.000000000000000000e+00,2.000000000000000000e+00,0.000000000000000000e+00,-3.000000000000000000e+00,-1.000000000000000000e+00,-2.208862304687500000e-01,4.779052734375000000e-01,2.353515625000000000e-01,8.168945312500000000e-01
-1.000000000000000000e+00,-2.000000000000000000e+00,-6.000000000000000000e+00,-5.000000000000000000e+00,-5.000000000000000000e+00,-2.000000000000000000e+00,-2.000000000000000000e+00,-3.000000000000000000e+00,-2.204589843750000000e-01,4.769287109375000000e-01,2.353515625000000000e-01,8.175659179687500000e-01
2.000000000000000000e+00,8.000000000000000000e+00,1.000000000000000000e+00,0.000000000000000000e+00,-2.000000000000000000e+00,0.000000000000000000e+00,-1.000000000000000000e+00,-1.000000000000000000e+00,-2.204589843750000000e-01,4.769287109375000000e-01,2.353515625000000000e-01,8.175659179687500000e-01
1.000000000000000000e+00,-4.000000000000000000e+00,3.000000000000000000e+00,-1.000000000000000000e+00,1.000000000000000000e+00,2.000000000000000000e+00,-1.000000000000000000e+00,-1.000000000000000000e+00,-2.204589843750000000e-01,4.769287109375000000e-01,2.353515625000000000e-01,8.175659179687500000e-01
0.000000000000000000e+00,-2.000000000000000000e+00,-8.000000000000000000e+00,0.000000000000000000e+00,-2.000000000000000000e+00,-3.000000000000000000e+00,-1.000000000000000000e+00,1.000000000000000000e+00,-2.204589843750000000e-01,4.769287109375000000e-01,2.353515625000000000e-01,8.175659179687500000e-01
-2.000000000000000000e+00,-5.000000000000000000e+00,-3.000000000000000000e+00,2.000000000000000000e+00,2.000000000000000000e+00,2.000000000000000000e+00,-1.000000000000000000e+00,0.000000000000000000e+00,-2.196044921875000000e-01,4.760131835937500000e-01,2.354125976562500000e-01,8.182983398437500000e-01
-1.000000000000000000e+00,-1.000000000000000000e+00,0.000000000000000000e+00,3.000000000000000000e+00,5.000000000000000000e+00,-1.000000000000000000e+00,-2.000000000000000000e+00,-1.000000000000000000e+00,-2.196044921875000000e-01,4.760131835937500000e-01,2.354125976562500000e-01,8.182983398437500000e-01
0.000000000000000000e+00,1.700000000000000000e+01,5.000000000000000000e+00,0.000000000000000000e+00,0.000000000000000000e+00,0.000000000000000000e+00,0.000000000000000000e+00,-1.000000000000000000e+00,-2.196044921875000000e-01,4.760131835937500000e-01,2.354125976562500000e-01,8.182983398437500000e-01
-2.000000000000000000e+00,-9.000000000000000000e+00,-4.000000000000000000e+00,-3.000000000000000000e+00,-4.000000000000000000e+00,0.000000000000000000e+00,-2.000000000000000000e+00,-3.000000000000000000e+00,-2.196044921875000000e-01,4.760131835937500000e-01,2.354125976562500000e-01,8.182983398437500000e-01
0.000000000000000000e+00,-5.000000000000000000e+00,4.000000000000000000e+00,-1.000000000000000000e+00,-2.000000000000000000e+00,-1.000000000000000000e+00,0.000000000000000000e+00,1.000000000000000000e+00,-2.182617187500000000e-01,4.752197265625000000e-01,2.358398437500000000e-01,8.190307617187500000e-01
-1.000000000000000000e+00,1.000000000000000000e+00,-1.100000000000000000e+01,0.000000000000000000e+00,1.000000000000000000e+00,1.000000000000000000e+00,1.000000000000000000e+00,-1.000000000000000000e+00,-2.182617187500000000e-01,4.752197265625000000e-01,2.358398437500000000e-01,8.190307617187500000e-01
0.000000000000000000e+00,4.000000000000000000e+00,5.000000000000000000e+00,2.000000000000000000e+00,-6.000000000000000000e+00,-1.000000000000000000e+00,0.000000000000000000e+00,-1.000000000000000000e+00,-2.182617187500000000e-01,4.752197265625000000e-01,2.358398437500000000e-01,8.190307617187500000e-01
1.000000000000000000e+00,8.000000000000000000e+00,3.000000000000000000e+00,-1.000000000000000000e+01,-2.000000000000000000e+00,-1.000000000000000000e+00,0.000000000000000000e+00,-1.000000000000000000e+00,-2.182617187500000000e-01,4.752197265625000000e-01,2.358398437500000000e-01,8.190307617187500000e-01
-2.000000000000000000e+00,-1.600000000000000000e+01,-5.000000000000000000e+00,1.300000000000000000e+01,9.000000000000000000e+00,0.000000000000000000e+00,0.000000000000000000e+00,-2.000000000000000000e+00,-2.171630859375000000e-01,4.747314453125000000e-01,2.366333007812500000e-01,8.193969726562500000e-01
4.000000000000000000e+00,1.500000000000000000e+01,2.000000000000000000e+00,-4.000000000000000000e+00,-1.000000000000000000e+00,-1.000000000000000000e+00,-2.000000000000000000e+00,3.000000000000000000e+00,-2.171630859375000000e-01,4.747314453125000000e-01,2.366333007812500000e-01,8.193969726562500000e-01
0.000000000000000000e+00,-5.000000000000000000e+00,-4.000000000000000000e+00,-4.000000000000000000e+00,-1.000000000000000000e+00,0.000000000000000000e+00,-1.000000000000000000e+00,-1.000000000000000000e+00,-2.171630859375000000e-01,4.747314453125000000e-01,2.366333007812500000e-01,8.193969726562500000e-01
0.000000000000000000e+00,5.000000000000000000e+00,4.000000000000000000e+00,1.000000000000000000e+00,-3.000000000000000000e+00,-2.000000000000000000e+00,1.000000000000000000e+00,-1.000000000000000000e+00,-2.171630859375000000e-01,4.747314453125000000e-01,2.366333007812500000e-01,8.193969726562500000e-01
-1.000000000000000000e+00,-4.000000000000000000e+00,-4.000000000000000000e+00,-2.000000000000000000e+00,1.000000000000000000e+00,5.000000000000000000e+00,1.000000000000000000e+00,0.000000000000000000e+00,-2.171630859375000000e-01,4.744262695312500000e-01,2.376098632812500000e-01,8.192749023437500000e-01
-4.000000000000000000e+00,-7.000000000000000000e+00,0.000000000000000000e+00,0.000000000000000000e+00,-1.000000000000000000e+00,-3.000000000000000000e+00,-2.000000000000000000e+00,-2.000000000000000000e+00,-2.171630859375000000e-01,4.744262695312500000e-01,2.376098632812500000e-01,8.192749023437500000e-01
-3.000000000000000000e+00,-7.000000000000000000e+00,-6.000000000000000000e+00,-2.000000000000000000e+00,1.000000000000000000e+00,0.000000000000000000e+00,-1.000000000000000000e+00,-1.000000000000000000e+00,-2.171630859375000000e-01,4.744262695312500000e-01,2.376098632812500000e-01,8.192749023437500000e-01
-1.000000000000000000e+00,3.000000000000000000e+00,7.000000000000000000e+00,2.000000000000000000e+00,2.000000000000000000e+00,1.000000000000000000e+00,0.000000000000000000e+00,-1.000000000000000000e+00,-2.171630859375000000e-01,4.744262695312500000e-01,2.376098632812500000e-01,8.192749023437500000e-01
0.000000000000000000e+00,5.000000000000000000e+00,-6.000000000000000000e+00,-9.000000000000000000e+00,-7.000000000000000000e+00,-1.000000000000000000e+00,1.000000000000000000e+00,-2.000000000000000000e+00,-2.178344726562500000e-01,4.739990234375000000e-01,2.380981445312500000e-01,8.192138671875000000e-01
-2.000000000000000000e+00,2.000000000000000000e+00,9.000000000000000000e+00,6.000000000000000000e+00,-2.000000000000000000e+00,1.000000000000000000e+00,-1.000000000000000000e+00,-3.000000000000000000e+00,-2.178344726562500000e-01,4.739990234375000000e-01,2.380981445312500000e-01,8.192138671875000000e-01
-2.000000000000000000e+00,-1.400000000000000000e+01,-3.000000000000000000e+00,3.000000000000000000e+00,1.000000000000000000e+00,-2.000000000000000000e+00,-1.000000000000000000e+00,2.000000000000000000e+00,-2.178344726562500000e-01,4.739990234375000000e-01,2.380981445312500000e-01,8.192138671875000000e-01
-1.000000000000000000e+00,-1.000000000000000000e+00,-9.000000000000000000e+00,-4.000000000000000000e+00,-4.000000000000000000e+00,-4.000000000000000000e+00,-1.000000000000000000e+00,-2.000000000000000000e+00,-2.178344726562500000e-01,4.739990234375000000e-01,2.380981445312500000e-01,8.192138671875000000e-01
-2.000000000000000000e+00,-4.000000000000000000e+00,5.000000000000000000e+00,1.000000000000000000e+00,2.000000000000000000e+00,1.000000000000000000e+00,1.000000000000000000e+00,-1.000000000000000000e+00,-2.183837890625000000e-01,4.735717773437500000e-01,2.379150390625000000e-01,8.193359375000000000e-01
2.000000000000000000e+00,7.000000000000000000e+00,-5.000000000000000000e+00,-5.000000000000000000e+00,-1.000000000000000000e+00,-2.000000000000000000e+00,-1.000000000000000000e+00,-1.000000000000000000e+00,-2.183837890625000000e-01,4.735717773437500000e-01,2.379150390625000000e-01,8.193359375000000000e-01
2.000000000000000000e+00,-5.000000000000000000e+00,5.000000000000000000e+00,-1.000000000000000000e+00,-3.000000000000000000e+00,-3.000000000000000000e+00,-2.000000000000000000e+00,-2.000000000000000000e+00,-2.183837890625000000e-01,4.735717773437500000e-01,2.379150390625000000e-01,8.193359375000000000e-01
-2.000000000000000000e+00,-2.000000000000000000e+00,-3.000000000000000000e+00,1.000000000000000000e+00,-3.000000000000000000e+00,0.000000000000000000e+00,0.000000000000000000e+00,-2.000000000000000000e+00,-2.183837890625000000e-01,4.735717773437500000e-01,2.379150390625000000e-01,8.193359375000000000e-01
-1.000000000000000000e+00,4.000000000000000000e+00,2.000000000000000000e+00,-3.000000000000000000e+00,2.000000000000000000e+00,-1.000000000000000000e+00,-3.000000000000000000e+00,0.000000000000000000e+00,-2.188720703125000000e-01,4.732666015625000000e-01,2.373657226562500000e-01,8.195800781250000000e-01
0.000000000000000000e+00,-2.000000000000000000e+00,-4.000000000000000000e+00,-1.100000000000000000e+01,-4.000000000000000000e+00,-3.000000000000000000e+00,-1.000000000000000000e+00,0.000000000000000000e+00,-2.188720703125000000e-01,4.732666015625000000e-01,2.373657226562500000e-01,8.195800781250000000e-01
0.000000000000000000e+00,2.000000000000000000e+00,1.000000000000000000e+01,1.000000000000000000e+01,1.000000000000000000e+00,0.000000000000000000e+00,0.000000000000000000e+00,-2.000000000000000000e+00,-2.188720703125000000e-01,4.732666015625000000e-01,2.373657226562500000e-01,8.195800781250000000e-01
-1.000000000000000000e+00,-3.000000000000000000e+00,-5.000000000000000000e+00,3.000000000000000000e+00,5.000000000000000000e+00,2.000000000000000000e+00,0.000000000000000000e+00,-1.000000000000000000e+00,-2.188720703125000000e-01,4.732666015625000000e-01,2.373657226562500000e-01,8.195800781250000000e-01
-1.000000000000000000e+00,2.000000000000000000e+00,0.000000000000000000e+00,0.000000000000000000e+00,-4.000000000000000000e+00,-3.000000000000000000e+00,-2.000000000000000000e+00,-2.000000000000000000e+00,-2.194824218750000000e-01,4.727783203125000000e-01,2.371826171875000000e-01,8.197021484375000000e-01
-1.000000000000000000e+00,-4.000000000000000000e+00,-6.000000000000000000e+00,-5.000000000000000000e+00,-1.000000000000000000e+00,0.000000000000000000e+00,1.000000000000000000e+00,0.000000000000000000e+00,-2.194824218750000000e-01,4.727783203125000000e-01,2.371826171875000000e-01,8.197021484375000000e-01
0.000000000000000000e+00,-3.000000000000000000e+00,-7.000000000000000000e+00,-1.000000000000000000e+01,-1.000000000000000000e+00,-3.000000000000000000e+00,-1.000000000000000000e+00,0.000000000000000000e+00,-2.207641601562500000e-01,4.723510742187500000e-01,2.374877929687500000e-01,8.195800781250000000e-01
-1.000000000000000000e+00,5.000000000000000000e+00,2.000000000000000000e+00,3.000000000000000000e+00,-3.000000000000000000e+00,-1.000000000000000000e+00,-2.000000000000000000e+00,-2.000000000000000000e+00,-2.207641601562500000e-01,4.723510742187500000e-01,2.374877929687500000e-01,8.195800781250000000e-01
0.000000000000000000e+00,-4.000000000000000000e+00,-1.000000000000000000e+00,2.000000000000000000e+00,0.000000000000000000e+00,1.000000000000000000e+00,2.000000000000000000e+00,1.000000000000000000e+00,-2.207641601562500000e-01,4.723510742187500000e-01,2.374877929687500000e-01,8.195800781250000000e-01
-1.000000000000000000e+00,-8.000000000000000000e+00,-3.000000000000000000e+00,1.000000000000000000e+00,6.000000000000000000e+00,2.000000000000000000e+00,-1.000000000000000000e+00,0.000000000000000000e+00,-2.207641601562500000e-01,4.723510742187500000e-01,2.374877929687500000e-01,8.195800781250000000e-01
-1.000000000000000000e+00,7.000000000000000000e+00,5.000000000000000000e+00,-2.000000000000000000e+00,-2.000000000000000000e+00,-1.000000000000000000e+00,0.000000000000000000e+00,-1.000000000000000000e+00,-2.220458984375000000e-01,4.716796875000000000e-01,2.384033203125000000e-01,8.193359375000000000e-01
-1.000000000000000000e+00,0.000000000000000000e+00,-1.000000000000000000e+00,-4.000000000000000000e+00,-3.000000000000000000e+00,-3.000000000000000000e+00,-2.000000000000000000e+00,1.000000000000000000e+00,-2.220458984375000000e-01,4.716796875000000000e-01,2.384033203125000000e-01,8.193359375000000000e-01
-2.000000000000000000e+00,-3.000000000000000000e+00,-8.000000000000000000e+00,-1.000000000000000000e+00,-3.000000000000000000e+00,-2.000000000000000000e+00,-3.000000000000000000e+00,-2.000000000000000000e+00,-2.220458984375000000e-01,4.716796875000000000e-01,2.384033203125000000e-01,8.193359375000000000e-01
-2.000000000000000000e+00,-4.000000000000000000e+00,-8.000000000000000000e+00,-4.000000000000000000e+00,-2.000000000000000000e+00,0.000000000000000000e+00,-1.000000000000000000e+00,-1.000000000000000000e+00,-2.220458984375000000e-01,4.716796875000000000e-01,2.384033203125000000e-01,8.193359375000000000e-01
-2.000000000000000000e+00,4.000000000000000000e+00,9.000000000000000000e+00,7.000000000000000000e+00,-1.000000000000000000e+00,-1.000000000000000000e+00,-1.000000000000000000e+00,-2.000000000000000000e+00,-2.232055664062500000e-01,4.709472656250000000e-01,2.392578125000000000e-01,8.191528320312500000e-01
-1.000000000000000000e+00,-3.000000000000000000e+00,-6.000000000000000000e+00,-2.000000000000000000e+00,-3.000000000000000000e+00,-6.000000000000000000e+00,-4.000000000000000000e+00,-1.000000000000000000e+00,-2.232055664062500000e-01,4.709472656250000000e-01,2.392578125000000000e-01,8.191528320312500000e-01
0.000000000000000000e+00,-7.000000000000000000e+00,0.000000000000000000e+00,0.000000000000000000e+00,0.000000000000000000e+00,0.000000000000000000e+00,-1.000000000000000000e+00,-1.000000000000000000e+00,-2.232055664062500000e-01,4.709472656250000000e-01,2.392578125000000000e-01,8.191528320312500000e-01
0.000000000000000000e+00,8.000000000000000000e+00,6.000000000000000000e+00,2.000000000000000000e+00,-3.000000000000000000e+00,-1.000000000000000000e+00,0.000000000000000000e+00,-2.000000000000000000e+00,-2.232055664062500000e-01,4.709472656250000000e-01,2.392578125000000000e-01,8.191528320312500000e-01
-1.000000000000000000e+00,-8.000000000000000000e+00,-1.200000000000000000e+01,-7.000000000000000000e+00,0.000000000000000000e+00,0.000000000000000000e+00,1.000000000000000000e+00,-1.000000000000000000e+00,-2.233276367187500000e-01,4.703979492187500000e-01,2.396850585937500000e-01,8.193359375000000000e-01
0.000000000000000000e+00,-1.000000000000000000e+00,2.000000000000000000e+00,0.000000000000000000e+00,4.000000000000000000e+00,2.000000000000000000e+00,2.000000000000000000e+00,1.000000000000000000e+00,-2.233276367187500000e-01,4.703979492187500000e-01,2.396850585937500000e-01,8.193359375000000000e-01
-1.000000000000000000e+00,-2.000000000000000000e+00,-1.000000000000000000e+00,-4.000000000000000000e+00,-5.000000000000000000e+00,-2.000000000000000000e+00,-2.000000000000000000e+00,-1.000000000000000000e+00,-2.233276367187500000e-01,4.703979492187500000e-01,2.396850585937500000e-01,8.193359375000000000e-01
-2.000000000000000000e+00,6.000000000000000000e+00,3.000000000000000000e+00,-3.000000000000000000e+00,-4.000000000000000000e+00,-2.000000000000000000e+00,0.000000000000000000e+00,-2.000000000000000000e+00,-2.233276367187500000e-01,4.703979492187500000e-01,2.396850585937500000e-01,8.193359375000000000e-01
-1.000000000000000000e+00,-6.000000000000000000e+00,-9.000000000000000000e+00,-1.000000000000000000e+00,2.000000000000000000e+00,1.000000000000000000e+00,0.000000000000000000e+00,-1.000000000000000000e+00,-2.222290039062500000e-01,4.703369140625000000e-01,2.398071289062500000e-01,8.196411132812500000e-01
0.000000000000000000e+00,6.000000000000000000e+00,4.000000000000000000e+00,1.000000000000000000e+00,-4.000000000000000000e+00,-2.000000000000000000e+00,0.000000000000000000e+00,-1.000000000000000000e+00,-2.222290039062500000e-01,4.703369140625000000e-01,2.398071289062500000e-01,8.196411132812500000e-01
-1.000000000000000000e+00,-9.000000000000000000e+00,-7.000000000000000000e+00,0.000000000000000000e+00,4.000000000000000000e+00,0.000000000000000000e+00,-1.000000000000000000e+00,-2.000000000000000000e+00,-2.222290039062500000e-01,4.703369140625000000e-01,2.398071289062500000e-01,8.196411132812500000e-01
0.000000000000000000e+00,-2.000000000000000000e+00,3.000000000000000000e+00,2.000000000000000000e+00,1.000000000000000000e+00,0.000000000000000000e+00,0.000000000000000000e+00,0.000000000000000000e+00,-2.222290039062500000e-01,4.703369140625000000e-01,2.398071289062500000e-01,8.196411132812500000e-01
1.000000000000000000e+00,1.000000000000000000e+00,2.000000000000000000e+00,-1.000000000000000000e+00,-3.000000000000000000e+00,-3.000000000000000000e+00,-1.000000000000000000e+00,-2.000000000000000000e+00,-2.210083007812500000e-01,4.704589843750000000e-01,2.402954101562500000e-01,8.197631835937500000e-01
0.000000000000000000e+00,2.000000000000000000e+00,-2.000000000000000000e+00,-7.000000000000000000e+00,-6.000000000000000000e+00,-2.000000000000000000e+00,-3.000000000000000000e+00,-1.000000000000000000e+00,-2.210083007812500000e-01,4.704589843750000000e-01,2.402954101562500000e-01,8.197631835937500000e-01
0.000000000000000000e+00,-1.000000000000000000e+00,1.000000000000000000e+00,4.000000000000000000e+00,3.000000000000000000e+00,-1.000000000000000000e+00,0.000000000000000000e+00,1.000000000000000000e+00,-2.210083007812500000e-01,4.704589843750000000e-01,2.402954101562500000e-01,8.197631835937500000e-01
-1.000000000000000000e+00,-3.000000000000000000e+00,-3.000000000000000000e+00,-8.000000000000000000e+00,-8.000000000000000000e+00,-3.000000000000000000e+00,-2.000000000000000000e+00,-1.000000000000000000e+00,-2.210083007812500000e-01,4.704589843750000000e-01,2.402954101562500000e-01,8.197631835937500000e-01
-1.000000000000000000e+00,-1.000000000000000000e+00,-4.000000000000000000e+00,3.000000000000000000e+00,1.000000000000000000e+00,0.000000000000000000e+00,0.000000000000000000e+00,1.000000000000000000e+00,-2.207641601562500000e-01,4.699707031250000000e-01,2.414550781250000000e-01,8.197631835937500000e-01
0.000000000000000000e+00,0.000000000000000000e+00,2.000000000000000000e+00,2.000000000000000000e+00,0.000000000000000000e+00,1.000000000000000000e+00,3.000000000000000000e+00,-1.000000000000000000e+00,-2.207641601562500000e-01,4.699707031250000000e-01,2.414550781250000000e-01,8.197631835937500000e-01
0.000000000000000000e+00,2.000000000000000000e+00,2.000000000000000000e+00,-3.000000000000000000e+00,-4.000000000000000000e+00,-2.000000000000000000e+00,-1.000000000000000000e+00,1.000000000000000000e+00,-2.207641601562500000e-01,4.699707031250000000e-01,2.414550781250000000e-01,8.197631835937500000e-01
-1.000000000000000000e+00,-4.000000000000000000e+00,-4.000000000000000000e+00,4.000000000000000000e+00,7.000000000000000000e+00,3.000000000000000000e+00,1.000000000000000000e+00,-1.000000000000000000e+00,-2.207641601562500000e-01,4.699707031250000000e-01,2.414550781250000000e-01,8.197631835937500000e-01
0.000000000000000000e+00,2.000000000000000000e+00,-2.000000000000000000e+00,-4.000000000000000000e+00,-1.000000000000000000e+00,0.000000000000000000e+00,-2.000000000000000000e+00,0.000000000000000000e+00,-2.210083007812500000e-01,4.692382812500000000e-01,2.424926757812500000e-01,8.198242187500000000e-01
-1.000000000000000000e+00,-3.000000000000000000e+00,-3.000000000000000000e+00,-3.000000000000000000e+00,1.000000000000000000e+00,0.000000000000000000e+00,-2.000000000000000000e+00,-4.000000000000000000e+00,-2.210083007812500000e-01,4.692382812500000000e-01,2.424926757812500000e-01,8.198242187500000000e-01
-1.000000000000000000e+00,-3.000000000000000000e+00,-3.000000000000000000e+00,-4.000000000000000000e+00,-4.000000000000000000e+00,-4.000000000000000000e+00,-3.000000000000000000e+00,-2.000000000000000000e+00,-2.210083007812500000e-01,4.692382812500000000e-01,2.424926757812500000e-01,8.198242187500000000e-01
-2.000000000000000000e+00,6.000000000000000000e+00,3.000000000000000000e+00,2.000000000000000000e+00,-2.000000000000000000e+00,-1.000000000000000000e+00,-1.000000000000000000e+00,-1.000000000000000000e+00,-2.210083007812500000e-01,4.692382812500000000e-01,2.424926757812500000e-01,8.198242187500000000e-01
-1.000000000000000000e+00,-1.600000000000000000e+01,-1.400000000000000000e+01,-6.000000000000000000e+00,-4.000000000000000000e+00,-3.000000000000000000e+00,-3.000000000000000000e+00,-1.000000000000000000e+00,-2.211914062500000000e-01,4.688110351562500000e-01,2.429809570312500000e-01,8.198852539062500000e-01
0.000000000000000000e+00,2.100000000000000000e+01,2.600000000000000000e+01,0.000000000000000000e+00,1.000000000000000000e+00,-1.000000000000000000e+00,0.000000000000000000e+00,0.000000000000000000e+00,-2.211914062500000000e-01,4.688110351562500000e-01,2.429809570312500000e-01,8.198852539062500000e-01
-1.000000000000000000e+00,-6.000000000000000000e+00,-1.000000000000000000e+01,-2.000000000000000000e+00,0.000000000000000000e+00,-2.000000000000000000e+00,0.000000000000000000e+00,1.000000000000000000e+00,-2.211914062500000000e-01,4.688110351562500000e-01,2.429809570312500000e-01,8.198852539062500000e-01
-1.000000000000000000e+00,-4.000000000000000000e+00,-2.000000000000000000e+00,1.000000000000000000e+00,3.000000000000000000e+00,1.000000000000000000e+00,1.000000000000000000e+00,0.000000000000000000e+00,-2.211914062500000000e-01,4.688110351562500000e-01,2.429809570312500000e-01,8.198852539062500000e-01
-1.000000000000000000e+00,-3.000000000000000000e+00,1.000000000000000000e+00,-4.000000000000000000e+00,-3.000000000000000000e+00,-2.000000000000000000e+00,-1.000000000000000000e+00,-3.000000000000000000e+00,-2.205200195312500000e-01,4.686889648437500000e-01,2.430419921875000000e-01,8.201293945312500000e-01
-3.000000000000000000e+00,-2.000000000000000000e+00,-1.400000000000000000e+01,-4.000000000000000000e+00,1.000000000000000000e+00,0.000000000000000000e+00,-2.000000000000000000e+00,-3.000000000000000000e+00,-2.205200195312500000e-01,4.686889648437500000e-01,2.430419921875000000e-01,8.201293945312500000e-01
-1.000000000000000000e+00,-2.000000000000000000e+00,1.600000000000000000e+01,1.200000000000000000e+01,5.000000000000000000e+00,0.000000000000000000e+00,-1.000000000000000000e+00,-2.000000000000000000e+00,-2.205200195312500000e-01,4.686889648437500000e-01,2.430419921875000000e-01,8.201293945312500000e-01
3.000000000000000000e+00,1.200000000000000000e+01,7.000000000000000000e+00,2.000000000000000000e+00,-5.000000000000000000e+00,-2.000000000000000000e+00,-1.000000000000000000e+00,0.000000000000000000e+00,-2.205200195312500000e-01,4.686889648437500000e-01,2.430419921875000000e-01,8.201293945312500000e-01
-3.000000000000000000e+00,-5.000000000000000000e+00,-5.000000000000000000e+00,-2.000000000000000000e+00,2.000000000000000000e+00,-2.000000000000000000e+00,0.000000000000000000e+00,-3.000000000000000000e+00,-2.196044921875000000e-01,4.686889648437500000e-01,2.433471679687500000e-01,8.202514648437500000e-01
2.000000000000000000e+00,3.000000000000000000e+00,-2.000000000000000000e+00,0.000000000000000000e+00,1.000000000000000000e+00,0.000000000000000000e+00,-2.000000000000000000e+00,0.000000000000000000e+00,-2.196044921875000000e-01,4.686889648437500000e-01,2.433471679687500000e-01,8.202514648437500000e-01
-2.000000000000000000e+00,-1.400000000000000000e+01,-6.000000000000000000e+00,-4.000000000000000000e+00,-2.000000000000000000e+00,-2.000000000000000000e+00,0.000000000000000000e+00,-2.000000000000000000e+00,-2.196044921875000000e-01,4.686889648437500000e-01,2.433471679687500000e-01,8.202514648437500000e-01
-2.000000000000000000e+00,-9.000000000000000000e+00,-6.000000000000000000e+00,-1.000000000000000000e+00,-2.000000000000000000e+00,-2.000000000000000000e+00,0.000000000000000000e+00,-1.000000000000000000e+00,-2.196044921875000000e-01,4.686889648437500000e-01,2.433471679687500000e-01,8.202514648437500000e-01
2.000000000000000000e+00,5.000000000000000000e+00,2.000000000000000000e+00,0.000000000000000000e+00,0.000000000000000000e+00,1.000000000000000000e+00,-1.000000000000000000e+00,1.000000000000000000e+00,-2.191162109375000000e-01,4.684448242187500000e-01,2.439575195312500000e-01,8.203735351562500000e-01
-1.000000000000000000e+00,-3.000000000000000000e+00,-6.000000000000000000e+00,-3.000000000000000000e+00,-6.000000000000000000e+00,-3.000000000000000000e+00,-2.000000000000000000e+00,0.000000000000000000e+00,-2.191162109375000000e-01,4.684448242187500000e-01,2.439575195312500000e-01,8.203735351562500000e-01
-1.000000000000000000e+00,2.000000000000000000e+00,4.000000000000000000e+00,1.000000000000000000e+00,0.000000000000000000e+00,0.000000000000000000e+00,0.000000000000000000e+00,-2.000000000000000000e+00,-2.191162109375000000e-01,4.684448242187500000e-01,2.439575195312500000e-01,8.203735351562500000e-01
0.000000000000000000e+00,-1.000000000000000000e+00,1.000000000000000000e+00,0.000000000000000000e+00,-4.000000000000000000e+00,-1.000000000000000000e+00,0.000000000000000000e+00,-2.000000000000000000e+00,-2.191162109375000000e-01,4.684448242187500000e-01,2.439575195312500000e-01,8.203735351562500000e-01
-1.000000000000000000e+00,4.000000000000000000e+00,0.000000000000000000e+00,-2.000000000000000000e+00,-1.000000000000000000e+00,-1.000000000000000000e+00,1.000000000000000000e+00,-2.000000000000000000e+00,-2.188110351562500000e-01,4.681396484375000000e-01,2.445068359375000000e-01,8.204345703125000000e-01
-2.000000000000000000e+00,-7.000000000000000000e+00,-2.000000000000000000e+00,3.000000000000000000e+00,1.000000000000000000e+00,-1.000000000000000000e+00,-1.000000000000000000e+00,0.000000000000000000e+00,-2.188110351562500000e-01,4.681396484375000000e-01,2.445068359375000000e-01,8.204345703125000000e-01
0.000000000000000000e+00,6.000000000000000000e+00,1.000000000000000000e+00,-9.000000000000000000e+00,-4.000000000000000000e+00,-3.000000000000000000e+00,-3.000000000000000000e+00,0.000000000000000000e+00,-2.188110351562500000e-01,4.681396484375000000e-01,2.445068359375000000e-01,8.204345703125000000e-01
-3.000000000000000000e+00,-8.000000000000000000e+00,1.000000000000000000e+00,2.000000000000000000e+00,0.000000000000000000e+00,-1.000000000000000000e+00,-2.000000000000000000e+00,-1.000000000000000000e+00,-2.188110351562500000e-01,4.681396484375000000e-01,2.445068359375000000e-01,8.204345703125000000e-01
-1.000000000000000000e+00,5.000000000000000000e+00,-1.000000000000000000e+00,-1.000000000000000000e+00,-2.000000000000000000e+00,-1.000000000000000000e+00,0.000000000000000000e+00,1.000000000000000000e+00,-2.182006835937500000e-01,4.680175781250000000e-01,2.446899414062500000e-01,8.205566406250000000e-01
-1.000000000000000000e+00,-6.000000000000000000e+00,-1.000000000000000000e+00,3.000000000000000000e+00,2.000000000000000000e+00,-2.000000000000000000e+00,-1.000000000000000000e+00,0.000000000000000000e+00,-2.182006835937500000e-01,4.680175781250000000e-01,2.446899414062500000e-01,8.205566406250000000e-01
-1.000000000000000000e+00,-2.000000000000000000e+00,-5.000000000000000000e+00,-5.000000000000000000e+00,-3.000000000000000000e+00,-2.000000000000000000e+00,0.000000000000000000e+00,-1.000000000000000000e+00,-2.182006835937500000e-01,4.680175781250000000e-01,2.446899414062500000e-01,8.205566406250000000e-01
2.000000000000000000e+00,-2.000000000000000000e+00,2.000000000000000000e+00,3.000000000000000000e+00,-1.000000000000000000e+00,-2.000000000000000000e+00,-2.000000000000000000e+00,-2.000000000000000000e+00,-2.182006835937500000e-01,4.680175781250000000e-01,2.446899414062500000e-01,8.205566406250000000e-01
-2.000000000000000000e+00,1.200000000000000000e+01,1.000000000000000000e+00,-8.000000000000000000e+00,-6.000000000000000000e+00,-3.000000000000000000e+00,-1.000000000000000000e+00,-2.000000000000000000e+00,-2.175292968750000000e-01,4.683227539062500000e-01,2.449340820312500000e-01,8.205566406250000000e-01
-1.000000000000000000e+00,-5.000000000000000000e+00,-3.000000000000000000e+00,2.000000000000000000e+00,5.000000000000000000e+00,1.000000000000000000e+00,0.000000000000000000e+00,-1.000000000000000000e+00,-2.175292968750000000e-01,4.683227539062500000e-01,2.449340820312500000e-01,8.205566406250000000e-01
0.000000000000000000e+00,0.000000000000000000e+00,0.000000000000000000e+00,3.000000000000000000e+00,3.000000000000000000e+00,0.000000000000000000e+00,-2.000000000000000000e+00,-1.000000000000000000e+00,-2.175292968750000000e-01,4.683227539062500000e-01,2.449340820312500000e-01,8.205566406250000000e-01
-1.000000000000000000e+00,-1.000000000000000000e+00,2.000000000000000000e+00,-1.000000000000000000e+00,-1.000000000000000000e+00,-3.000000000000000000e+00,-2.000000000000000000e+00,-2.000000000000000000e+00,-2.175292968750000000e-01,4.683227539062500000e-01,2.449340820312500000e-01,8.205566406250000000e-01
0.000000000000000000e+00,-4.000000000000000000e+00,-2.000000000000000000e+00,-2.000000000000000000e+00,-1.000000000000000000e+00,0.000000000000000000e+00,-1.000000000000000000e+00,-2.000000000000000000e+00,-2.166137695312500000e-01,4.689941406250000000e-01,2.454223632812500000e-01,8.202514648437500000e-01
-2.000000000000000000e+00,-4.000000000000000000e+00,-5.000000000000000000e+00,-9.000000000000000000e+00,-7.000000000000000000e+00,-1.000000000000000000e+00,0.000000000000000000e+00,-1.000000000000000000e+00,-2.166137695312500000e-01,4.689941406250000000e-01,2.454223632812500000e-01,8.202514648437500000e-01
-3.000000000000000000e+00,6.000000000000000000e+00,3.000000000000000000e+00,1.000000000000000000e+00,2.000000000000000000e+00,0.000000000000000000e+00,-2.000000000000000000e+00,-2.000000000000000000e+00,-2.166137695312500000e-01,4.689941406250000000e-01,2.454223632812500000e-01,8.202514648437500000e-01
0.000000000000000000e+00,-5.000000000000000000e+00,-1.000000000000000000e+01,-6.000000000000000000e+00,0.000000000000000000e+00,0.000000000000000000e+00,0.000000000000000000e+00,-2.000000000000000000e+00,-2.166137695312500000e-01,4.689941406250000000e-01,2.454223632812500000e-01,8.202514648437500000e-01
-2.000000000000000000e+00,-1.000000000000000000e+00,6.000000000000000000e+00,6.000000000000000000e+00,0.000000000000000000e+00,-1.000000000000000000e+00,-2.000000000000000000e+00,-1.000000000000000000e+00,-2.164306640625000000e-01,4.695434570312500000e-01,2.460327148437500000e-01,8.198242187500000000e-01
-2.000000000000000000e+00,-1.000000000000000000e+00,-1.000000000000000000e+00,-5.000000000000000000e+00,-7.000000000000000000e+00,-3.000000000000000000e+00,-1.000000000000000000e+00,1.000000000000000000e+00,-2.164306640625000000e-01,4.695434570312500000e-01,2.460327148437500000e-01,8.198242187500000000e-01
-1.000000000000000000e+00,-2.000000000000000000e+00,-4.000000000000000000e+00,2.000000000000000000e+00,4.000000000000000000e+00,1.000000000000000000e+00,1.000000000000000000e+00,-2.000000000000000000e+00,-2.164306640625000000e-01,4.695434570312500000e-01,2.460327148437500000e-01,8.198242187500000000e-01
-2.000000000000000000e+00,1.000000000000000000e+00,4.000000000000000000e+00,3.000000000000000000e+00,0.000000000000000000e+00,-2.000000000000000000e+00,0.000000000000000000e+00,-1.000000000000000000e+00,-2.164306640625000000e-01,4.695434570312500000e-01,2.460327148437500000e-01,8.198242187500000000e-01
-1.000000000000000000e+00,-4.000000000000000000e+00,-1.000000000000000000e+00,-2.000000000000000000e+00,-1.000000000000000000e+00,-1.000000000000000000e+00,-2.000000000000000000e+00,-1.000000000000000000e+00,-2.172851562500000000e-01,4.701538085937500000e-01,2.469482421875000000e-01,8.189697265625000000e-01
-2.000000000000000000e+00,-3.000000000000000000e+00,-3.000000000000000000e+00,2.000000000000000000e+00,2.000000000000000000e+00,2.000000000000000000e+00,-1.000000000000000000e+00,-2.000000000000000000e+00,-2.172851562500000000e-01,4.701538085937500000e-01,2.469482421875000000e-01,8.189697265625000000e-01
-1.000000000000000000e+00,1.000000000000000000e+00,2.000000000000000000e+00,-5.000000000000000000e+00,-9.000000000000000000e+00,-1.000000000000000000e+00,-2.000000000000000000e+00,-1.000000000000000000e+00,-2.172851562500000000e-01,4.701538085937500000e-01,2.469482421875000000e-01,8.189697265625000000e-01
-1.000000000000000000e+00,-4.000000000000000000e+00,-9.000000000000000000e+00,-4.000000000000000000e+00,0.000000000000000000e+00,0.000000000000000000e+00,-1.000000000000000000e+00,0.000000000000000000e+00,-2.172851562500000000e-01,4.701538085937500000e-01,2.469482421875000000e-01,8.189697265625000000e-01
0.000000000000000000e+00,1.000000000000000000e+00,3.000000000000000000e+00,3.000000000000000000e+00,3.000000000000000000e+00,1.000000000000000000e+00,0.000000000000000000e+00,-1.000000000000000000e+00,-2.180175781250000000e-01,4.710693359375000000e-01,2.477416992187500000e-01,8.179931640625000000e-01
-1.000000000000000000e+00,-4.000000000000000000e+00,0.000000000000000000e+00,-2.000000000000000000e+00,-1.000000000000000000e+00,-1.000000000000000000e+00,-3.000000000000000000e+00,0.000000000000000000e+00,-2.180175781250000000e-01,4.710693359375000000e-01,2.477416992187500000e-01,8.179931640625000000e-01
1.000000000000000000e+00,2.000000000000000000e+00,-6.000000000000000000e+00,-1.100000000000000000e+01,-7.000000000000000000e+00,-2.000000000000000000e+00,-1.000000000000000000e+00,-1.000000000000000000e+00,-2.180175781250000000e-01,4.710693359375000000e-01,2.477416992187500000e-01,8.179931640625000000e-01
0.000000000000000000e+00,1.000000000000000000e+00,1.100000000000000000e+01,1.200000000000000000e+01,4.000000000000000000e+00,2.000000000000000000e+00,-1.000000000000000000e+00,-1.000000000000000000e+00,-2.180175781250000000e-01,4.710693359375000000e-01,2.477416992187500000e-01,8.179931640625000000e-01
-1.000000000000000000e+00,-6.000000000000000000e+00,-1.100000000000000000e+01,-1.000000000000000000e+00,1.000000000000000000e+00,0.000000000000000000e+00,-1.000000000000000000e+00,0.000000000000000000e+00,-2.172851562500000000e-01,4.724121093750000000e-01,2.489013671875000000e-01,8.170776367187500000e-01
1.000000000000000000e+00,-2.000000000000000000e+00,-2.000000000000000000e+00,1.000000000000000000e+00,-1.000000000000000000e+00,-1.000000000000000000e+00,2.000000000000000000e+00,-2.000000000000000000e+00,-2.172851562500000000e-01,4.724121093750000000e-01,2.489013671875000000e-01,8.170776367187500000e-01
-1.000000000000000000e+00,2.000000000000000000e+00,3.000000000000000000e+00,-2.000000000000000000e+00,-2.000000000000000000e+00,-1.000000000000000000e+00,-1.000000000000000000e+00,-1.000000000000000000e+00,-2.172851562500000000e-01,4.724121093750000000e-01,2.489013671875000000e-01,8.170776367187500000e-01
-2.000000000000000000e+00,-3.000000000000000000e+00,-4.000000000000000000e+00,-5.000000000000000000e+00,-2.000000000000000000e+00,1.000000000000000000e+00,1.000000000000000000e+00,-1.000000000000000000e+00,-2.172851562500000000e-01,4.724121093750000000e-01,2.489013671875000000e-01,8.170776367187500000e-01
-2.000000000000000000e+00,2.000000000000000000e+00,2.000000000000000000e+00,-1.000000000000000000e+00,-1.000000000000000000e+00,0.000000000000000000e+00,-1.000000000000000000e+00,0.000000000000000000e+00,-2.165527343750000000e-01,4.731445312500000000e-01,2.509765625000000000e-01,8.161621093750000000e-01
-1.000000000000000000e+00,0.000000000000000000e+00,-1.000000000000000000e+00,1.000000000000000000e+00,0.000000000000000000e+00,0.000000000000000000e+00,-2.000000000000000000e+00,0.000000000000000000e+00,-2.165527343750000000e-01,4.731445312500000000e-01,2.509765625000000000e-01,8.161621093750000000e-01
-1.000000000000000000e+00,0.000000000000000000e+00,-1.000000000000000000e+00,-2.000000000000000000e+00,-1.000000000000000000e+00,-1.000000000000000000e+00,0.000000000000000000e+00,-1.000000000000000000e+00,-2.165527343750000000e-01,4.731445312500000000e-01,2.509765625000000000e-01,8.161621093750000000e-01
-2.000000000000000000e+00,-2.000000000000000000e+00,-1.000000000000000000e+00,-5.000000000000000000e+00,-2.000000000000000000e+00,-2.000000000000000000e+00,-1.000000000000000000e+00,-1.000000000000000000e+00,-2.165527343750000000e-01,4.731445312500000000e-01,2.509765625000000000e-01,8.161621093750000000e-01
-1.000000000000000000e+00,0.000000000000000000e+00,2.000000000000000000e+00,2.000000000000000000e+00,-1.000000000000000000e+00,1.000000000000000000e+00,-1.000000000000000000e+00,-2.000000000000000000e+00,-2.161865234375000000e-01,4.733886718750000000e-01,2.530517578125000000e-01,8.154907226562500000e-01
-2.000000000000000000e+00,0.000000000000000000e+00,-1.000000000000000000e+00,-2.000000000000000000e+00,-1.000000000000000000e+00,0.000000000000000000e+00,0.000000000000000000e+00,-2.000000000000000000e+00,-2.161865234375000000e-01,4.733886718750000000e-01,2.530517578125000000e-01,8.154907226562500000e-01
-2.000000000000000000e+00,-6.000000000000000000e+00,-1.000000000000000000e+00,2.000000000000000000e+00,-3.000000000000000000e+00,-3.000000000000000000e+00,-1.000000000000000000e+00,1.000000000000000000e+00,-2.161865234375000000e-01,4.733886718750000000e-01,2.530517578125000000e-01,8.154907226562500000e-01
0.000000000000000000e+00,7.000000000000000000e+00,-1.000000000000000000e+01,-7.000000000000000000e+00,-3.000000000000000000e+00,-2.000000000000000000e+00,-1.000000000000000000e+00,1.000000000000000000e+00,-2.161865234375000000e-01,4.733886718750000000e-01,2.530517578125000000e-01,8.154907226562500000e-01
-1.000000000000000000e+00,-1.000000000000000000e+00,1.100000000000000000e+01,5.000000000000000000e+00,-2.000000000000000000e+00,-2.000000000000000000e+00,1.000000000000000000e+00,1.000000000000000000e+00,-2.153320312500000000e-01,4.735107421875000000e-01,2.541503906250000000e-01,8.153076171875000000e-01
0.000000000000000000e+00,-5.000000000000000000e+00,8.000000000000000000e+00,5.000000000000000000e+00,0.000000000000000000e+00,-1.000000000000000000e+00,-1.000000000000000000e+00,-3.000000000000000000e+00,-2.153320312500000000e-01,4.735107421875000000e-01,2.541503906250000000e-01,8.153076171875000000e-01
0.000000000000000000e+00,1.100000000000000000e+01,-2.000000000000000000e+00,-3.000000000000000000e+00,0.000000000000000000e+00,0.000000000000000000e+00,1.000000000000000000e+00,-2.000000000000000000e+00,-2.153320312500000000e-01,4.735107421875000000e-01,2.541503906250000000e-01,8.153076171875000000e-01
0.000000000000000000e+00,-1.000000000000000000e+00,-2.000000000000000000e+00,-3.000000000000000000e+00,-1.000000000000000000e+00,-1.000000000000000000e+00,-1.000000000000000000e+00,-2.000000000000000000e+00,-2.153320312500000000e-01,4.735107421875000000e-01,2.541503906250000000e-01,8.153076171875000000e-01
0.000000000000000000e+00,0.000000000000000000e+00,-5.000000000000000000e+00,-8.000000000000000000e+00,0.000000000000000000e+00,-2.000000000000000000e+00,-1.000000000000000000e+00,-2.000000000000000000e+00,-2.136230468750000000e-01,4.738769531250000000e-01,2.543945312500000000e-01,8.154907226562500000e-01
-2.000000000000000000e+00,-2.000000000000000000e+00,-4.000000000000000000e+00,-3.000000000000000000e+00,-1.000000000000000000e+00,-1.000000000000000000e+00,0.000000000000000000e+00,-1.000000000000000000e+00,-2.136230468750000000e-01,4.738769531250000000e-01,2.543945312500000000e-01,8.154907226562500000e-01
-1.000000000000000000e+00,-1.000000000000000000e+00,1.000000000000000000e+00,2.000000000000000000e+00,-1.000000000000000000e+00,0.000000000000000000e+00,-1.000000000000000000e+00,-1.000000000000000000e+00,-2.136230468750000000e-01,4.738769531250000000e-01,2.543945312500000000e-01,8.154907226562500000e-01
0.000000000000000000e+00,1.000000000000000000e+00,5.000000000000000000e+00,-1.000000000000000000e+00,-1.000000000000000000e+00,-2.000000000000000000e+00,-1.000000000000000000e+00,-1.000000000000000000e+00,-2.136230468750000000e-01,4.738769531250000000e-01,2.543945312500000000e-01,8.154907226562500000e-01
0.000000000000000000e+00,-4.000000000000000000e+00,-7.000000000000000000e+00,1.000000000000000000e+01,7.000000000000000000e+00,-1.000000000000000000e+00,0.000000000000000000e+00,-1.000000000000000000e+00,-2.117919921875000000e-01,4.741821289062500000e-01,2.551269531250000000e-01,8.155517578125000000e-01
-1.000000000000000000e+00,-4.000000000000000000e+00,-4.000000000000000000e+00,-6.000000000000000000e+00,-2.000000000000000000e+00,0.000000000000000000e+00,-2.000000000000000000e+00,-1.000000000000000000e+00,-2.117919921875000000e-01,4.741821289062500000e-01,2.551269531250000000e-01,8.155517578125000000e-01
2.000000000000000000e+00,-3.000000000000000000e+00,1.000000000000000000e+00,4.000000000000000000e+00,-1.000000000000000000e+00,-2.000000000000000000e+00,0.000000000000000000e+00,-1.000000000000000000e+00,-2.117919921875000000e-01,4.741821289062500000e-01,2.551269531250000000e-01,8.155517578125000000e-01
2.000000000000000000e+00,0.000000000000000000e+00,2.000000000000000000e+00,-2.000000000000000000e+00,-1.000000000000000000e+00,1.000000000000000000e+00,-1.000000000000000000e+00,-1.000000000000000000e+00,-2.117919921875000000e-01,4.741821289062500000e-01,2.551269531250000000e-01,8.155517578125000000e-01
-2.000000000000000000e+00,-4.000000000000000000e+00,-1.000000000000000000e+00,-4.000000000000000000e+00,-6.000000000000000000e+00,-2.000000000000000000e+00,-1.000000000000000000e+00,-2.000000000000000000e+00,-2.106933593750000000e-01,4.743041992187500000e-01,2.560424804687500000e-01,8.154907226562500000e-01
0.000000000000000000e+00,3.000000000000000000e+00,-6.000000000000000000e+00,-8.000000000000000000e+00,-1.000000000000000000e+00,0.000000000000000000e+00,0.000000000000000000e+00,-2.000000000000000000e+00,-2.106933593750000000e-01,4.743041992187500000e-01,2.560424804687500000e-01,8.154907226562500000e-01
-3.000000000000000000e+00,-3.000000000000000000e+00,-4.000000000000000000e+00,1.000000000000000000e+00,-1.000000000000000000e+00,-2.000000000000000000e+00,1.000000000000000000e+00,-1.000000000000000000e+00,-2.106933593750000000e-01,4.743041992187500000e-01,2.560424804687500000e-01,8.154907226562500000e-01
0.000000000000000000e+00,-1.000000000000000000e+00,3.000000000000000000e+00,1.000000000000000000e+00,-6.000000000000000000e+00,-2.000000000000000000e+00,-2.000000000000000000e+00,0.000000000000000000e+00,-2.106933593750000000e-01,4.743041992187500000e-01,2.560424804687500000e-01,8.154907226562500000e-01
2.000000000000000000e+00,2.000000000000000000e+00,-1.100000000000000000e+01,-7.000000000000000000e+00,4.000000000000000000e+00,1.000000000000000000e+00,-1.000000000000000000e+00,-1.000000000000000000e+00,-2.106933593750000000e-01,4.741821289062500000e-01,2.569580078125000000e-01,8.153076171875000000e-01
-4.000000000000000000e+00,-5.000000000000000000e+00,-7.000000000000000000e+00,2.000000000000000000e+00,-1.000000000000000000e+00,-1.000000000000000000e+00,-1.000000000000000000e+00,0.000000000000000000e+00,-2.106933593750000000e-01,4.741821289062500000e-01,2.569580078125000000e-01,8.153076171875000000e-01
-1.000000000000000000e+00,3.000000000000000000e+00,5.000000000000000000e+00,0.000000000000000000e+00,1.000000000000000000e+00,-1.000000000000000000e+00,-2.000000000000000000e+00,-3.000000000000000000e+00,-2.106933593750000000e-01,4.741821289062500000e-01,2.569580078125000000e-01,8.153076171875000000e-01
-1.000000000000000000e+00,-6.000000000000000000e+00,-1.000000000000000000e+00,4.000000000000000000e+00,1.000000000000000000e+00,-2.000000000000000000e+00,-2.000000000000000000e+00,-2.000000000000000000e+00,-2.106933593750000000e-01,4.741821289062500000e-01,2.569580078125000000e-01,8.153076171875000000e-01
2.000000000000000000e+00,1.000000000000000000e+01,-1.000000000000000000e+00,-4.000000000000000000e+00,-4.000000000000000000e+00,-1.000000000000000000e+00,-2.000000000000000000e+00,-1.000000000000000000e+00,-2.108764648437500000e-01,4.739379882812500000e-01,2.573242187500000000e-01,8.152465820312500000e-01
-1.000000000000000000e+00,-1.100000000000000000e+01,-4.000000000000000000e+00,-2.000000000000000000e+00,-3.000000000000000000e+00,-2.000000000000000000e+00,-1.000000000000000000e+00,1.000000000000000000e+00,-2.108764648437500000e-01,4.739379882812500000e-01,2.573242187500000000e-01,8.152465820312500000e-01
-1.000000000000000000e+00,-7.000000000000000000e+00,-2.000000000000000000e+00,-3.000000000000000000e+00,-1.000000000000000000e+00,-2.000000000000000000e+00,-2.000000000000000000e+00,-1.000000000000000000e+00,-2.108764648437500000e-01,4.739379882812500000e-01,2.573242187500000000e-01,8.152465820312500000e-01
-2.000000000000000000e+00,3.000000000000000000e+00,2.000000000000000000e+00,-4.000000000000000000e+00,-2.000000000000000000e+00,-3.000000000000000000e+00,-1.000000000000000000e+00,0.000000000000000000e+00,-2.108764648437500000e-01,4.739379882812500000e-01,2.573242187500000000e-01,8.152465820312500000e-01
-2.000000000000000000e+00,-8.000000000000000000e+00,-1.000000000000000000e+00,3.000000000000000000e+00,-1.000000000000000000e+00,1.000000000000000000e+00,0.000000000000000000e+00,-1.000000000000000000e+00,-2.105102539062500000e-01,4.741210937500000000e-01,2.574462890625000000e-01,8.151855468750000000e-01
3.000000000000000000e+00,3.000000000000000000e+00,3.000000000000000000e+00,-2.000000000000000000e+00,-2.000000000000000000e+00,-1.000000000000000000e+00,-1.000000000000000000e+00,-2.000000000000000000e+00,-2.105102539062500000e-01,4.741210937500000000e-01,2.574462890625000000e-01,8.151855468750000000e-01
-3.000000000000000000e+00,-1.100000000000000000e+01,-1.400000000000000000e+01,-2.000000000000000000e+00,-4.000000000000000000e+00,-1.000000000000000000e+00,-2.000000000000000000e+00,-1.000000000000000000e+00,-2.105102539062500000e-01,4.741210937500000000e-01,2.574462890625000000e-01,8.151855468750000000e-01
-1.000000000000000000e+00,0.000000000000000000e+00,4.000000000000000000e+00,6.000000000000000000e+00,4.000000000000000000e+00,-1.000000000000000000e+00,-1.000000000000000000e+00,-2.000000000000000000e+00,-2.105102539062500000e-01,4.741210937500000000e-01,2.574462890625000000e-01,8.151855468750000000e-01
-1.000000000000000000e+00,1.000000000000000000e+00,0.000000000000000000e+00,-4.000000000000000000e+00,-5.000000000000000000e+00,-1.000000000000000000e+00,0.000000000000000000e+00,-1.000000000000000000e+00,-2.098999023437500000e-01,4.744262695312500000e-01,2.576293945312500000e-01,8.151245117187500000e-01
1.000000000000000000e+00,-1.000000000000000000e+00,-3.000000000000000000e+00,-6.000000000000000000e+00,-4.000000000000000000e+00,-2.000000000000000000e+00,-1.000000000000000000e+00,0.000000000000000000e+00,-2.098999023437500000e-01,4.744262695312500000e-01,2.576293945312500000e-01,8.151245117187500000e-01
-1.000000000000000000e+00,1.100000000000000000e+01,4.000000000000000000e+00,4.000000000000000000e+00,1.000000000000000000e+00,-1.000000000000000000e+00,-1.000000000000000000e+00,-3.000000000000000000e+00,-2.098999023437500000e-01,4.744262695312500000e-01,2.576293945312500000e-01,8.151245117187500000e-01
-3.000000000000000000e+00,-1.600000000000000000e+01,-1.200000000000000000e+01,-6.000000000000000000e+00,-3.000000000000000000e+00,-1.000000000000000000e+00,-2.000000000000000000e+00,-2.000000000000000000e+00,-2.098999023437500000e-01,4.744262695312500000e-01,2.576293945312500000e-01,8.151245117187500000e-01
1.000000000000000000e+00,-4.000000000000000000e+00,1.000000000000000000e+00,-1.000000000000000000e+00,-1.000000000000000000e+00,-2.000000000000000000e+00,-1.000000000000000000e+00,-1.000000000000000000e+00,-2.098388671875000000e-01,4.746704101562500000e-01,2.579956054687500000e-01,8.148803710937500000e-01
0.000000000000000000e+00,-6.000000000000000000e+00,0.000000000000000000e+00,1.000000000000000000e+00,0.000000000000000000e+00,-1.000000000000000000e+00,-2.000000000000000000e+00,-2.000000000000000000e+00,-2.098388671875000000e-01,4.746704101562500000e-01,2.579956054687500000e-01,8.148803710937500000e-01
0.000000000000000000e+00,1.400000000000000000e+01,-2.000000000000000000e+00,-3.000000000000000000e+00,0.000000000000000000e+00,0.000000000000000000e+00,0.000000000000000000e+00,0.000000000000000000e+00,-2.098388671875000000e-01,4.746704101562500000e-01,2.579956054687500000e-01,8.148803710937500000e-01
0.000000000000000000e+00,0.000000000000000000e+00,3.000000000000000000e+00,0.000000000000000000e+00,-1.000000000000000000e+00,0.000000000000000000e+00,0.000000000000000000e+00,1.000000000000000000e+00,-2.098388671875000000e-01,4.746704101562500000e-01,2.579956054687500000e-01,8.148803710937500000e-01
-1.000000000000000000e+00,-7.000000000000000000e+00,-4.000000000000000000e+00,-6.000000000000000000e+00,-1.000000000000000000e+00,-2.000000000000000000e+00,0.000000000000000000e+00,0.000000000000000000e+00,-2.096557617187500000e-01,4.750976562500000000e-01,2.583618164062500000e-01,8.145141601562500000e-01
0.000000000000000000e+00,-3.000000000000000000e+00,7.000000000000000000e+00,8.000000000000000000e+00,2.000000000000000000e+00,0.000000000000000000e+00,1.000000000000000000e+00,-1.000000000000000000e+00,-2.096557617187500000e-01,4.750976562500000000e-01,2.583618164062500000e-01,8.145141601562500000e-01
-1.000000000000000000e+00,2.000000000000000000e+00,-1.000000000000000000e+00,-7.000000000000000000e+00,0.000000000000000000e+00,0.000000000000000000e+00,-1.000000000000000000e+00,-1.000000000000000000e+00,-2.096557617187500000e-01,4.750976562500000000e-01,2.583618164062500000e-01,8.145141601562500000e-01
-3.000000000000000000e+00,-5.000000000000000000e+00,1.000000000000000000e+00,5.000000000000000000e+00,0.000000000000000000e+00,0.000000000000000000e+00,-1.000000000000000000e+00,-1.000000000000000000e+00,-2.096557617187500000e-01,4.750976562500000000e-01,2.583618164062500000e-01,8.145141601562500000e-01
0.000000000000000000e+00,2.000000000000000000e+00,-1.000000000000000000e+00,-5.000000000000000000e+00,-5.000000000000000000e+00,1.000000000000000000e+00,0.000000000000000000e+00,-2.000000000000000000e+00,-2.095336914062500000e-01,4.755859375000000000e-01,2.592773437500000000e-01,8.140258789062500000e-01
0.000000000000000000e+00,3.000000000000000000e+00,2.000000000000000000e+00,-4.000000000000000000e+00,-1.000000000000000000e+00,1.000000000000000000e+00,1.000000000000000000e+00,-1.000000000000000000e+00,-2.095336914062500000e-01,4.755859375000000000e-01,2.592773437500000000e-01,8.140258789062500000e-01
-1.000000000000000000e+00,-9.000000000000000000e+00,-7.000000000000000000e+00,3.000000000000000000e+00,1.000000000000000000e+00,0.000000000000000000e+00,-2.000000000000000000e+00,1.000000000000000000e+00,-2.095336914062500000e-01,4.755859375000000000e-01,2.592773437500000000e-01,8.140258789062500000e-01
0.000000000000000000e+00,5.000000000000000000e+00,-3.000000000000000000e+00,-5.000000000000000000e+00,-3.000000000000000000e+00,0.000000000000000000e+00,-2.000000000000000000e+00,-2.000000000000000000e+00,-2.095336914062500000e-01,4.755859375000000000e-01,2.592773437500000000e-01,8.140258789062500000e-01
-2.000000000000000000e+00,4.000000000000000000e+00,2.000000000000000000e+00,0.000000000000000000e+00,0.000000000000000000e+00,-2.000000000000000000e+00,-2.000000000000000000e+00,0.000000000000000000e+00,-2.097778320312500000e-01,4.757080078125000000e-01,2.603759765625000000e-01,8.135375976562500000e-01
-3.000000000000000000e+00,-5.000000000000000000e+00,-5.000000000000000000e+00,-3.000000000000000000e+00,-4.000000000000000000e+00,-2.000000000000000000e+00,-2.000000000000000000e+00,-1.000000000000000000e+00,-2.097778320312500000e-01,4.757080078125000000e-01,2.603759765625000000e-01,8.135375976562500000e-01
1.000000000000000000e+00,-3.000000000000000000e+00,3.000000000000000000e+00,3.000000000000000000e+00,3.000000000000000000e+00,-1.000000000000000000e+00,-1.000000000000000000e+00,-1.000000000000000000e+00,-2.097778320312500000e-01,4.757080078125000000e-01,2.603759765625000000e-01,8.135375976562500000e-01
-1.000000000000000000e+00,-3.000000000000000000e+00,-3.000000000000000000e+00,-3.000000000000000000e+00,-1.000000000000000000e+00,0.000000000000000000e+00,1.000000000000000000e+00,0.000000000000000000e+00,-2.097778320312500000e-01,4.757080078125000000e-01,2.603759765625000000e-01,8.135375976562500000e-01
-1.000000000000000000e+00,-3.000000000000000000e+00,0.000000000000000000e+00,2.000000000000000000e+00,-3.000000000000000000e+00,-3.000000000000000000e+00,-2.000000000000000000e+00,0.000000000000000000e+00,-2.100830078125000000e-01,4.758911132812500000e-01,2.610473632812500000e-01,8.131103515625000000e-01
0.000000000000000000e+00,1.800000000000000000e+01,-8.000000000000000000e+00,-1.000000000000000000e+01,-3.000000000000000000e+00,-1.000000000000000000e+00,0.000000000000000000e+00,0.000000000000000000e+00,-2.100830078125000000e-01,4.758911132812500000e-01,2.610473632812500000e-01,8.131103515625000000e-01
-2.000000000000000000e+00,-4.000000000000000000e+00,8.000000000000000000e+00,7.000000000000000000e+00,-1.000000000000000000e+00,0.000000000000000000e+00,0.000000000000000000e+00,0.000000000000000000e+00,-2.100830078125000000e-01,4.758911132812500000e-01,2.610473632812500000e-01,8.131103515625000000e-01
0.000000000000000000e+00,4.000000000000000000e+00,-2.000000000000000000e+00,1.000000000000000000e+00,2.000000000000000000e+00,0.000000000000000000e+00,1.000000000000000000e+00,-3.000000000000000000e+00,-2.100830078125000000e-01,4.758911132812500000e-01,2.610473632812500000e-01,8.131103515625000000e-01
-1.000000000000000000e+00,-1.000000000000000000e+00,-1.000000000000000000e+00,7.000000000000000000e+00,2.000000000000000000e+00,0.000000000000000000e+00,0.000000000000000000e+00,-1.000000000000000000e+00,-2.100219726562500000e-01,4.761352539062500000e-01,2.611083984375000000e-01,8.129882812500000000e-01
-3.000000000000000000e+00,-8.000000000000000000e+00,-3.000000000000000000e+00,-3.000000000000000000e+00,-2.000000000000000000e+00,-2.000000000000000000e+00,-3.000000000000000000e+00,0.000000000000000000e+00,-2.100219726562500000e-01,4.761352539062500000e-01,2.611083984375000000e-01,8.129882812500000000e-01
0.000000000000000000e+00,-4.000000000000000000e+00,-7.000000000000000000e+00,-8.000000000000000000e+00,-3.000000000000000000e+00,-1.000000000000000000e+00,0.000000000000000000e+00,-1.000000000000000000e+00,-2.100219726562500000e-01,4.761352539062500000e-01,2.611083984375000000e-01,8.129882812500000000e-01
-1.000000000000000000e+00,5.000000000000000000e+00,2.000000000000000000e+00,4.000000000000000000e+00,-2.000000000000000000e+00,-1.000000000000000000e+00,0.000000000000000000e+00,-1.000000000000000000e+00,-2.100219726562500000e-01,4.761352539062500000e-01,2.611083984375000000e-01,8.129882812500000000e-01
-2.000000000000000000e+00,-2.000000000000000000e+00,-3.000000000000000000e+00,-5.000000000000000000e+00,-2.000000000000000000e+00,-1.000000000000000000e+00,-1.000000000000000000e+00,0.000000000000000000e+00,-2.098999023437500000e-01,4.763183593750000000e-01,2.609863281250000000e-01,8.129272460937500000e-01
0.000000000000000000e+00,-1.100000000000000000e+01,-5.000000000000000000e+00,3.000000000000000000e+00,3.000000000000000000e+00,2.000000000000000000e+00,0.000000000000000000e+00,0.000000000000000000e+00,-2.098999023437500000e-01,4.763183593750000000e-01,2.609863281250000000e-01,8.129272460937500000e-01
0.000000000000000000e+00,2.000000000000000000e+00,4.000000000000000000e+00,-7.000000000000000000e+00,-5.000000000000000000e+00,-3.000000000000000000e+00,-1.000000000000000000e+00,-1.000000000000000000e+00,-2.098999023437500000e-01,4.763183593750000000e-01,2.609863281250000000e-01,8.129272460937500000e-01
0.000000000000000000e+00,-4.000000000000000000e+00,5.000000000000000000e+00,0.000000000000000000e+00,0.000000000000000000e+00,-3.000000000000000000e+00,-2.000000000000000000e+00,-1.000000000000000000e+00,-2.098999023437500000e-01,4.763183593750000000e-01,2.609863281250000000e-01,8.129272460937500000e-01
0.000000000000000000e+00,-3.000000000000000000e+00,-1.100000000000000000e+01,-1.000000000000000000e+00,-3.000000000000000000e+00,0.000000000000000000e+00,-1.000000000000000000e+00,0.000000000000000000e+00,-2.098999023437500000e-01,4.763183593750000000e-01,2.609863281250000000e-01,8.129272460937500000e-01
0.000000000000000000e+00,3.000000000000000000e+00,-3.000000000000000000e+00,-3.000000000000000000e+00,-1.000000000000000000e+00,-2.000000000000000000e+00,-3.000000000000000000e+00,-2.000000000000000000e+00,-2.098999023437500000e-01,4.763183593750000000e-01,2.609863281250000000e-01,8.129272460937500000e-01
-3.000000000000000000e+00,0.000000000000000000e+00,4.000000000000000000e+00,4.000000000000000000e+00,0.000000000000000000e+00,1.000000000000000000e+00,0.000000000000000000e+00,-1.000000000000000000e+00,-2.098999023437500000e-01,4.763183593750000000e-01,2.609863281250000000e-01,8.129272460937500000e-01
-1.000000000000000000e+00,-1.000000000000000000e+00,-5.000000000000000000e+00,-3.000000000000000000e+00,1.000000000000000000e+00,-3.000000000000000000e+00,0.000000000000000000e+00,1.000000000000000000e+00,-2.098999023437500000e-01,4.763183593750000000e-01,2.609863281250000000e-01,8.129272460937500000e-01
1.000000000000000000e+00,-1.000000000000000000e+00,5.000000000000000000e+00,2.000000000000000000e+00,-3.000000000000000000e+00,-2.000000000000000000e+00,0.000000000000000000e+00,0.000000000000000000e+00,-2.098999023437500000e-01,4.760742187500000000e-01,2.612915039062500000e-01,8.129882812500000000e-01
0.000000000000000000e+00,-1.000000000000000000e+00,-1.000000000000000000e+00,-3.000000000000000000e+00,-2.000000000000000000e+00,-1.000000000000000000e+00,-2.000000000000000000e+00,0.000000000000000000e+00,-2.098999023437500000e-01,4.760742187500000000e-01,2.612915039062500000e-01,8.129882812500000000e-01
-1.000000000000000000e+00,2.000000000000000000e+00,-4.000000000000000000e+00,-6.000000000000000000e+00,-3.000000000000000000e+00,-1.000000000000000000e+00,0.000000000000000000e+00,0.000000000000000000e+00,-2.098999023437500000e-01,4.760742187500000000e-01,2.612915039062500000e-01,8.129882812500000000e-01
-2.000000000000000000e+00,-3.000000000000000000e+00,-3.000000000000000000e+00,-5.000000000000000000e+00,-2.000000000000000000e+00,-1.000000000000000000e+00,-2.000000000000000000e+00,0.000000000000000000e+00,-2.098999023437500000e-01,4.760742187500000000e-01,2.612915039062500000e-01,8.129882812500000000e-01
-2.000000000000000000e+00,4.000000000000000000e+00,0.000000000000000000e+00,-2.000000000000000000e+00,0.000000000000000000e+00,-1.000000000000000000e+00,-1.000000000000000000e+00,0.000000000000000000e+00,-2.103881835937500000e-01,4.756469726562500000e-01,2.619018554687500000e-01,8.129272460937500000e-01
-1.000000000000000000e+00,0.000000000000000000e+00,2.000000000000000000e+00,4.000000000000000000e+00,2.000000000000000000e+00,-3.000000000000000000e+00,0.000000000000000000e+00,-2.000000000000000000e+00,-2.103881835937500000e-01,4.756469726562500000e-01,2.619018554687500000e-01,8.129272460937500000e-01
-2.000000000000000000e+00,-2.000000000000000000e+00,-2.000000000000000000e+00,-6.000000000000000000e+00,-2.000000000000000000e+00,-1.000000000000000000e+00,-4.000000000000000000e+00,-1.000000000000000000e+00,-2.103881835937500000e-01,4.756469726562500000e-01,2.619018554687500000e-01,8.129272460937500000e-01
1.000000000000000000e+00,-1.000000000000000000e+00,-3.000000000000000000e+00,-3.000000000000000000e+00,-3.000000000000000000e+00,2.000000000000000000e+00,-2.000000000000000000e+00,-1.000000000000000000e+00,-2.103881835937500000e-01,4.756469726562500000e-01,2.619018554687500000e-01,8.129272460937500000e-01
-1.000000000000000000e+00,-6.000000000000000000e+00,-5.000000000000000000e+00,-7.000000000000000000e+00,-5.000000000000000000e+00,-2.000000000000000000e+00,0.000000000000000000e+00,-1.000000000000000000e+00,-2.110595703125000000e-01,4.752807617187500000e-01,2.624511718750000000e-01,8.128051757812500000e-01
-1.000000000000000000e+00,6.000000000000000000e+00,-2.000000000000000000e+00,-3.000000000000000000e+00,-3.000000000000000000e+00,-5.000000000000000000e+00,0.000000000000000000e+00,-3.000000000000000000e+00,-2.110595703125000000e-01,4.752807617187500000e-01,2.624511718750000000e-01,8.128051757812500000e-01
0.000000000000000000e+00,-3.000000000000000000e+00,7.000000000000000000e+00,1.000000000000000000e+01,3.000000000000000000e+00,-2.000000000000000000e+00,1.000000000000000000e+00,1.000000000000000000e+00,-2.110595703125000000e-01,4.752807617187500000e-01,2.624511718750000000e-01,8.128051757812500000e-01
1.000000000000000000e+00,3.000000000000000000e+00,-4.000000000000000000e+00,-3.000000000000000000e+00,-3.000000000000000000e+00,-1.000000000000000000e+00,0.000000000000000000e+00,-1.000000000000000000e+00,-2.110595703125000000e-01,4.752807617187500000e-01,2.624511718750000000e-01,8.128051757812500000e-01
-3.000000000000000000e+00,-8.000000000000000000e+00,3.000000000000000000e+00,9.000000000000000000e+00,6.000000000000000000e+00,0.000000000000000000e+00,-1.000000000000000000e+00,-1.000000000000000000e+00,-2.110595703125000000e-01,4.752197265625000000e-01,2.623901367187500000e-01,8.128051757812500000e-01
1.000000000000000000e+00,1.200000000000000000e+01,4.000000000000000000e+00,-1.000000000000000000e+00,-2.000000000000000000e+00,1.000000000000000000e+00,-1.000000000000000000e+00,0.000000000000000000e+00,-2.110595703125000000e-01,4.752197265625000000e-01,2.623901367187500000e-01,8.128051757812500000e-01
-2.000000000000000000e+00,-7.000000000000000000e+00,-7.000000000000000000e+00,-5.000000000000000000e+00,-4.000000000000000000e+00,0.000000000000000000e+00,-1.000000000000000000e+00,-1.000000000000000000e+00,-2.110595703125000000e-01,4.752197265625000000e-01,2.623901367187500000e-01,8.128051757812500000e-01
-1.000000000000000000e+00,-8.000000000000000000e+00,-1.000000000000000000e+01,-6.000000000000000000e+00,-3.000000000000000000e+00,-3.000000000000000000e+00,-3.000000000000000000e+00,-2.000000000000000000e+00,-2.110595703125000000e-01,4.752197265625000000e-01,2.623901367187500000e-01,8.128051757812500000e-01
-1.000000000000000000e+00,2.000000000000000000e+00,8.000000000000000000e+00,-6.000000000000000000e+00,-3.000000000000000000e+00,-2.000000000000000000e+00,-1.000000000000000000e+00,-2.000000000000000000e+00,-2.108154296875000000e-01,4.752197265625000000e-01,2.622680664062500000e-01,8.129272460937500000e-01
-1.000000000000000000e+00,-8.000000000000000000e+00,-5.000000000000000000e+00,3.000000000000000000e+00,3.000000000000000000e+00,0.000000000000000000e+00,-2.000000000000000000e+00,1.000000000000000000e+00,-2.108154296875000000e-01,4.752197265625000000e-01,2.622680664062500000e-01,8.129272460937500000e-01
3.000000000000000000e+00,7.000000000000000000e+00,7.000000000000000000e+00,-1.000000000000000000e+00,-3.000000000000000000e+00,-3.000000000000000000e+00,-2.000000000000000000e+00,0.000000000000000000e+00,-2.108154296875000000e-01,4.752197265625000000e-01,2.622680664062500000e-01,8.129272460937500000e-01
1.000000000000000000e+00,1.000000000000000000e+00,1.000000000000000000e+00,2.000000000000000000e+00,8.000000000000000000e+00,2.000000000000000000e+00,2.000000000000000000e+00,-1.000000000000000000e+00,-2.108154296875000000e-01,4.752197265625000000e-01,2.622680664062500000e-01,8.129272460937500000e-01
0.000000000000000000e+00,1.000000000000000000e+00,-1.000000000000000000e+00,1.000000000000000000e+00,0.000000000000000000e+00,-2.000000000000000000e+00,-1.000000000000000000e+00,0.000000000000000000e+00,-2.107543945312500000e-01,4.750366210937500000e-01,2.625122070312500000e-01,8.129882812500000000e-01
0.000000000000000000e+00,-3.000000000000000000e+00,1.000000000000000000e+00,-1.000000000000000000e+00,-1.000000000000000000e+00,-1.000000000000000000e+00,1.000000000000000000e+00,0.000000000000000000e+00,-2.107543945312500000e-01,4.750366210937500000e-01,2.625122070312500000e-01,8.129882812500000000e-01
-1.000000000000000000e+00,0.000000000000000000e+00,-4.000000000000000000e+00,-3.000000000000000000e+00,-2.000000000000000000e+00,0.000000000000000000e+00,-3.000000000000000000e+00,-1.000000000000000000e+00,-2.107543945312500000e-01,4.750366210937500000e-01,2.625122070312500000e-01,8.129882812500000000e-01
-2.000000000000000000e+00,-1.000000000000000000e+00,-1.000000000000000000e+00,-3.000000000000000000e+00,-4.000000000000000000e+00,-1.000000000000000000e+00,-2.000000000000000000e+00,-1.000000000000000000e+00,-2.107543945312500000e-01,4.750366210937500000e-01,2.625122070312500000e-01,8.129882812500000000e-01
1.000000000000000000e+00,2.000000000000000000e+00,-1.000000000000000000e+00,-1.000000000000000000e+00,-1.000000000000000000e+00,0.000000000000000000e+00,0.000000000000000000e+00,-1.000000000000000000e+00,-2.109985351562500000e-01,4.747924804687500000e-01,2.629394531250000000e-01,8.129272460937500000e-01
-2.000000000000000000e+00,-7.000000000000000000e+00,3.000000000000000000e+00,2.000000000000000000e+00,-1.000000000000000000e+00,-2.000000000000000000e+00,0.000000000000000000e+00,-2.000000000000000000e+00,-2.109985351562500000e-01,4.747924804687500000e-01,2.629394531250000000e-01,8.129272460937500000e-01
-2.000000000000000000e+00,-8.000000000000000000e+00,-1.100000000000000000e+01,-6.000000000000000000e+00,-1.000000000000000000e+00,-1.000000000000000000e+00,-1.000000000000000000e+00,0.000000000000000000e+00,-2.109985351562500000e-01,4.747924804687500000e-01,2.629394531250000000e-01,8.129272460937500000e-01
0.000000000000000000e+00,1.700000000000000000e+01,1.000000000000000000e+01,2.000000000000000000e+00,-2.000000000000000000e+00,-1.000000000000000000e+00,-1.000000000000000000e+00,-1.000000000000000000e+00,-2.109985351562500000e-01,4.747924804687500000e-01,2.629394531250000000e-01,8.129272460937500000e-01
-3.000000000000000000e+00,-1.600000000000000000e+01,-7.000000000000000000e+00,5.000000000000000000e+00,4.000000000000000000e+00,1.000000000000000000e+00,-1.000000000000000000e+00,-1.000000000000000000e+00,-2.117919921875000000e-01,4.743652343750000000e-01,2.634887695312500000e-01,8.128051757812500000e-01
-1.000000000000000000e+00,2.000000000000000000e+00,-1.000000000000000000e+00,-1.000000000000000000e+00,-4.000000000000000000e+00,-3.000000000000000000e+00,-1.000000000000000000e+00,-2.000000000000000000e+00,-2.117919921875000000e-01,4.743652343750000000e-01,2.634887695312500000e-01,8.128051757812500000e-01
-1.000000000000000000e+00,-5.000000000000000000e+00,-9.000000000000000000e+00,-2.000000000000000000e+00,5.000000000000000000e+00,0.000000000000000000e+00,2.000000000000000000e+00,-2.000000000000000000e+00,-2.117919921875000000e-01,4.743652343750000000e-01,2.634887695312500000e-01,8.128051757812500000e-01
-3.000000000000000000e+00,-2.000000000000000000e+00,6.000000000000000000e+00,-1.000000000000000000e+00,-2.000000000000000000e+00,-2.000000000000000000e+00,-2.000000000000000000e+00,-2.000000000000000000e+00,-2.117919921875000000e-01,4.743652343750000000e-01,2.634887695312500000e-01,8.128051757812500000e-01
1.000000000000000000e+00,8.000000000000000000e+00,3.000000000000000000e+00,-1.100000000000000000e+01,-7.000000000000000000e+00,-4.000000000000000000e+00,-3.000000000000000000e+00,0.000000000000000000e+00,-2.125854492187500000e-01,4.739379882812500000e-01,2.639160156250000000e-01,8.126831054687500000e-01
-1.000000000000000000e+00,-1.000000000000000000e+00,0.000000000000000000e+00,7.000000000000000000e+00,2.000000000000000000e+00,-1.000000000000000000e+00,-1.000000000000000000e+00,-1.000000000000000000e+00,-2.125854492187500000e-01,4.739379882812500000e-01,2.639160156250000000e-01,8.126831054687500000e-01
0.000000000000000000e+00,-4.000000000000000000e+00,-3.000000000000000000e+00,2.000000000000000000e+00,2.000000000000000000e+00,-1.000000000000000000e+00,1.000000000000000000e+00,0.000000000000000000e+00,-2.125854492187500000e-01,4.739379882812500000e-01,2.639160156250000000e-01,8.126831054687500000e-01
0.000000000000000000e+00,2.000000000000000000e+00,-4.000000000000000000e+00,-5.000000000000000000e+00,-2.000000000000000000e+00,2.000000000000000000e+00,1.000000000000000000e+00,0.000000000000000000e+00,-2.125854492187500000e-01,4.739379882812500000e-01,2.639160156250000000e-01,8.126831054687500000e-01
-2.000000000000000000e+00,-5.000000000000000000e+00,-3.000000000000000000e+00,3.000000000000000000e+00,3.000000000000000000e+00,1.000000000000000000e+00,1.000000000000000000e+00,-2.000000000000000000e+00,-2.129516601562500000e-01,4.733276367187500000e-01,2.639770507812500000e-01,8.129272460937500000e-01
-3.000000000000000000e+00,-3.000000000000000000e+00,-1.000000000000000000e+00,-4.000000000000000000e+00,-4.000000000000000000e+00,-1.000000000000000000e+00,0.000000000000000000e+00,-2.000000000000000000e+00,-2.129516601562500000e-01,4.733276367187500000e-01,2.639770507812500000e-01,8.129272460937500000e-01
1.000000000000000000e+00,1.000000000000000000e+00,0.000000000000000000e+00,-2.000000000000000000e+00,-3.000000000000000000e+00,-1.000000000000000000e+00,-1.000000000000000000e+00,0.000000000000000000e+00,-2.129516601562500000e-01,4.733276367187500000e-01,2.639770507812500000e-01,8.129272460937500000e-01
0.000000000000000000e+00,-6.000000000000000000e+00,-4.000000000000000000e+00,-1.000000000000000000e+00,-4.000000000000000000e+00,-1.000000000000000000e+00,-2.000000000000000000e+00,-2.000000000000000000e+00,-2.129516601562500000e-01,4.733276367187500000e-01,2.639770507812500000e-01,8.129272460937500000e-01
0.000000000000000000e+00,4.000000000000000000e+00,0.000000000000000000e+00,-3.000000000000000000e+00,-2.000000000000000000e+00,1.000000000000000000e+00,-1.000000000000000000e+00,-1.000000000000000000e+00,-2.127685546875000000e-01,4.725952148437500000e-01,2.644042968750000000e-01,8.132324218750000000e-01
-1.000000000000000000e+00,5.000000000000000000e+00,2.000000000000000000e+00,-2.000000000000000000e+00,-1.000000000000000000e+00,-1.000000000000000000e+00,-1.000000000000000000e+00,1.000000000000000000e+00,-2.127685546875000000e-01,4.725952148437500000e-01,2.644042968750000000e-01,8.132324218750000000e-01
-2.000000000000000000e+00,-3.000000000000000000e+00,-1.000000000000000000e+00,1.000000000000000000e+00,1.000000000000000000e+00,0.000000000000000000e+00,-2.000000000000000000e+00,-2.000000000000000000e+00,-2.127685546875000000e-01,4.725952148437500000e-01,2.644042968750000000e-01,8.132324218750000000e-01
-3.000000000000000000e+00,-5.000000000000000000e+00,-4.000000000000000000e+00,-3.000000000000000000e+00,-3.000000000000000000e+00,-3.000000000000000000e+00,-1.000000000000000000e+00,0.000000000000000000e+00,-2.127685546875000000e-01,4.725952148437500000e-01,2.644042968750000000e-01,8.132324218750000000e-01
1.000000000000000000e+00,-2.000000000000000000e+00,-4.000000000000000000e+00,-4.000000000000000000e+00,-3.000000000000000000e+00,-4.000000000000000000e+00,0.000000000000000000e+00,1.000000000000000000e+00,-2.127685546875000000e-01,4.715576171875000000e-01,2.653808593750000000e-01,8.135375976562500000e-01
0.000000000000000000e+00,-2.000000000000000000e+00,0.000000000000000000e+00,1.000000000000000000e+00,1.000000000000000000e+00,2.000000000000000000e+00,2.000000000000000000e+00,-1.000000000000000000e+00,-2.127685546875000000e-01,4.715576171875000000e-01,2.653808593750000000e-01,8.135375976562500000e-01
0.000000000000000000e+00,1.000000000000000000e+00,2.000000000000000000e+00,2.000000000000000000e+00,0.000000000000000000e+00,2.000000000000000000e+00,1.000000000000000000e+00,-2.000000000000000000e+00,-2.127685546875000000e-01,4.715576171875000000e-01,2.653808593750000000e-01,8.135375976562500000e-01
-3.000000000000000000e+00,-3.000000000000000000e+00,-2.000000000000000000e+00,0.000000000000000000e+00,-1.000000000000000000e+00,-1.000000000000000000e+00,-1.000000000000000000e+00,-1.000000000000000000e+00,-2.127685546875000000e-01,4.715576171875000000e-01,2.653808593750000000e-01,8.135375976562500000e-01
-2.000000000000000000e+00,-4.000000000000000000e+00,-2.000000000000000000e+00,-1.000000000000000000e+00,-1.000000000000000000e+00,-1.000000000000000000e+00,-3.000000000000000000e+00,-2.000000000000000000e+00,-2.127685546875000000e-01,4.702148437500000000e-01,2.666625976562500000e-01,8.139038085937500000e-01
0.000000000000000000e+00,4.000000000000000000e+00,-4.000000000000000000e+00,-2.000000000000000000e+00,-4.000000000000000000e+00,-2.000000000000000000e+00,-1.000000000000000000e+00,1.000000000000000000e+00,-2.127685546875000000e-01,4.702148437500000000e-01,2.666625976562500000e-01,8.139038085937500000e-01
-1.000000000000000000e+00,2.000000000000000000e+00,6.000000000000000000e+00,-1.100000000000000000e+01,-8.000000000000000000e+00,-3.000000000000000000e+00,1.000000000000000000e+00,0.000000000000000000e+00,-2.127685546875000000e-01,4.702148437500000000e-01,2.666625976562500000e-01,8.139038085937500000e-01
0.000000000000000000e+00,0.000000000000000000e+00,-5.000000000000000000e+00,1.000000000000000000e+00,-1.000000000000000000e+00,-1.000000000000000000e+00,0.000000000000000000e+00,-1.000000000000000000e+00,-2.127685546875000000e-01,4.702148437500000000e-01,2.666625976562500000e-01,8.139038085937500000e-01
-1.000000000000000000e+00,-6.000000000000000000e+00,2.000000000000000000e+00,7.000000000000000000e+00,5.000000000000000000e+00,1.000000000000000000e+00,-1.000000000000000000e+00,0.000000000000000000e+00,-2.122192382812500000e-01,4.689941406250000000e-01,2.677612304687500000e-01,8.143920898437500000e-01
-1.000000000000000000e+00,-2.000000000000000000e+00,-2.000000000000000000e+00,-6.000000000000000000e+00,-1.000000000000000000e+00,-1.000000000000000000e+00,0.000000000000000000e+00,-1.000000000000000000e+00,-2.122192382812500000e-01,4.689941406250000000e-01,2.677612304687500000e-01,8.143920898437500000e-01
-2.000000000000000000e+00,-3.000000000000000000e+00,-4.000000000000000000e+00,1.000000000000000000e+00,-6.000000000000000000e+00,-3.000000000000000000e+00,-3.000000000000000000e+00,-1.000000000000000000e+00,-2.122192382812500000e-01,4.689941406250000000e-01,2.677612304687500000e-01,8.143920898437500000e-01
2.000000000000000000e+00,-1.400000000000000000e+01,-4.000000000000000000e+00,2.000000000000000000e+00,1.000000000000000000e+00,-1.000000000000000000e+00,-1.000000000000000000e+00,0.000000000000000000e+00,-2.122192382812500000e-01,4.689941406250000000e-01,2.677612304687500000e-01,8.143920898437500000e-01
