2.000000000000000000e+00,-1.000000000000000000e+00,2.000000000000000000e+00,-8.000000000000000000e+00,0.000000000000000000e+00,1.000000000000000000e+00,1.000000000000000000e+00,-2.000000000000000000e+00,-3.985595703125000000e-01,3.469848632812500000e-01,5.567016601562500000e-01,6.409301757812500000e-01
-3.000000000000000000e+00,-2.000000000000000000e+00,-2.000000000000000000e+00,8.000000000000000000e+00,3.000000000000000000e+00,2.000000000000000000e+00,1.000000000000000000e+00,1.000000000000000000e+00,-3.985595703125000000e-01,3.469848632812500000e-01,5.567016601562500000e-01,6.409301757812500000e-01
3.000000000000000000e+00,-1.000000000000000000e+00,9.000000000000000000e+00,-1.000000000000000000e+00,-2.000000000000000000e+00,-1.000000000000000000e+00,-2.000000000000000000e+00,-2.000000000000000000e+00,-3.985595703125000000e-01,3.469848632812500000e-01,5.567016601562500000e-01,6.409301757812500000e-01
-1.000000000000000000e+00,1.000000000000000000e+00,-7.000000000000000000e+00,-1.000000000000000000e+00,2.000000000000000000e+00,2.000000000000000000e+00,-2.000000000000000000e+00,-1.000000000000000000e+00,-3.985595703125000000e-01,3.469848632812500000e-01,5.567016601562500000e-01,6.409301757812500000e-01
-8.000000000000000000e+00,-3.000000000000000000e+00,-4.000000000000000000e+00,-6.000000000000000000e+00,-4.000000000000000000e+00,1.000000000000000000e+00,1.000000000000000000e+00,-1.000000000000000000e+00,-3.983154296875000000e-01,3.473510742187500000e-01,5.554199218750000000e-01,6.419677734375000000e-01
3.000000000000000000e+00,-2.000000000000000000e+00,-2.100000000000000000e+01,-1.000000000000000000e+01,-2.000000000000000000e+00,0.000000000000000000e+00,-2.000000000000000000e+00,-1.000000000000000000e+00,-3.983154296875000000e-01,3.473510742187500000e-01,5.554199218750000000e-01,6.419677734375000000e-01
-3.000000000000000000e+00,-5.000000000000000000e+00,-1.000000000000000000e+00,5.000000000000000000e+00,-1.000000000000000000e+00,-3.000000000000000000e+00,-2.000000000000000000e+00,-3.000000000000000000e+00,-3.983154296875000000e-01,3.473510742187500000e-01,5.554199218750000000e-01,6.419677734375000000e-01
-5.000000000000000000e+00,-2.000000000000000000e+00,-1.400000000000000000e+01,-9.000000000000000000e+00,-2.000000000000000000e+00,-1.000000000000000000e+00,-2.000000000000000000e+00,0.000000000000000000e+00,-3.983154296875000000e-01,3.473510742187500000e-01,5.554199218750000000e-01,6.419677734375000000e-01
-1.000000000000000000e+00,3.000000000000000000e+00,8.000000000000000000e+00,1.000000000000000000e+01,1.000000000000000000e+00,1.000000000000000000e+00,0.000000000000000000e+00,-1.000000000000000000e+00,-3.973999023437500000e-01,3.480224609375000000e-01,5.549926757812500000e-01,6.425781250000000000e-01
-1.000000000000000000e+00,-2.000000000000000000e+00,5.000000000000000000e+00,0.000000000000000000e+00,-1.000000000000000000e+00,0.000000000000000000e+00,1.000000000000000000e+00,0.000000000000000000e+00,-3.973999023437500000e-01,3.480224609375000000e-01,5.549926757812500000e-01,6.425781250000000000e-01
3.000000000000000000e+00,3.000000000000000000e+00,-1.600000000000000000e+01,-1.200000000000000000e+01,0.000000000000000000e+00,1.000000000000000000e+00,-1.000000000000000000e+00,-1.000000000000000000e+00,-3.973999023437500000e-01,3.480224609375000000e-01,5.549926757812500000e-01,6.425781250000000000e-01
-3.000000000000000000e+00,-2.000000000000000000e+00,-1.600000000000000000e+01,3.000000000000000000e+00,0.000000000000000000e+00,1.000000000000000000e+00,1.000000000000000000e+00,2.000000000000000000e+00,-3.973999023437500000e-01,3.480224609375000000e-01,5.549926757812500000e-01,6.425781250000000000e-01
-3.000000000000000000e+00,0.000000000000000000e+00,5.000000000000000000e+00,-8.000000000000000000e+00,-3.000000000000000000e+00,-2.000000000000000000e+00,-3.000000000000000000e+00,-1.000000000000000000e+00,-3.964233398437500000e-01,3.486938476562500000e-01,5.552978515625000000e-01,6.425170898437500000e-01
5.000000000000000000e+00,-2.000000000000000000e+00,0.000000000000000000e+00,1.000000000000000000e+00,-1.000000000000000000e+00,-2.000000000000000000e+00,-1.000000000000000000e+00,2.000000000000000000e+00,-3.964233398437500000e-01,3.486938476562500000e-01,5.552978515625000000e-01,6.425170898437500000e-01
0.000000000000000000e+00,2.000000000000000000e+00,5.000000000000000000e+00,-5.000000000000000000e+00,-4.000000000000000000e+00,-1.000000000000000000e+00,0.000000000000000000e+00,-1.000000000000000000e+00,-3.964233398437500000e-01,3.486938476562500000e-01,5.552978515625000000e-01,6.425170898437500000e-01
-2.000000000000000000e+00,-2.000000000000000000e+00,-5.000000000000000000e+00,5.000000000000000000e+00,2.000000000000000000e+00,-1.000000000000000000e+00,-1.000000000000000000e+00,-1.000000000000000000e+00,-3.964233398437500000e-01,3.486938476562500000e-01,5.552978515625000000e-01,6.425170898437500000e-01
6.000000000000000000e+00,-4.000000000000000000e+00,0.000000000000000000e+00,3.000000000000000000e+00,2.000000000000000000e+00,1.000000000000000000e+00,-2.000000000000000000e+00,-1.000000000000000000e+00,-3.950805664062500000e-01,3.489990234375000000e-01,5.557861328125000000e-01,6.427612304687500000e-01
-1.900000000000000000e+01,0.000000000000000000e+00,1.100000000000000000e+01,4.000000000000000000e+00,0.000000000000000000e+00,-2.000000000000000000e+00,-1.000000000000000000e+00,-1.000000000000000000e+00,-3.950805664062500000e-01,3.489990234375000000e-01,5.557861328125000000e-01,6.427612304687500000e-01
-1.000000000000000000e+00,-5.000000000000000000e+00,5.000000000000000000e+00,-1.000000000000000000e+00,-6.000000000000000000e+00,-3.000000000000000000e+00,-2.000000000000000000e+00,-1.000000000000000000e+00,-3.950805664062500000e-01,3.489990234375000000e-01,5.557861328125000000e-01,6.427612304687500000e-01
-1.000000000000000000e+00,0.000000000000000000e+00,-2.000000000000000000e+01,-9.000000000000000000e+00,-2.000000000000000000e+00,0.000000000000000000e+00,1.000000000000000000e+00,0.000000000000000000e+00,-3.950805664062500000e-01,3.489990234375000000e-01,5.557861328125000000e-01,6.427612304687500000e-01
1.000000000000000000e+00,2.000000000000000000e+00,-8.000000000000000000e+00,7.000000000000000000e+00,5.000000000000000000e+00,2.000000000000000000e+00,2.000000000000000000e+00,2.000000000000000000e+00,-3.937377929687500000e-01,3.494262695312500000e-01,5.559082031250000000e-01,6.432495117187500000e-01
-1.000000000000000000e+00,-4.000000000000000000e+00,1.800000000000000000e+01,-4.000000000000000000e+00,-1.000000000000000000e+00,1.000000000000000000e+00,-1.000000000000000000e+00,-1.000000000000000000e+00,-3.937377929687500000e-01,3.494262695312500000e-01,5.559082031250000000e-01,6.432495117187500000e-01
3.000000000000000000e+00,-1.000000000000000000e+00,-2.000000000000000000e+00,-1.000000000000000000e+00,-1.000000000000000000e+00,-2.000000000000000000e+00,-1.000000000000000000e+00,-2.000000000000000000e+00,-3.937377929687500000e-01,3.494262695312500000e-01,5.559082031250000000e-01,6.432495117187500000e-01
-5.000000000000000000e+00,-2.000000000000000000e+00,-1.000000000000000000e+00,-7.000000000000000000e+00,-4.000000000000000000e+00,-2.000000000000000000e+00,-2.000000000000000000e+00,-3.000000000000000000e+00,-3.937377929687500000e-01,3.494262695312500000e-01,5.559082031250000000e-01,6.432495117187500000e-01
2.000000000000000000e+00,-2.000000000000000000e+00,-1.100000000000000000e+01,0.000000000000000000e+00,-4.000000000000000000e+00,-5.000000000000000000e+00,-2.000000000000000000e+00,-1.000000000000000000e+00,-3.922119140625000000e-01,3.503417968750000000e-01,5.554809570312500000e-01,6.440429687500000000e-01
4.000000000000000000e+00,5.000000000000000000e+00,1.500000000000000000e+01,1.200000000000000000e+01,4.000000000000000000e+00,3.000000000000000000e+00,2.000000000000000000e+00,0.000000000000000000e+00,-3.922119140625000000e-01,3.503417968750000000e-01,5.554809570312500000e-01,6.440429687500000000e-01
-3.000000000000000000e+00,-6.000000000000000000e+00,-3.100000000000000000e+01,-8.000000000000000000e+00,3.000000000000000000e+00,1.000000000000000000e+00,-2.000000000000000000e+00,-3.000000000000000000e+00,-3.922119140625000000e-01,3.503417968750000000e-01,5.554809570312500000e-01,6.440429687500000000e-01
0.000000000000000000e+00,-3.000000000000000000e+00,-1.000000000000000000e+01,-6.000000000000000000e+00,-3.000000000000000000e+00,-2.000000000000000000e+00,-1.000000000000000000e+00,-2.000000000000000000e+00,-3.922119140625000000e-01,3.503417968750000000e-01,5.554809570312500000e-01,6.440429687500000000e-01
1.000000000000000000e+00,1.000000000000000000e+00,4.000000000000000000e+00,-1.000000000000000000e+00,-2.000000000000000000e+00,-4.000000000000000000e+00,-3.000000000000000000e+00,-1.000000000000000000e+00,-3.909912109375000000e-01,3.511352539062500000e-01,5.549316406250000000e-01,6.447753906250000000e-01
1.000000000000000000e+00,1.000000000000000000e+00,-7.000000000000000000e+00,1.000000000000000000e+01,1.200000000000000000e+01,2.000000000000000000e+00,-2.000000000000000000e+00,0.000000000000000000e+00,-3.909912109375000000e-01,3.511352539062500000e-01,5.549316406250000000e-01,6.447753906250000000e-01
-1.000000000000000000e+00,1.000000000000000000e+00,2.000000000000000000e+00,-2.000000000000000000e+00,0.000000000000000000e+00,1.000000000000000000e+00,-1.000000000000000000e+00,0.000000000000000000e+00,-3.909912109375000000e-01,3.511352539062500000e-01,5.549316406250000000e-01,6.447753906250000000e-01
-1.000000000000000000e+00,-1.000000000000000000e+00,-6.000000000000000000e+00,-3.000000000000000000e+00,1.000000000000000000e+00,0.000000000000000000e+00,1.000000000000000000e+00,-1.000000000000000000e+00,-3.909912109375000000e-01,3.511352539062500000e-01,5.549316406250000000e-01,6.447753906250000000e-01
-2.000000000000000000e+00,-2.000000000000000000e+00,-7.000000000000000000e+00,-2.000000000000000000e+00,-5.000000000000000000e+00,-2.000000000000000000e+00,-2.000000000000000000e+00,-2.000000000000000000e+00,-3.905639648437500000e-01,3.511962890625000000e-01,5.545043945312500000e-01,6.454467773437500000e-01
0.000000000000000000e+00,1.000000000000000000e+00,2.000000000000000000e+00,-9.000000000000000000e+00,-6.000000000000000000e+00,-5.000000000000000000e+00,0.000000000000000000e+00,-3.000000000000000000e+00,-3.905639648437500000e-01,3.511962890625000000e-01,5.545043945312500000e-01,6.454467773437500000e-01
2.000000000000000000e+00,2.000000000000000000e+00,3.200000000000000000e+01,7.000000000000000000e+00,2.000000000000000000e+00,0.000000000000000000e+00,0.000000000000000000e+00,-1.000000000000000000e+00,-3.905639648437500000e-01,3.511962890625000000e-01,5.545043945312500000e-01,6.454467773437500000e-01
-5.000000000000000000e+00,-9.000000000000000000e+00,-4.200000000000000000e+01,-2.100000000000000000e+01,-6.000000000000000000e+00,-5.000000000000000000e+00,-4.000000000000000000e+00,-1.000000000000000000e+00,-3.905639648437500000e-01,3.511962890625000000e-01,5.545043945312500000e-01,6.454467773437500000e-01
-2.000000000000000000e+00,0.000000000000000000e+00,7.000000000000000000e+00,7.000000000000000000e+00,-1.000000000000000000e+00,-1.000000000000000000e+00,-1.000000000000000000e+00,-1.000000000000000000e+00,-3.905639648437500000e-01,3.507080078125000000e-01,5.538330078125000000e-01,6.462402343750000000e-01
0.000000000000000000e+00,0.000000000000000000e+00,-9.000000000000000000e+00,-2.000000000000000000e+00,-5.000000000000000000e+00,-5.000000000000000000e+00,-2.000000000000000000e+00,-2.000000000000000000e+00,-3.905639648437500000e-01,3.507080078125000000e-01,5.538330078125000000e-01,6.462402343750000000e-01
-1.000000000000000000e+00,1.000000000000000000e+00,2.000000000000000000e+00,-1.000000000000000000e+00,0.000000000000000000e+00,1.000000000000000000e+00,3.000000000000000000e+00,0.000000000000000000e+00,-3.905639648437500000e-01,3.507080078125000000e-01,5.538330078125000000e-01,6.462402343750000000e-01
0.000000000000000000e+00,4.000000000000000000e+00,1.800000000000000000e+01,8.000000000000000000e+00,1.000000000000000000e+00,2.000000000000000000e+00,1.000000000000000000e+00,-1.000000000000000000e+00,-3.905639648437500000e-01,3.507080078125000000e-01,5.538330078125000000e-01,6.462402343750000000e-01
-2.000000000000000000e+00,-3.000000000000000000e+00,0.000000000000000000e+00,-7.000000000000000000e+00,0.000000000000000000e+00,-1.000000000000000000e+00,0.000000000000000000e+00,-1.000000000000000000e+00,-3.911132812500000000e-01,3.503417968750000000e-01,5.527343750000000000e-01,6.470947265625000000e-01
0.000000000000000000e+00,0.000000000000000000e+00,-8.000000000000000000e+00,4.000000000000000000e+00,-1.000000000000000000e+00,1.000000000000000000e+00,-1.000000000000000000e+00,0.000000000000000000e+00,-3.911132812500000000e-01,3.503417968750000000e-01,5.527343750000000000e-01,6.470947265625000000e-01
-1.000000000000000000e+00,-2.000000000000000000e+00,9.000000000000000000e+00,3.000000000000000000e+00,-2.000000000000000000e+00,-3.000000000000000000e+00,-1.000000000000000000e+00,-1.000000000000000000e+00,-3.911132812500000000e-01,3.503417968750000000e-01,5.527343750000000000e-01,6.470947265625000000e-01
-1.000000000000000000e+00,-3.000000000000000000e+00,-4.000000000000000000e+00,-2.000000000000000000e+00,-3.000000000000000000e+00,-2.000000000000000000e+00,-2.000000000000000000e+00,-2.000000000000000000e+00,-3.911132812500000000e-01,3.503417968750000000e-01,5.527343750000000000e-01,6.470947265625000000e-01
-1.000000000000000000e+00,-1.000000000000000000e+00,-1.600000000000000000e+01,-1.100000000000000000e+01,-1.000000000000000000e+00,-1.000000000000000000e+00,1.000000000000000000e+00,-3.000000000000000000e+00,-3.914794921875000000e-01,3.502197265625000000e-01,5.514526367187500000e-01,6.480102539062500000e-01
0.000000000000000000e+00,-4.000000000000000000e+00,3.000000000000000000e+00,8.000000000000000000e+00,-1.000000000000000000e+00,2.000000000000000000e+00,1.000000000000000000e+00,0.000000000000000000e+00,-3.914794921875000000e-01,3.502197265625000000e-01,5.514526367187500000e-01,6.480102539062500000e-01
-4.000000000000000000e+00,-1.000000000000000000e+00,1.000000000000000000e+01,1.000000000000000000e+00,-2.000000000000000000e+00,-1.000000000000000000e+00,-2.000000000000000000e+00,-3.000000000000000000e+00,-3.914794921875000000e-01,3.502197265625000000e-01,5.514526367187500000e-01,6.480102539062500000e-01
-1.000000000000000000e+00,-3.000000000000000000e+00,-2.200000000000000000e+01,-3.000000000000000000e+00,-2.000000000000000000e+00,-2.000000000000000000e+00,-1.000000000000000000e+00,-1.000000000000000000e+00,-3.914794921875000000e-01,3.502197265625000000e-01,5.514526367187500000e-01,6.480102539062500000e-01
-4.000000000000000000e+00,2.000000000000000000e+00,-2.000000000000000000e+01,-1.500000000000000000e+01,1.000000000000000000e+00,0.000000000000000000e+00,0.000000000000000000e+00,-1.000000000000000000e+00,-3.919067382812500000e-01,3.504028320312500000e-01,5.504150390625000000e-01,6.485595703125000000e-01
4.000000000000000000e+00,-3.000000000000000000e+00,6.300000000000000000e+01,2.400000000000000000e+01,-4.000000000000000000e+00,-2.000000000000000000e+00,-2.000000000000000000e+00,-4.000000000000000000e+00,-3.919067382812500000e-01,3.504028320312500000e-01,5.504150390625000000e-01,6.485595703125000000e-01
1.000000000000000000e+00,-5.000000000000000000e+00,-4.900000000000000000e+01,-1.500000000000000000e+01,-1.000000000000000000e+00,0.000000000000000000e+00,-1.000000000000000000e+00,1.000000000000000000e+00,-3.919067382812500000e-01,3.504028320312500000e-01,5.504150390625000000e-01,6.485595703125000000e-01
-6.000000000000000000e+00,-2.000000000000000000e+00,1.800000000000000000e+01,0.000000000000000000e+00,1.000000000000000000e+00,-1.000000000000000000e+00,-2.000000000000000000e+00,0.000000000000000000e+00,-3.919067382812500000e-01,3.504028320312500000e-01,5.504150390625000000e-01,6.485595703125000000e-01
8.000000000000000000e+00,2.000000000000000000e+00,-6.000000000000000000e+00,5.000000000000000000e+00,6.000000000000000000e+00,4.000000000000000000e+00,3.000000000000000000e+00,0.000000000000000000e+00,-3.919067382812500000e-01,3.510742187500000000e-01,5.495605468750000000e-01,6.488647460937500000e-01
-3.000000000000000000e+00,-1.000000000000000000e+00,1.000000000000000000e+00,-4.000000000000000000e+00,-4.000000000000000000e+00,-2.000000000000000000e+00,-2.000000000000000000e+00,0.000000000000000000e+00,-3.919067382812500000e-01,3.510742187500000000e-01,5.495605468750000000e-01,6.488647460937500000e-01
0.000000000000000000e+00,-1.000000000000000000e+00,-2.600000000000000000e+01,0.000000000000000000e+00,0.000000000000000000e+00,-1.000000000000000000e+00,-1.000000000000000000e+00,-1.000000000000000000e+00,-3.919067382812500000e-01,3.510742187500000000e-01,5.495605468750000000e-01,6.488647460937500000e-01
-1.000000000000000000e+00,2.000000000000000000e+00,1.600000000000000000e+01,4.000000000000000000e+00,1.000000000000000000e+00,2.000000000000000000e+00,0.000000000000000000e+00,-2.000000000000000000e+00,-3.919067382812500000e-01,3.510742187500000000e-01,5.495605468750000000e-01,6.488647460937500000e-01
0.000000000000000000e+00,1.000000000000000000e+00,1.200000000000000000e+01,1.000000000000000000e+00,-5.000000000000000000e+00,-2.000000000000000000e+00,-2.000000000000000000e+00,0.000000000000000000e+00,-3.922729492187500000e-01,3.513183593750000000e-01,5.484619140625000000e-01,6.494750976562500000e-01
-7.000000000000000000e+00,-3.000000000000000000e+00,-1.500000000000000000e+01,-8.000000000000000000e+00,-2.000000000000000000e+00,1.000000000000000000e+00,-2.000000000000000000e+00,-5.000000000000000000e+00,-3.922729492187500000e-01,3.513183593750000000e-01,5.484619140625000000e-01,6.494750976562500000e-01
-2.000000000000000000e+00,2.000000000000000000e+00,2.000000000000000000e+00,1.000000000000000000e+00,0.000000000000000000e+00,0.000000000000000000e+00,-1.000000000000000000e+00,0.000000000000000000e+00,-3.922729492187500000e-01,3.513183593750000000e-01,5.484619140625000000e-01,6.494750976562500000e-01
3.000000000000000000e+00,3.000000000000000000e+00,-6.000000000000000000e+00,-2.000000000000000000e+00,-2.000000000000000000e+00,-2.000000000000000000e+00,2.000000000000000000e+00,1.000000000000000000e+00,-3.922729492187500000e-01,3.513183593750000000e-01,5.484619140625000000e-01,6.494750976562500000e-01
-1.200000000000000000e+01,-1.000000000000000000e+00,1.600000000000000000e+01,7.000000000000000000e+00,2.000000000000000000e+00,-1.000000000000000000e+00,-1.000000000000000000e+00,-1.000000000000000000e+00,-3.924560546875000000e-01,3.516235351562500000e-01,5.470581054687500000e-01,6.503906250000000000e-01
2.000000000000000000e+01,-3.000000000000000000e+00,-3.500000000000000000e+01,-9.000000000000000000e+00,-5.000000000000000000e+00,-4.000000000000000000e+00,-3.000000000000000000e+00,0.000000000000000000e+00,-3.924560546875000000e-01,3.516235351562500000e-01,5.470581054687500000e-01,6.503906250000000000e-01
-5.000000000000000000e+00,0.000000000000000000e+00,1.000000000000000000e+01,-1.000000000000000000e+00,1.000000000000000000e+00,0.000000000000000000e+00,-2.000000000000000000e+00,-3.000000000000000000e+00,-3.924560546875000000e-01,3.516235351562500000e-01,5.470581054687500000e-01,6.503906250000000000e-01
-2.000000000000000000e+00,-3.000000000000000000e+00,9.000000000000000000e+00,-2.000000000000000000e+00,0.000000000000000000e+00,-1.000000000000000000e+00,1.000000000000000000e+00,-1.000000000000000000e+00,-3.924560546875000000e-01,3.516235351562500000e-01,5.470581054687500000e-01,6.503906250000000000e-01
3.000000000000000000e+00,2.000000000000000000e+00,1.900000000000000000e+01,1.300000000000000000e+01,-1.000000000000000000e+00,-5.000000000000000000e+00,-3.000000000000000000e+00,0.000000000000000000e+00,-3.919067382812500000e-01,3.524780273437500000e-01,5.457763671875000000e-01,6.513061523437500000e-01
-9.000000000000000000e+00,-5.000000000000000000e+00,-3.200000000000000000e+01,-1.800000000000000000e+01,-3.000000000000000000e+00,-2.000000000000000000e+00,-3.000000000000000000e+00,0.000000000000000000e+00,-3.919067382812500000e-01,3.524780273437500000e-01,5.457763671875000000e-01,6.513061523437500000e-01
-4.000000000000000000e+00,3.000000000000000000e+00,0.000000000000000000e+00,1.000000000000000000e+00,0.000000000000000000e+00,1.000000000000000000e+00,1.000000000000000000e+00,1.000000000000000000e+00,-3.919067382812500000e-01,3.524780273437500000e-01,5.457763671875000000e-01,6.513061523437500000e-01
7.000000000000000000e+00,1.000000000000000000e+00,2.200000000000000000e+01,6.000000000000000000e+00,1.000000000000000000e+00,-1.000000000000000000e+00,-2.000000000000000000e+00,-1.000000000000000000e+00,-3.919067382812500000e-01,3.524780273437500000e-01,5.457763671875000000e-01,6.513061523437500000e-01
-3.000000000000000000e+00,-6.000000000000000000e+00,-1.800000000000000000e+01,-6.000000000000000000e+00,-2.000000000000000000e+00,2.000000000000000000e+00,1.000000000000000000e+00,1.000000000000000000e+00,-3.912963867187500000e-01,3.537597656250000000e-01,5.446166992187500000e-01,6.519775390625000000e-01
-4.000000000000000000e+00,3.000000000000000000e+00,1.300000000000000000e+01,3.000000000000000000e+00,2.000000000000000000e+00,0.000000000000000000e+00,0.000000000000000000e+00,0.000000000000000000e+00,-3.912963867187500000e-01,3.537597656250000000e-01,5.446166992187500000e-01,6.519775390625000000e-01
-1.000000000000000000e+00,-4.000000000000000000e+00,-1.000000000000000000e+00,0.000000000000000000e+00,-6.000000000000000000e+00,-4.000000000000000000e+00,-3.000000000000000000e+00,-1.000000000000000000e+00,-3.912963867187500000e-01,3.537597656250000000e-01,5.446166992187500000e-01,6.519775390625000000e-01
-1.000000000000000000e+00,0.000000000000000000e+00,-2.000000000000000000e+00,3.000000000000000000e+00,1.000000000000000000e+00,1.000000000000000000e+00,-1.000000000000000000e+00,-1.000000000000000000e+00,-3.912963867187500000e-01,3.537597656250000000e-01,5.446166992187500000e-01,6.519775390625000000e-01
1.000000000000000000e+00,-1.000000000000000000e+00,3.000000000000000000e+00,-2.000000000000000000e+00,-1.000000000000000000e+00,0.000000000000000000e+00,1.000000000000000000e+00,-2.000000000000000000e+00,-3.913574218750000000e-01,3.547973632812500000e-01,5.435791015625000000e-01,6.522216796875000000e-01
-3.000000000000000000e+00,-1.000000000000000000e+00,-1.300000000000000000e+01,0.000000000000000000e+00,0.000000000000000000e+00,0.000000000000000000e+00,-1.000000000000000000e+00,-1.000000000000000000e+00,-3.913574218750000000e-01,3.547973632812500000e-01,5.435791015625000000e-01,6.522216796875000000e-01
4.000000000000000000e+00,-1.000000000000000000e+00,8.000000000000000000e+00,-3.000000000000000000e+00,1.000000000000000000e+00,1.000000000000000000e+00,3.000000000000000000e+00,1.000000000000000000e+00,-3.913574218750000000e-01,3.547973632812500000e-01,5.435791015625000000e-01,6.522216796875000000e-01
-3.000000000000000000e+00,-1.000000000000000000e+00,1.100000000000000000e+01,-2.000000000000000000e+00,-3.000000000000000000e+00,-3.000000000000000000e+00,-1.000000000000000000e+00,-3.000000000000000000e+00,-3.913574218750000000e-01,3.547973632812500000e-01,5.435791015625000000e-01,6.522216796875000000e-01
-1.000000000000000000e+00,-5.000000000000000000e+00,-1.600000000000000000e+01,-1.000000000000000000e+00,-6.000000000000000000e+00,-4.000000000000000000e+00,-5.000000000000000000e+00,1.000000000000000000e+00,-3.911743164062500000e-01,3.560791015625000000e-01,5.423583984375000000e-01,6.526489257812500000e-01
1.000000000000000000e+00,3.000000000000000000e+00,-5.000000000000000000e+00,0.000000000000000000e+00,4.000000000000000000e+00,2.000000000000000000e+00,2.000000000000000000e+00,0.000000000000000000e+00,-3.911743164062500000e-01,3.560791015625000000e-01,5.423583984375000000e-01,6.526489257812500000e-01
-1.000000000000000000e+01,-1.000000000000000000e+00,1.200000000000000000e+01,0.000000000000000000e+00,-4.000000000000000000e+00,-2.000000000000000000e+00,-3.000000000000000000e+00,-4.000000000000000000e+00,-3.911743164062500000e-01,3.560791015625000000e-01,5.423583984375000000e-01,6.526489257812500000e-01
0.000000000000000000e+00,-1.000000000000000000e+00,-1.500000000000000000e+01,-3.000000000000000000e+00,-2.000000000000000000e+00,-3.000000000000000000e+00,-1.000000000000000000e+00,-1.000000000000000000e+00,-3.911743164062500000e-01,3.560791015625000000e-01,5.423583984375000000e-01,6.526489257812500000e-01
-6.000000000000000000e+00,-1.000000000000000000e+00,1.000000000000000000e+00,4.000000000000000000e+00,1.000000000000000000e+00,1.000000000000000000e+00,1.000000000000000000e+00,-3.000000000000000000e+00,-3.905639648437500000e-01,3.575439453125000000e-01,5.408325195312500000e-01,6.534423828125000000e-01
0.000000000000000000e+00,-2.000000000000000000e+00,2.000000000000000000e+01,-8.000000000000000000e+00,-3.000000000000000000e+00,-3.000000000000000000e+00,-2.000000000000000000e+00,4.000000000000000000e+00,-3.905639648437500000e-01,3.575439453125000000e-01,5.408325195312500000e-01,6.534423828125000000e-01
4.000000000000000000e+00,-3.000000000000000000e+00,-1.100000000000000000e+01,-1.000000000000000000e+00,-2.000000000000000000e+00,-3.000000000000000000e+00,-1.000000000000000000e+00,-1.000000000000000000e+00,-3.905639648437500000e-01,3.575439453125000000e-01,5.408325195312500000e-01,6.534423828125000000e-01
-5.000000000000000000e+00,-2.000000000000000000e+00,-1.100000000000000000e+01,-1.000000000000000000e+00,0.000000000000000000e+00,0.000000000000000000e+00,-1.000000000000000000e+00,-8.000000000000000000e+00,-3.905639648437500000e-01,3.575439453125000000e-01,5.408325195312500000e-01,6.534423828125000000e-01
-7.000000000000000000e+00,-3.000000000000000000e+00,-1.500000000000000000e+01,-6.000000000000000000e+00,-3.000000000000000000e+00,-4.000000000000000000e+00,-2.000000000000000000e+00,6.000000000000000000e+00,-3.897094726562500000e-01,3.591918945312500000e-01,5.393676757812500000e-01,6.542968750000000000e-01
1.500000000000000000e+01,1.000000000000000000e+00,-1.000000000000000000e+00,-8.000000000000000000e+00,-1.000000000000000000e+00,-1.000000000000000000e+00,-2.000000000000000000e+00,-1.000000000000000000e+00,-3.897094726562500000e-01,3.591918945312500000e-01,5.393676757812500000e-01,6.542968750000000000e-01
2.000000000000000000e+00,3.000000000000000000e+00,2.100000000000000000e+01,5.000000000000000000e+00,-1.000000000000000000e+00,0.000000000000000000e+00,0.000000000000000000e+00,-3.000000000000000000e+00,-3.897094726562500000e-01,3.591918945312500000e-01,5.393676757812500000e-01,6.542968750000000000e-01
4.000000000000000000e+00,-6.000000000000000000e+00,-9.000000000000000000e+00,-1.000000000000000000e+00,-3.000000000000000000e+00,0.000000000000000000e+00,-1.000000000000000000e+00,0.000000000000000000e+00,-3.897094726562500000e-01,3.591918945312500000e-01,5.393676757812500000e-01,6.542968750000000000e-01
-1.000000000000000000e+00,-3.000000000000000000e+00,-4.000000000000000000e+00,-6.000000000000000000e+00,1.000000000000000000e+00,1.000000000000000000e+00,1.000000000000000000e+00,-6.000000000000000000e+00,-3.892211914062500000e-01,3.606567382812500000e-01,5.381469726562500000e-01,6.547851562500000000e-01
-6.000000000000000000e+00,1.000000000000000000e+00,8.000000000000000000e+00,8.000000000000000000e+00,-2.000000000000000000e+00,-4.000000000000000000e+00,-2.000000000000000000e+00,-1.000000000000000000e+00,-3.892211914062500000e-01,3.606567382812500000e-01,5.381469726562500000e-01,6.547851562500000000e-01
2.000000000000000000e+00,-6.000000000000000000e+00,-1.800000000000000000e+01,-9.000000000000000000e+00,-3.000000000000000000e+00,-2.000000000000000000e+00,-1.000000000000000000e+00,-1.000000000000000000e+00,-3.892211914062500000e-01,3.606567382812500000e-01,5.381469726562500000e-01,6.547851562500000000e-01
-1.000000000000000000e+00,4.000000000000000000e+00,2.400000000000000000e+01,5.000000000000000000e+00,2.000000000000000000e+00,1.000000000000000000e+00,-1.000000000000000000e+00,1.000000000000000000e+00,-3.892211914062500000e-01,3.606567382812500000e-01,5.381469726562500000e-01,6.547851562500000000e-01
-3.000000000000000000e+00,-5.000000000000000000e+00,-1.800000000000000000e+01,1.000000000000000000e+00,-1.000000000000000000e+00,0.000000000000000000e+00,-2.000000000000000000e+00,-3.000000000000000000e+00,-3.887939453125000000e-01,3.619384765625000000e-01,5.372314453125000000e-01,6.550292968750000000e-01
-6.000000000000000000e+00,1.000000000000000000e+00,-5.000000000000000000e+00,-2.000000000000000000e+00,6.000000000000000000e+00,2.000000000000000000e+00,2.000000000000000000e+00,0.000000000000000000e+00,-3.887939453125000000e-01,3.619384765625000000e-01,5.372314453125000000e-01,6.550292968750000000e-01
-1.000000000000000000e+00,3.000000000000000000e+00,4.000000000000000000e+00,0.000000000000000000e+00,0.000000000000000000e+00,-1.000000000000000000e+00,-1.000000000000000000e+00,-1.000000000000000000e+00,-3.887939453125000000e-01,3.619384765625000000e-01,5.372314453125000000e-01,6.550292968750000000e-01
-2.000000000000000000e+00,-1.000000000000000000e+00,1.800000000000000000e+01,4.000000000000000000e+00,-3.000000000000000000e+00,0.000000000000000000e+00,0.000000000000000000e+00,1.000000000000000000e+00,-3.887939453125000000e-01,3.619384765625000000e-01,5.372314453125000000e-01,6.550292968750000000e-01
4.000000000000000000e+00,0.000000000000000000e+00,-1.800000000000000000e+01,-9.000000000000000000e+00,-4.000000000000000000e+00,-1.000000000000000000e+00,-2.000000000000000000e+00,2.000000000000000000e+00,-3.883666992187500000e-01,3.626098632812500000e-01,5.366821289062500000e-01,6.554565429687500000e-01
-8.000000000000000000e+00,-4.000000000000000000e+00,8.000000000000000000e+00,3.000000000000000000e+00,-2.000000000000000000e+00,-3.000000000000000000e+00,-2.000000000000000000e+00,-3.000000000000000000e+00,-3.883666992187500000e-01,3.626098632812500000e-01,5.366821289062500000e-01,6.554565429687500000e-01
1.000000000000000000e+00,3.000000000000000000e+00,3.100000000000000000e+01,-2.000000000000000000e+00,2.000000000000000000e+00,2.000000000000000000e+00,0.000000000000000000e+00,0.000000000000000000e+00,-3.883666992187500000e-01,3.626098632812500000e-01,5.366821289062500000e-01,6.554565429687500000e-01
-5.000000000000000000e+00,-3.000000000000000000e+00,-4.400000000000000000e+01,-3.000000000000000000e+00,-5.000000000000000000e+00,-3.000000000000000000e+00,-2.000000000000000000e+00,-1.000000000000000000e+00,-3.883666992187500000e-01,3.626098632812500000e-01,5.366821289062500000e-01,6.554565429687500000e-01
6.000000000000000000e+00,4.000000000000000000e+00,2.300000000000000000e+01,3.000000000000000000e+00,2.000000000000000000e+00,0.000000000000000000e+00,-1.000000000000000000e+00,1.000000000000000000e+00,-3.878784179687500000e-01,3.627929687500000000e-01,5.363769531250000000e-01,6.558837890625000000e-01
1.000000000000000000e+00,2.000000000000000000e+00,2.000000000000000000e+00,-2.000000000000000000e+00,-2.000000000000000000e+00,-3.000000000000000000e+00,-1.000000000000000000e+00,1.000000000000000000e+00,-3.878784179687500000e-01,3.627929687500000000e-01,5.363769531250000000e-01,6.558837890625000000e-01
1.300000000000000000e+01,-3.000000000000000000e+00,-2.000000000000000000e+00,4.000000000000000000e+00,-1.000000000000000000e+00,-3.000000000000000000e+00,-3.000000000000000000e+00,-5.000000000000000000e+00,-3.878784179687500000e-01,3.627929687500000000e-01,5.363769531250000000e-01,6.558837890625000000e-01
2.000000000000000000e+00,3.000000000000000000e+00,-1.000000000000000000e+00,-3.000000000000000000e+00,1.000000000000000000e+00,1.000000000000000000e+00,0.000000000000000000e+00,0.000000000000000000e+00,-3.878784179687500000e-01,3.627929687500000000e-01,5.363769531250000000e-01,6.558837890625000000e-01
-5.000000000000000000e+00,1.000000000000000000e+00,8.000000000000000000e+00,1.000000000000000000e+00,1.000000000000000000e+00,1.000000000000000000e+00,0.000000000000000000e+00,1.000000000000000000e+00,-3.870239257812500000e-01,3.632202148437500000e-01,5.359497070312500000e-01,6.564941406250000000e-01
-8.000000000000000000e+00,0.000000000000000000e+00,-1.600000000000000000e+01,-9.000000000000000000e+00,-2.000000000000000000e+00,1.000000000000000000e+00,1.000000000000000000e+00,-2.000000000000000000e+00,-3.870239257812500000e-01,3.632202148437500000e-01,5.359497070312500000e-01,6.564941406250000000e-01
5.000000000000000000e+00,-5.000000000000000000e+00,1.200000000000000000e+01,1.000000000000000000e+01,4.000000000000000000e+00,1.000000000000000000e+00,-1.000000000000000000e+00,3.000000000000000000e+00,-3.870239257812500000e-01,3.632202148437500000e-01,5.359497070312500000e-01,6.564941406250000000e-01
-6.000000000000000000e+00,-4.000000000000000000e+00,-1.700000000000000000e+01,-8.000000000000000000e+00,-3.000000000000000000e+00,-1.000000000000000000e+00,-2.000000000000000000e+00,-4.000000000000000000e+00,-3.870239257812500000e-01,3.632202148437500000e-01,5.359497070312500000e-01,6.564941406250000000e-01
1.000000000000000000e+00,0.000000000000000000e+00,3.000000000000000000e+00,8.000000000000000000e+00,1.000000000000000000e+00,-1.000000000000000000e+00,-1.000000000000000000e+00,-4.000000000000000000e+00,-3.859252929687500000e-01,3.640136718750000000e-01,5.352172851562500000e-01,6.573486328125000000e-01
3.000000000000000000e+00,0.000000000000000000e+00,-7.000000000000000000e+00,-8.000000000000000000e+00,-4.000000000000000000e+00,-1.000000000000000000e+00,-1.000000000000000000e+00,2.000000000000000000e+00,-3.859252929687500000e-01,3.640136718750000000e-01,5.352172851562500000e-01,6.573486328125000000e-01
-4.000000000000000000e+00,3.000000000000000000e+00,8.000000000000000000e+00,3.000000000000000000e+00,0.000000000000000000e+00,0.000000000000000000e+00,-3.000000000000000000e+00,0.000000000000000000e+00,-3.847045898437500000e-01,3.644409179687500000e-01,5.350341796875000000e-01,6.579589843750000000e-01
-1.000000000000000000e+00,-2.000000000000000000e+00,1.000000000000000000e+00,2.000000000000000000e+00,1.000000000000000000e+00,-1.000000000000000000e+00,-2.000000000000000000e+00,1.000000000000000000e+00,-3.847045898437500000e-01,3.644409179687500000e-01,5.350341796875000000e-01,6.579589843750000000e-01
-5.000000000000000000e+00,-3.000000000000000000e+00,-1.000000000000000000e+00,-5.000000000000000000e+00,2.000000000000000000e+00,1.000000000000000000e+00,1.000000000000000000e+00,-2.000000000000000000e+00,-3.847045898437500000e-01,3.644409179687500000e-01,5.350341796875000000e-01,6.579589843750000000e-01
2.000000000000000000e+00,0.000000000000000000e+00,1.600000000000000000e+01,1.500000000000000000e+01,-1.000000000000000000e+00,-3.000000000000000000e+00,-2.000000000000000000e+00,-1.000000000000000000e+00,-3.847045898437500000e-01,3.644409179687500000e-01,5.350341796875000000e-01,6.579589843750000000e-01
-6.000000000000000000e+00,-4.000000000000000000e+00,-2.800000000000000000e+01,-9.000000000000000000e+00,-2.000000000000000000e+00,-1.000000000000000000e+00,1.000000000000000000e+00,-1.000000000000000000e+00,-3.845214843750000000e-01,3.638305664062500000e-01,5.353393554687500000e-01,6.580810546875000000e-01
-7.000000000000000000e+00,1.000000000000000000e+00,8.000000000000000000e+00,-1.000000000000000000e+00,1.000000000000000000e+00,0.000000000000000000e+00,0.000000000000000000e+00,1.000000000000000000e+00,-3.845214843750000000e-01,3.638305664062500000e-01,5.353393554687500000e-01,6.580810546875000000e-01
8.000000000000000000e+00,-1.000000000000000000e+00,-5.000000000000000000e+00,-2.000000000000000000e+00,-3.000000000000000000e+00,-1.000000000000000000e+00,-1.000000000000000000e+00,-2.000000000000000000e+00,-3.845214843750000000e-01,3.638305664062500000e-01,5.353393554687500000e-01,6.580810546875000000e-01
-7.000000000000000000e+00,-2.000000000000000000e+00,-7.000000000000000000e+00,-2.000000000000000000e+00,-2.000000000000000000e+00,-3.000000000000000000e+00,-1.000000000000000000e+00,0.000000000000000000e+00,-3.845214843750000000e-01,3.638305664062500000e-01,5.353393554687500000e-01,6.580810546875000000e-01
2.000000000000000000e+00,-2.000000000000000000e+00,-3.000000000000000000e+00,-5.000000000000000000e+00,-3.000000000000000000e+00,-3.000000000000000000e+00,-2.000000000000000000e+00,-6.000000000000000000e+00,-3.853759765625000000e-01,3.626098632812500000e-01,5.356445312500000000e-01,6.580810546875000000e-01
4.000000000000000000e+00,2.000000000000000000e+00,-6.000000000000000000e+00,-1.900000000000000000e+01,1.000000000000000000e+00,3.000000000000000000e+00,1.000000000000000000e+00,3.000000000000000000e+00,-3.853759765625000000e-01,3.626098632812500000e-01,5.356445312500000000e-01,6.580810546875000000e-01
-3.000000000000000000e+00,-2.000000000000000000e+00,1.800000000000000000e+01,2.500000000000000000e+01,0.000000000000000000e+00,-4.000000000000000000e+00,-3.000000000000000000e+00,-5.000000000000000000e+00,-3.853759765625000000e-01,3.626098632812500000e-01,5.356445312500000000e-01,6.580810546875000000e-01
-3.000000000000000000e+00,3.000000000000000000e+00,1.900000000000000000e+01,4.000000000000000000e+00,-1.000000000000000000e+00,0.000000000000000000e+00,-2.000000000000000000e+00,-4.000000000000000000e+00,-3.853759765625000000e-01,3.626098632812500000e-01,5.356445312500000000e-01,6.580810546875000000e-01
-1.000000000000000000e+01,-6.000000000000000000e+00,-5.200000000000000000e+01,-8.000000000000000000e+00,-5.000000000000000000e+00,-1.000000000000000000e+00,-1.000000000000000000e+00,-2.000000000000000000e+00,-3.862915039062500000e-01,3.615722656250000000e-01,5.357055664062500000e-01,6.580200195312500000e-01
6.000000000000000000e+00,-3.000000000000000000e+00,0.000000000000000000e+00,-7.000000000000000000e+00,-4.000000000000000000e+00,0.000000000000000000e+00,1.000000000000000000e+00,0.000000000000000000e+00,-3.862915039062500000e-01,3.615722656250000000e-01,5.357055664062500000e-01,6.580200195312500000e-01
-2.000000000000000000e+00,-1.000000000000000000e+00,-1.000000000000000000e+00,-1.000000000000000000e+00,-2.000000000000000000e+00,-2.000000000000000000e+00,-1.000000000000000000e+00,-1.000000000000000000e+00,-3.862915039062500000e-01,3.615722656250000000e-01,5.357055664062500000e-01,6.580200195312500000e-01
-2.000000000000000000e+00,1.000000000000000000e+00,3.000000000000000000e+00,1.000000000000000000e+00,1.000000000000000000e+00,0.000000000000000000e+00,-1.000000000000000000e+00,-2.000000000000000000e+00,-3.862915039062500000e-01,3.615722656250000000e-01,5.357055664062500000e-01,6.580200195312500000e-01
2.000000000000000000e+00,0.000000000000000000e+00,2.200000000000000000e+01,-3.000000000000000000e+00,2.000000000000000000e+00,0.000000000000000000e+00,1.000000000000000000e+00,2.000000000000000000e+00,-3.867797851562500000e-01,3.612060546875000000e-01,5.358276367187500000e-01,6.578369140625000000e-01
-3.000000000000000000e+00,-2.000000000000000000e+00,-5.000000000000000000e+00,2.000000000000000000e+00,0.000000000000000000e+00,-2.000000000000000000e+00,-1.000000000000000000e+00,-3.000000000000000000e+00,-3.867797851562500000e-01,3.612060546875000000e-01,5.358276367187500000e-01,6.578369140625000000e-01
0.000000000000000000e+00,-1.000000000000000000e+00,-1.300000000000000000e+01,-1.000000000000000000e+00,-1.000000000000000000e+00,-2.000000000000000000e+00,-2.000000000000000000e+00,0.000000000000000000e+00,-3.867797851562500000e-01,3.612060546875000000e-01,5.358276367187500000e-01,6.578369140625000000e-01
-3.000000000000000000e+00,-3.000000000000000000e+00,0.000000000000000000e+00,-2.000000000000000000e+00,-4.000000000000000000e+00,-1.000000000000000000e+00,-2.000000000000000000e+00,-2.000000000000000000e+00,-3.867797851562500000e-01,3.612060546875000000e-01,5.358276367187500000e-01,6.578369140625000000e-01
-2.000000000000000000e+00,0.000000000000000000e+00,-7.000000000000000000e+00,-6.000000000000000000e+00,-1.000000000000000000e+00,0.000000000000000000e+00,0.000000000000000000e+00,1.000000000000000000e+00,-3.869628906250000000e-01,3.610229492187500000e-01,5.360107421875000000e-01,6.576538085937500000e-01
-1.000000000000000000e+00,0.000000000000000000e+00,5.000000000000000000e+00,2.000000000000000000e+00,-2.000000000000000000e+00,-5.000000000000000000e+00,-1.000000000000000000e+00,-2.000000000000000000e+00,-3.869628906250000000e-01,3.610229492187500000e-01,5.360107421875000000e-01,6.576538085937500000e-01
-1.400000000000000000e+01,1.000000000000000000e+00,1.700000000000000000e+01,-3.000000000000000000e+00,4.000000000000000000e+00,2.000000000000000000e+00,0.000000000000000000e+00,-1.000000000000000000e+00,-3.869628906250000000e-01,3.610229492187500000e-01,5.360107421875000000e-01,6.576538085937500000e-01
1.900000000000000000e+01,-4.000000000000000000e+00,-1.900000000000000000e+01,-5.000000000000000000e+00,-1.000000000000000000e+00,-1.000000000000000000e+00,0.000000000000000000e+00,-5.000000000000000000e+00,-3.869628906250000000e-01,3.610229492187500000e-01,5.360107421875000000e-01,6.576538085937500000e-01
-2.000000000000000000e+00,2.000000000000000000e+00,5.000000000000000000e+00,6.000000000000000000e+00,-3.000000000000000000e+00,-2.000000000000000000e+00,-2.000000000000000000e+00,-1.000000000000000000e+00,-3.869018554687500000e-01,3.604125976562500000e-01,5.366210937500000000e-01,6.575927734375000000e-01
4.000000000000000000e+00,8.000000000000000000e+00,4.000000000000000000e+01,1.000000000000000000e+00,-3.000000000000000000e+00,-3.000000000000000000e+00,-4.000000000000000000e+00,2.000000000000000000e+00,-3.869018554687500000e-01,3.604125976562500000e-01,5.366210937500000000e-01,6.575927734375000000e-01
6.000000000000000000e+00,-3.000000000000000000e+00,-2.200000000000000000e+01,-7.000000000000000000e+00,-4.000000000000000000e+00,1.000000000000000000e+00,-1.000000000000000000e+00,0.000000000000000000e+00,-3.869018554687500000e-01,3.604125976562500000e-01,5.366210937500000000e-01,6.575927734375000000e-01
-2.000000000000000000e+00,-1.000000000000000000e+00,-8.000000000000000000e+00,-2.000000000000000000e+00,-3.000000000000000000e+00,-1.000000000000000000e+00,-1.000000000000000000e+00,-2.000000000000000000e+00,-3.869018554687500000e-01,3.604125976562500000e-01,5.366210937500000000e-01,6.575927734375000000e-01
-1.000000000000000000e+00,-7.000000000000000000e+00,-2.400000000000000000e+01,-5.000000000000000000e+00,0.000000000000000000e+00,-1.000000000000000000e+00,1.000000000000000000e+00,-1.000000000000000000e+00,-3.869628906250000000e-01,3.595581054687500000e-01,5.374145507812500000e-01,6.573486328125000000e-01
-9.000000000000000000e+00,-3.000000000000000000e+00,1.200000000000000000e+01,2.000000000000000000e+00,3.000000000000000000e+00,1.000000000000000000e+00,1.000000000000000000e+00,-5.000000000000000000e+00,-3.869628906250000000e-01,3.595581054687500000e-01,5.374145507812500000e-01,6.573486328125000000e-01
2.000000000000000000e+00,0.000000000000000000e+00,-1.800000000000000000e+01,-9.000000000000000000e+00,-5.000000000000000000e+00,-5.000000000000000000e+00,-3.000000000000000000e+00,-1.000000000000000000e+00,-3.869628906250000000e-01,3.595581054687500000e-01,5.374145507812500000e-01,6.573486328125000000e-01
-3.000000000000000000e+00,0.000000000000000000e+00,2.100000000000000000e+01,5.000000000000000000e+00,1.000000000000000000e+00,0.000000000000000000e+00,-1.000000000000000000e+00,1.000000000000000000e+00,-3.869628906250000000e-01,3.595581054687500000e-01,5.374145507812500000e-01,6.573486328125000000e-01
1.000000000000000000e+00,-4.000000000000000000e+00,-1.500000000000000000e+01,-6.000000000000000000e+00,0.000000000000000000e+00,0.000000000000000000e+00,0.000000000000000000e+00,-2.000000000000000000e+00,-3.870239257812500000e-01,3.585815429687500000e-01,5.383300781250000000e-01,6.571044921875000000e-01
5.000000000000000000e+00,1.000000000000000000e+00,-4.000000000000000000e+00,1.200000000000000000e+01,1.000000000000000000e+00,-1.000000000000000000e+00,-2.000000000000000000e+00,-1.000000000000000000e+00,-3.870239257812500000e-01,3.585815429687500000e-01,5.383300781250000000e-01,6.571044921875000000e-01
-2.000000000000000000e+00,1.000000000000000000e+00,1.600000000000000000e+01,-6.000000000000000000e+00,-2.000000000000000000e+00,0.000000000000000000e+00,-1.000000000000000000e+00,-2.000000000000000000e+00,-3.870239257812500000e-01,3.585815429687500000e-01,5.383300781250000000e-01,6.571044921875000000e-01
-2.000000000000000000e+00,1.000000000000000000e+00,-3.200000000000000000e+01,0.000000000000000000e+00,0.000000000000000000e+00,0.000000000000000000e+00,1.000000000000000000e+00,-1.000000000000000000e+00,-3.870239257812500000e-01,3.585815429687500000e-01,5.383300781250000000e-01,6.571044921875000000e-01
-3.000000000000000000e+00,4.000000000000000000e+00,9.000000000000000000e+00,0.000000000000000000e+00,-1.000000000000000000e+00,-1.000000000000000000e+00,-3.000000000000000000e+00,0.000000000000000000e+00,-3.872680664062500000e-01,3.571777343750000000e-01,5.394287109375000000e-01,6.567993164062500000e-01
-5.000000000000000000e+00,-2.000000000000000000e+00,9.000000000000000000e+00,0.000000000000000000e+00,2.000000000000000000e+00,1.000000000000000000e+00,0.000000000000000000e+00,1.000000000000000000e+00,-3.872680664062500000e-01,3.571777343750000000e-01,5.394287109375000000e-01,6.567993164062500000e-01
5.000000000000000000e+00,-4.000000000000000000e+00,-4.000000000000000000e+00,2.000000000000000000e+00,-1.000000000000000000e+00,-2.000000000000000000e+00,-1.000000000000000000e+00,1.000000000000000000e+00,-3.872680664062500000e-01,3.571777343750000000e-01,5.394287109375000000e-01,6.567993164062500000e-01
-3.000000000000000000e+00,-5.000000000000000000e+00,5.000000000000000000e+00,-9.000000000000000000e+00,-5.000000000000000000e+00,-4.000000000000000000e+00,-3.000000000000000000e+00,-4.000000000000000000e+00,-3.872680664062500000e-01,3.571777343750000000e-01,5.394287109375000000e-01,6.567993164062500000e-01
3.000000000000000000e+00,-1.000000000000000000e+00,2.000000000000000000e+00,2.000000000000000000e+00,2.000000000000000000e+00,0.000000000000000000e+00,-1.000000000000000000e+00,0.000000000000000000e+00,-3.869018554687500000e-01,3.558349609375000000e-01,5.404052734375000000e-01,6.569213867187500000e-01
-2.000000000000000000e+00,-2.000000000000000000e+00,-1.300000000000000000e+01,-7.000000000000000000e+00,-2.000000000000000000e+00,0.000000000000000000e+00,0.000000000000000000e+00,-2.000000000000000000e+00,-3.869018554687500000e-01,3.558349609375000000e-01,5.404052734375000000e-01,6.569213867187500000e-01
-1.000000000000000000e+00,0.000000000000000000e+00,1.000000000000000000e+01,2.000000000000000000e+00,-1.000000000000000000e+00,-1.000000000000000000e+00,0.000000000000000000e+00,0.000000000000000000e+00,-3.869018554687500000e-01,3.558349609375000000e-01,5.404052734375000000e-01,6.569213867187500000e-01
1.000000000000000000e+00,-2.000000000000000000e+00,-3.000000000000000000e+00,-1.100000000000000000e+01,-8.000000000000000000e+00,-1.000000000000000000e+00,1.000000000000000000e+00,4.000000000000000000e+00,-3.869018554687500000e-01,3.558349609375000000e-01,5.404052734375000000e-01,6.569213867187500000e-01
-6.000000000000000000e+00,3.000000000000000000e+00,2.100000000000000000e+01,8.000000000000000000e+00,2.000000000000000000e+00,-1.000000000000000000e+00,-3.000000000000000000e+00,-5.000000000000000000e+00,-3.861083984375000000e-01,3.547973632812500000e-01,5.410766601562500000e-01,6.574096679687500000e-01
-6.000000000000000000e+00,-5.000000000000000000e+00,-1.500000000000000000e+01,-2.000000000000000000e+00,0.000000000000000000e+00,0.000000000000000000e+00,2.000000000000000000e+00,-8.000000000000000000e+00,-3.861083984375000000e-01,3.547973632812500000e-01,5.410766601562500000e-01,6.574096679687500000e-01
-1.000000000000000000e+00,1.000000000000000000e+00,-3.000000000000000000e+00,-4.000000000000000000e+00,1.000000000000000000e+00,-1.000000000000000000e+00,1.000000000000000000e+00,4.000000000000000000e+00,-3.861083984375000000e-01,3.547973632812500000e-01,5.410766601562500000e-01,6.574096679687500000e-01
-5.000000000000000000e+00,-3.000000000000000000e+00,-1.000000000000000000e+00,2.000000000000000000e+00,0.000000000000000000e+00,-2.000000000000000000e+00,-2.000000000000000000e+00,-1.000000000000000000e+00,-3.861083984375000000e-01,3.547973632812500000e-01,5.410766601562500000e-01,6.574096679687500000e-01
-1.000000000000000000e+00,2.000000000000000000e+00,3.000000000000000000e+00,-5.000000000000000000e+00,-4.000000000000000000e+00,-1.000000000000000000e+00,0.000000000000000000e+00,2.000000000000000000e+00,-3.860473632812500000e-01,3.538208007812500000e-01,5.414428710937500000e-01,6.577148437500000000e-01
-2.000000000000000000e+00,-1.000000000000000000e+00,-1.000000000000000000e+00,0.000000000000000000e+00,0.000000000000000000e+00,-3.000000000000000000e+00,-1.000000000000000000e+00,-1.000000000000000000e+00,-3.860473632812500000e-01,3.538208007812500000e-01,5.414428710937500000e-01,6.577148437500000000e-01
7.000000000000000000e+00,0.000000000000000000e+00,8.000000000000000000e+00,0.000000000000000000e+00,0.000000000000000000e+00,-1.000000000000000000e+00,-1.000000000000000000e+00,-4.000000000000000000e+00,-3.860473632812500000e-01,3.538208007812500000e-01,5.414428710937500000e-01,6.577148437500000000e-01
-5.000000000000000000e+00,0.000000000000000000e+00,-5.000000000000000000e+00,-8.000000000000000000e+00,-2.000000000000000000e+00,-1.000000000000000000e+00,-1.000000000000000000e+00,0.000000000000000000e+00,-3.860473632812500000e-01,3.538208007812500000e-01,5.414428710937500000e-01,6.577148437500000000e-01
-3.000000000000000000e+00,0.000000000000000000e+00,-1.100000000000000000e+01,4.000000000000000000e+00,-3.000000000000000000e+00,-2.000000000000000000e+00,-2.000000000000000000e+00,-1.000000000000000000e+00,-3.859252929687500000e-01,3.530883789062500000e-01,5.414428710937500000e-01,6.581420898437500000e-01
5.000000000000000000e+00,-4.000000000000000000e+00,-3.000000000000000000e+00,7.000000000000000000e+00,1.000000000000000000e+00,0.000000000000000000e+00,5.000000000000000000e+00,1.200000000000000000e+01,-3.859252929687500000e-01,3.530883789062500000e-01,5.414428710937500000e-01,6.581420898437500000e-01
-8.000000000000000000e+00,1.000000000000000000e+00,3.000000000000000000e+00,-4.000000000000000000e+00,-2.000000000000000000e+00,-2.000000000000000000e+00,-6.000000000000000000e+00,-1.200000000000000000e+01,-3.859252929687500000e-01,3.530883789062500000e-01,5.414428710937500000e-01,6.581420898437500000e-01
2.000000000000000000e+00,-2.000000000000000000e+00,-1.500000000000000000e+01,-6.000000000000000000e+00,-1.000000000000000000e+00,0.000000000000000000e+00,2.000000000000000000e+00,1.000000000000000000e+00,-3.859252929687500000e-01,3.530883789062500000e-01,5.414428710937500000e-01,6.581420898437500000e-01
-2.000000000000000000e+00,0.000000000000000000e+00,5.000000000000000000e+00,1.000000000000000000e+00,2.000000000000000000e+00,0.000000000000000000e+00,0.000000000000000000e+00,-2.000000000000000000e+00,-3.861083984375000000e-01,3.524780273437500000e-01,5.412597656250000000e-01,6.585083007812500000e-01
2.000000000000000000e+00,-3.000000000000000000e+00,-5.000000000000000000e+00,-3.000000000000000000e+00,-3.000000000000000000e+00,0.000000000000000000e+00,-5.000000000000000000e+00,-2.000000000000000000e+00,-3.861083984375000000e-01,3.524780273437500000e-01,5.412597656250000000e-01,6.585083007812500000e-01
-7.000000000000000000e+00,-1.000000000000000000e+00,-5.000000000000000000e+00,-6.000000000000000000e+00,-1.000000000000000000e+00,-2.000000000000000000e+00,3.000000000000000000e+00,5.000000000000000000e+00,-3.861083984375000000e-01,3.524780273437500000e-01,5.412597656250000000e-01,6.585083007812500000e-01
1.000000000000000000e+00,0.000000000000000000e+00,-2.000000000000000000e+00,4.000000000000000000e+00,3.000000000000000000e+00,0.000000000000000000e+00,-2.000000000000000000e+00,2.000000000000000000e+00,-3.861083984375000000e-01,3.524780273437500000e-01,5.412597656250000000e-01,6.585083007812500000e-01
-3.000000000000000000e+00,0.000000000000000000e+00,9.000000000000000000e+00,-1.000000000000000000e+00,-3.000000000000000000e+00,-4.000000000000000000e+00,-3.000000000000000000e+00,-2.000000000000000000e+00,-3.861694335937500000e-01,3.519287109375000000e-01,5.410766601562500000e-01,6.589355468750000000e-01
-5.000000000000000000e+00,-1.000000000000000000e+00,-1.000000000000000000e+01,-1.000000000000000000e+00,-3.000000000000000000e+00,-5.000000000000000000e+00,-4.000000000000000000e+00,-4.000000000000000000e+00,-3.861694335937500000e-01,3.519287109375000000e-01,5.410766601562500000e-01,6.589355468750000000e-01
2.000000000000000000e+00,1.000000000000000000e+00,3.000000000000000000e+00,3.000000000000000000e+00,-2.000000000000000000e+00,1.000000000000000000e+00,0.000000000000000000e+00,-1.000000000000000000e+00,-3.861694335937500000e-01,3.519287109375000000e-01,5.410766601562500000e-01,6.589355468750000000e-01
9.000000000000000000e+00,0.000000000000000000e+00,-8.000000000000000000e+00,-5.000000000000000000e+00,3.000000000000000000e+00,1.000000000000000000e+00,1.000000000000000000e+00,-2.000000000000000000e+00,-3.861694335937500000e-01,3.519287109375000000e-01,5.410766601562500000e-01,6.589355468750000000e-01
-1.300000000000000000e+01,-1.000000000000000000e+00,1.900000000000000000e+01,-2.000000000000000000e+00,-6.000000000000000000e+00,-4.000000000000000000e+00,-2.000000000000000000e+00,-5.000000000000000000e+00,-3.865966796875000000e-01,3.516845703125000000e-01,5.410156250000000000e-01,6.588134765625000000e-01
1.000000000000000000e+00,-4.000000000000000000e+00,4.000000000000000000e+00,-1.000000000000000000e+00,-2.000000000000000000e+00,0.000000000000000000e+00,-3.000000000000000000e+00,-2.000000000000000000e+00,-3.865966796875000000e-01,3.516845703125000000e-01,5.410156250000000000e-01,6.588134765625000000e-01
-3.000000000000000000e+00,-5.000000000000000000e+00,-9.000000000000000000e+00,1.100000000000000000e+01,1.000000000000000000e+00,-4.000000000000000000e+00,-3.000000000000000000e+00,-5.000000000000000000e+00,-3.865966796875000000e-01,3.516845703125000000e-01,5.410156250000000000e-01,6.588134765625000000e-01
-2.000000000000000000e+00,-1.000000000000000000e+00,4.000000000000000000e+00,-5.000000000000000000e+00,0.000000000000000000e+00,-2.000000000000000000e+00,1.000000000000000000e+00,2.000000000000000000e+00,-3.865966796875000000e-01,3.516845703125000000e-01,5.410156250000000000e-01,6.588134765625000000e-01
6.000000000000000000e+00,0.000000000000000000e+00,-4.000000000000000000e+00,-1.000000000000000000e+01,0.000000000000000000e+00,2.000000000000000000e+00,1.000000000000000000e+00,3.000000000000000000e+00,-3.875732421875000000e-01,3.516235351562500000e-01,5.411987304687500000e-01,6.582031250000000000e-01
2.000000000000000000e+00,3.000000000000000000e+00,3.700000000000000000e+01,6.000000000000000000e+00,1.000000000000000000e+00,0.000000000000000000e+00,-2.000000000000000000e+00,-3.000000000000000000e+00,-3.875732421875000000e-01,3.516235351562500000e-01,5.411987304687500000e-01,6.582031250000000000e-01
-5.000000000000000000e+00,-5.000000000000000000e+00,-1.000000000000000000e+00,-8.000000000000000000e+00,-4.000000000000000000e+00,-1.000000000000000000e+00,0.000000000000000000e+00,-2.000000000000000000e+00,-3.875732421875000000e-01,3.516235351562500000e-01,5.411987304687500000e-01,6.582031250000000000e-01
-7.000000000000000000e+00,0.000000000000000000e+00,-1.000000000000000000e+00,1.000000000000000000e+01,2.000000000000000000e+00,-1.000000000000000000e+00,-1.000000000000000000e+00,-2.000000000000000000e+00,-3.875732421875000000e-01,3.516235351562500000e-01,5.411987304687500000e-01,6.582031250000000000e-01
2.000000000000000000e+00,-2.000000000000000000e+00,5.000000000000000000e+00,2.000000000000000000e+00,3.000000000000000000e+00,-1.000000000000000000e+00,-2.000000000000000000e+00,-2.000000000000000000e+00,-3.880004882812500000e-01,3.513183593750000000e-01,5.413818359375000000e-01,6.578979492187500000e-01
-3.000000000000000000e+00,0.000000000000000000e+00,3.000000000000000000e+00,3.000000000000000000e+00,1.000000000000000000e+00,0.000000000000000000e+00,0.000000000000000000e+00,-2.000000000000000000e+00,-3.880004882812500000e-01,3.513183593750000000e-01,5.413818359375000000e-01,6.578979492187500000e-01
2.000000000000000000e+00,0.000000000000000000e+00,-3.000000000000000000e+00,-1.000000000000000000e+00,1.000000000000000000e+00,1.000000000000000000e+00,3.000000000000000000e+00,2.000000000000000000e+00,-3.880004882812500000e-01,3.513183593750000000e-01,5.413818359375000000e-01,6.578979492187500000e-01
-3.000000000000000000e+00,-2.000000000000000000e+00,-5.000000000000000000e+00,-1.000000000000000000e+00,0.000000000000000000e+00,-2.000000000000000000e+00,0.000000000000000000e+00,-2.000000000000000000e+00,-3.880004882812500000e-01,3.513183593750000000e-01,5.413818359375000000e-01,6.578979492187500000e-01
-1.000000000000000000e+00,-1.000000000000000000e+00,3.000000000000000000e+00,3.000000000000000000e+00,-2.000000000000000000e+00,-1.000000000000000000e+00,-1.000000000000000000e+00,-2.000000000000000000e+00,-3.880615234375000000e-01,3.511962890625000000e-01,5.411987304687500000e-01,6.580810546875000000e-01
2.000000000000000000e+00,-2.000000000000000000e+00,-1.500000000000000000e+01,-6.000000000000000000e+00,-3.000000000000000000e+00,-2.000000000000000000e+00,2.000000000000000000e+00,0.000000000000000000e+00,-3.880615234375000000e-01,3.511962890625000000e-01,5.411987304687500000e-01,6.580810546875000000e-01
-3.000000000000000000e+00,-1.000000000000000000e+00,-7.000000000000000000e+00,-4.000000000000000000e+00,2.000000000000000000e+00,4.000000000000000000e+00,0.000000000000000000e+00,-1.000000000000000000e+00,-3.880615234375000000e-01,3.511962890625000000e-01,5.411987304687500000e-01,6.580810546875000000e-01
-5.000000000000000000e+00,-1.000000000000000000e+00,8.000000000000000000e+00,5.000000000000000000e+00,-2.000000000000000000e+00,-2.000000000000000000e+00,-3.000000000000000000e+00,-2.000000000000000000e+00,-3.880615234375000000e-01,3.511962890625000000e-01,5.411987304687500000e-01,6.580810546875000000e-01
0.000000000000000000e+00,1.000000000000000000e+00,-4.000000000000000000e+00,-1.000000000000000000e+00,-4.000000000000000000e+00,-2.000000000000000000e+00,-4.000000000000000000e+00,-2.000000000000000000e+00,-3.876342773437500000e-01,3.518066406250000000e-01,5.407714843750000000e-01,6.583862304687500000e-01
2.000000000000000000e+00,-1.000000000000000000e+00,-1.800000000000000000e+01,-1.000000000000000000e+01,-6.000000000000000000e+00,-3.000000000000000000e+00,0.000000000000000000e+00,1.000000000000000000e+00,-3.876342773437500000e-01,3.518066406250000000e-01,5.407714843750000000e-01,6.583862304687500000e-01
-3.000000000000000000e+00,3.000000000000000000e+00,2.400000000000000000e+01,1.700000000000000000e+01,4.000000000000000000e+00,-1.000000000000000000e+00,-2.000000000000000000e+00,-1.000000000000000000e+00,-3.876342773437500000e-01,3.518066406250000000e-01,5.407714843750000000e-01,6.583862304687500000e-01
-7.000000000000000000e+00,1.000000000000000000e+00,8.000000000000000000e+00,1.000000000000000000e+00,0.000000000000000000e+00,0.000000000000000000e+00,-1.000000000000000000e+00,-4.000000000000000000e+00,-3.876342773437500000e-01,3.518066406250000000e-01,5.407714843750000000e-01,6.583862304687500000e-01
3.000000000000000000e+00,-4.000000000000000000e+00,-1.200000000000000000e+01,8.000000000000000000e+00,2.000000000000000000e+00,0.000000000000000000e+00,0.000000000000000000e+00,2.000000000000000000e+00,-3.873291015625000000e-01,3.526611328125000000e-01,5.408935546875000000e-01,6.580200195312500000e-01
0.000000000000000000e+00,3.000000000000000000e+00,-1.400000000000000000e+01,-2.000000000000000000e+01,-2.000000000000000000e+00,0.000000000000000000e+00,1.000000000000000000e+00,1.000000000000000000e+00,-3.873291015625000000e-01,3.526611328125000000e-01,5.408935546875000000e-01,6.580200195312500000e-01
-4.000000000000000000e+00,-2.000000000000000000e+00,3.200000000000000000e+01,6.000000000000000000e+00,-4.000000000000000000e+00,-5.000000000000000000e+00,-3.000000000000000000e+00,-4.000000000000000000e+00,-3.873291015625000000e-01,3.526611328125000000e-01,5.408935546875000000e-01,6.580200195312500000e-01
-3.000000000000000000e+00,-8.000000000000000000e+00,-1.300000000000000000e+01,-1.000000000000000000e+01,-5.000000000000000000e+00,-3.000000000000000000e+00,-2.000000000000000000e+00,-3.000000000000000000e+00,-3.873291015625000000e-01,3.526611328125000000e-01,5.408935546875000000e-01,6.580200195312500000e-01
0.000000000000000000e+00,-2.000000000000000000e+00,-1.400000000000000000e+01,-5.000000000000000000e+00,1.000000000000000000e+00,0.000000000000000000e+00,1.000000000000000000e+00,2.000000000000000000e+00,-3.870239257812500000e-01,3.537597656250000000e-01,5.410156250000000000e-01,6.574707031250000000e-01
-1.000000000000000000e+00,0.000000000000000000e+00,-1.000000000000000000e+00,9.000000000000000000e+00,1.000000000000000000e+00,-2.000000000000000000e+00,-4.000000000000000000e+00,-1.000000000000000000e+00,-3.870239257812500000e-01,3.537597656250000000e-01,5.410156250000000000e-01,6.574707031250000000e-01
1.000000000000000000e+00,-1.000000000000000000e+00,-1.400000000000000000e+01,-7.000000000000000000e+00,1.000000000000000000e+00,2.000000000000000000e+00,2.000000000000000000e+00,1.000000000000000000e+00,-3.870239257812500000e-01,3.537597656250000000e-01,5.410156250000000000e-01,6.574707031250000000e-01
2.000000000000000000e+00,-1.000000000000000000e+00,-2.000000000000000000e+00,0.000000000000000000e+00,-1.000000000000000000e+00,-1.000000000000000000e+00,-1.000000000000000000e+00,0.000000000000000000e+00,-3.870239257812500000e-01,3.537597656250000000e-01,5.410156250000000000e-01,6.574707031250000000e-01
2.000000000000000000e+00,-2.000000000000000000e+00,7.000000000000000000e+00,-3.000000000000000000e+00,-2.000000000000000000e+00,-1.000000000000000000e+00,1.000000000000000000e+00,0.000000000000000000e+00,-3.866577148437500000e-01,3.548583984375000000e-01,5.410156250000000000e-01,6.571044921875000000e-01
-3.000000000000000000e+00,-3.000000000000000000e+00,-7.000000000000000000e+00,-3.000000000000000000e+00,-5.000000000000000000e+00,-2.000000000000000000e+00,-3.000000000000000000e+00,-3.000000000000000000e+00,-3.866577148437500000e-01,3.548583984375000000e-01,5.410156250000000000e-01,6.571044921875000000e-01
2.000000000000000000e+00,-1.000000000000000000e+00,-1.100000000000000000e+01,-4.000000000000000000e+00,1.000000000000000000e+00,-1.000000000000000000e+00,-1.000000000000000000e+00,1.000000000000000000e+00,-3.866577148437500000e-01,3.548583984375000000e-01,5.410156250000000000e-01,6.571044921875000000e-01
-6.000000000000000000e+00,-1.000000000000000000e+00,3.000000000000000000e+00,4.000000000000000000e+00,3.000000000000000000e+00,0.000000000000000000e+00,0.000000000000000000e+00,0.000000000000000000e+00,-3.866577148437500000e-01,3.548583984375000000e-01,5.410156250000000000e-01,6.571044921875000000e-01
6.000000000000000000e+00,1.000000000000000000e+00,0.000000000000000000e+00,-6.000000000000000000e+00,-2.000000000000000000e+00,-3.000000000000000000e+00,-1.000000000000000000e+00,-2.000000000000000000e+00,-3.861694335937500000e-01,3.559570312500000000e-01,5.409545898437500000e-01,6.568603515625000000e-01
2.000000000000000000e+00,1.000000000000000000e+00,-3.000000000000000000e+00,1.000000000000000000e+00,0.000000000000000000e+00,-2.000000000000000000e+00,0.000000000000000000e+00,-1.000000000000000000e+00,-3.861694335937500000e-01,3.559570312500000000e-01,5.409545898437500000e-01,6.568603515625000000e-01
-9.000000000000000000e+00,-2.000000000000000000e+00,-6.000000000000000000e+00,-7.000000000000000000e+00,-4.000000000000000000e+00,-2.000000000000000000e+00,-2.000000000000000000e+00,0.000000000000000000e+00,-3.861694335937500000e-01,3.559570312500000000e-01,5.409545898437500000e-01,6.568603515625000000e-01
4.000000000000000000e+00,1.000000000000000000e+00,2.000000000000000000e+00,7.000000000000000000e+00,2.000000000000000000e+00,-1.000000000000000000e+00,-1.000000000000000000e+00,-3.000000000000000000e+00,-3.861694335937500000e-01,3.559570312500000000e-01,5.409545898437500000e-01,6.568603515625000000e-01
0.000000000000000000e+00,-4.000000000000000000e+00,4.000000000000000000e+00,-3.000000000000000000e+00,1.000000000000000000e+00,-1.000000000000000000e+00,-4.000000000000000000e+00,-3.000000000000000000e+00,-3.853759765625000000e-01,3.572387695312500000e-01,5.409545898437500000e-01,6.566162109375000000e-01
-1.000000000000000000e+00,0.000000000000000000e+00,1.000000000000000000e+00,-4.000000000000000000e+00,1.000000000000000000e+00,2.000000000000000000e+00,1.000000000000000000e+00,2.000000000000000000e+00,-3.853759765625000000e-01,3.572387695312500000e-01,5.409545898437500000e-01,6.566162109375000000e-01
-2.000000000000000000e+00,-1.000000000000000000e+00,-1.100000000000000000e+01,-1.700000000000000000e+01,-4.000000000000000000e+00,-1.000000000000000000e+00,-2.000000000000000000e+00,-1.000000000000000000e+00,-3.853759765625000000e-01,3.572387695312500000e-01,5.409545898437500000e-01,6.566162109375000000e-01
-2.000000000000000000e+00,-2.000000000000000000e+00,2.000000000000000000e+01,2.300000000000000000e+01,2.000000000000000000e+00,1.000000000000000000e+00,0.000000000000000000e+00,1.000000000000000000e+00,-3.853759765625000000e-01,3.572387695312500000e-01,5.409545898437500000e-01,6.566162109375000000e-01
-1.000000000000000000e+00,-3.000000000000000000e+00,-3.100000000000000000e+01,0.000000000000000000e+00,-2.000000000000000000e+00,-1.000000000000000000e+00,0.000000000000000000e+00,1.000000000000000000e+00,-3.842773437500000000e-01,3.587036132812500000e-01,5.418090820312500000e-01,6.558227539062500000e-01
-4.000000000000000000e+00,-3.000000000000000000e+00,1.000000000000000000e+00,3.000000000000000000e+00,0.000000000000000000e+00,-1.000000000000000000e+00,-2.000000000000000000e+00,-2.000000000000000000e+00,-3.842773437500000000e-01,3.587036132812500000e-01,5.418090820312500000e-01,6.558227539062500000e-01
0.000000000000000000e+00,-1.000000000000000000e+00,-1.200000000000000000e+01,-7.000000000000000000e+00,2.000000000000000000e+00,1.000000000000000000e+00,1.000000000000000000e+00,-2.000000000000000000e+00,-3.842773437500000000e-01,3.587036132812500000e-01,5.418090820312500000e-01,6.558227539062500000e-01
2.000000000000000000e+00,3.000000000000000000e+00,-2.000000000000000000e+00,-5.000000000000000000e+00,1.000000000000000000e+00,0.000000000000000000e+00,0.000000000000000000e+00,0.000000000000000000e+00,-3.842773437500000000e-01,3.587036132812500000e-01,5.418090820312500000e-01,6.558227539062500000e-01
-2.000000000000000000e+00,2.000000000000000000e+00,1.500000000000000000e+01,-3.000000000000000000e+00,-2.000000000000000000e+00,-2.000000000000000000e+00,1.000000000000000000e+00,-1.000000000000000000e+00,-3.834228515625000000e-01,3.592529296875000000e-01,5.439453125000000000e-01,6.542358398437500000e-01
-2.000000000000000000e+00,-5.000000000000000000e+00,-1.200000000000000000e+01,0.000000000000000000e+00,1.000000000000000000e+00,-1.000000000000000000e+00,1.000000000000000000e+00,-1.000000000000000000e+00,-3.834228515625000000e-01,3.592529296875000000e-01,5.439453125000000000e-01,6.542358398437500000e-01
3.000000000000000000e+00,0.000000000000000000e+00,-1.000000000000000000e+00,4.000000000000000000e+00,-1.000000000000000000e+00,-3.000000000000000000e+00,-2.000000000000000000e+00,-2.000000000000000000e+00,-3.834228515625000000e-01,3.592529296875000000e-01,5.439453125000000000e-01,6.542358398437500000e-01
-1.000000000000000000e+00,-1.000000000000000000e+00,-3.000000000000000000e+00,-4.000000000000000000e+00,-4.000000000000000000e+00,-1.000000000000000000e+00,-1.000000000000000000e+00,-1.000000000000000000e+00,-3.834228515625000000e-01,3.592529296875000000e-01,5.439453125000000000e-01,6.542358398437500000e-01
-3.000000000000000000e+00,1.000000000000000000e+00,3.000000000000000000e+00,-1.000000000000000000e+00,-2.000000000000000000e+00,-2.000000000000000000e+00,0.000000000000000000e+00,0.000000000000000000e+00,-3.826904296875000000e-01,3.576049804687500000e-01,5.473022460937500000e-01,6.527099609375000000e-01
-3.000000000000000000e+00,0.000000000000000000e+00,2.000000000000000000e+00,1.200000000000000000e+01,-2.000000000000000000e+00,0.000000000000000000e+00,-1.000000000000000000e+00,-2.000000000000000000e+00,-3.826904296875000000e-01,3.576049804687500000e-01,5.473022460937500000e-01,6.527099609375000000e-01
6.000000000000000000e+00,1.000000000000000000e+00,1.000000000000000000e+00,-7.000000000000000000e+00,-4.000000000000000000e+00,-2.000000000000000000e+00,0.000000000000000000e+00,4.000000000000000000e+00,-3.826904296875000000e-01,3.576049804687500000e-01,5.473022460937500000e-01,6.527099609375000000e-01
-3.000000000000000000e+00,-1.000000000000000000e+00,-2.000000000000000000e+00,-3.000000000000000000e+00,-1.000000000000000000e+00,0.000000000000000000e+00,-2.000000000000000000e+00,-3.000000000000000000e+00,-3.826904296875000000e-01,3.576049804687500000e-01,5.473022460937500000e-01,6.527099609375000000e-01
-6.000000000000000000e+00,-2.000000000000000000e+00,6.000000000000000000e+00,3.000000000000000000e+00,1.000000000000000000e+00,1.000000000000000000e+00,-1.000000000000000000e+00,-3.000000000000000000e+00,-3.812866210937500000e-01,3.544921875000000000e-01,5.512695312500000000e-01,6.519165039062500000e-01
0.000000000000000000e+00,-2.000000000000000000e+00,-1.000000000000000000e+00,2.000000000000000000e+00,2.000000000000000000e+00,0.000000000000000000e+00,-1.000000000000000000e+00,-2.000000000000000000e+00,-3.812866210937500000e-01,3.544921875000000000e-01,5.512695312500000000e-01,6.519165039062500000e-01
0.000000000000000000e+00,1.000000000000000000e+00,1.000000000000000000e+01,-1.000000000000000000e+00,0.000000000000000000e+00,-3.000000000000000000e+00,-2.000000000000000000e+00,-2.000000000000000000e+00,-3.812866210937500000e-01,3.544921875000000000e-01,5.512695312500000000e-01,6.519165039062500000e-01
0.000000000000000000e+00,0.000000000000000000e+00,-1.600000000000000000e+01,-1.300000000000000000e+01,-4.000000000000000000e+00,-1.000000000000000000e+00,1.000000000000000000e+00,0.000000000000000000e+00,-3.812866210937500000e-01,3.544921875000000000e-01,5.512695312500000000e-01,6.519165039062500000e-01
-6.000000000000000000e+00,-5.000000000000000000e+00,4.000000000000000000e+00,8.000000000000000000e+00,-5.000000000000000000e+00,-4.000000000000000000e+00,-5.000000000000000000e+00,-2.000000000000000000e+00,-3.793334960937500000e-01,3.501586914062500000e-01,5.555419921875000000e-01,6.517944335937500000e-01
1.000000000000000000e+00,-3.000000000000000000e+00,6.000000000000000000e+00,1.000000000000000000e+00,-2.000000000000000000e+00,-1.000000000000000000e+00,-1.000000000000000000e+00,-1.000000000000000000e+00,-3.793334960937500000e-01,3.501586914062500000e-01,5.555419921875000000e-01,6.517944335937500000e-01
-1.000000000000000000e+00,-5.000000000000000000e+00,-3.300000000000000000e+01,-5.000000000000000000e+00,-6.000000000000000000e+00,-4.000000000000000000e+00,-5.000000000000000000e+00,-4.000000000000000000e+00,-3.793334960937500000e-01,3.501586914062500000e-01,5.555419921875000000e-01,6.517944335937500000e-01
-1.000000000000000000e+00,-1.200000000000000000e+01,-3.000000000000000000e+00,-2.800000000000000000e+01,-5.000000000000000000e+00,-1.000000000000000000e+00,-1.000000000000000000e+00,1.000000000000000000e+00,-3.793334960937500000e-01,3.501586914062500000e-01,5.555419921875000000e-01,6.517944335937500000e-01
0.000000000000000000e+00,1.000000000000000000e+01,-2.000000000000000000e+00,9.000000000000000000e+00,9.000000000000000000e+00,0.000000000000000000e+00,1.000000000000000000e+00,0.000000000000000000e+00,-3.771362304687500000e-01,3.454589843750000000e-01,5.596313476562500000e-01,6.520385742187500000e-01
-2.000000000000000000e+00,7.000000000000000000e+00,4.000000000000000000e+00,-8.000000000000000000e+00,-1.800000000000000000e+01,-9.000000000000000000e+00,-4.000000000000000000e+00,-1.000000000000000000e+00,-3.771362304687500000e-01,3.454589843750000000e-01,5.596313476562500000e-01,6.520385742187500000e-01
-1.000000000000000000e+00,-1.000000000000000000e+00,1.200000000000000000e+01,2.300000000000000000e+01,2.100000000000000000e+01,8.000000000000000000e+00,1.000000000000000000e+00,0.000000000000000000e+00,-3.771362304687500000e-01,3.454589843750000000e-01,5.596313476562500000e-01,6.520385742187500000e-01
0.000000000000000000e+00,0.000000000000000000e+00,4.000000000000000000e+00,-4.000000000000000000e+00,-4.000000000000000000e+00,0.000000000000000000e+00,0.000000000000000000e+00,-1.000000000000000000e+00,-3.771362304687500000e-01,3.454589843750000000e-01,5.596313476562500000e-01,6.520385742187500000e-01
1.000000000000000000e+00,-6.000000000000000000e+00,-1.100000000000000000e+01,5.000000000000000000e+00,7.000000000000000000e+00,2.000000000000000000e+00,-1.000000000000000000e+00,1.000000000000000000e+00,-3.750000000000000000e-01,3.408203125000000000e-01,5.627441406250000000e-01,6.530151367187500000e-01
-2.000000000000000000e+00,0.000000000000000000e+00,6.000000000000000000e+00,7.000000000000000000e+00,6.000000000000000000e+00,6.000000000000000000e+00,-1.000000000000000000e+00,0.000000000000000000e+00,-3.750000000000000000e-01,3.408203125000000000e-01,5.627441406250000000e-01,6.530151367187500000e-01
-2.000000000000000000e+00,3.000000000000000000e+00,-1.000000000000000000e+00,-6.000000000000000000e+00,-1.100000000000000000e+01,-6.000000000000000000e+00,-2.000000000000000000e+00,-2.000000000000000000e+00,-3.750000000000000000e-01,3.408203125000000000e-01,5.627441406250000000e-01,6.530151367187500000e-01
1.000000000000000000e+00,0.000000000000000000e+00,1.000000000000000000e+00,8.000000000000000000e+00,-3.000000000000000000e+00,-4.000000000000000000e+00,-2.000000000000000000e+00,-2.000000000000000000e+00,-3.750000000000000000e-01,3.408203125000000000e-01,5.627441406250000000e-01,6.530151367187500000e-01
-2.000000000000000000e+00,-3.000000000000000000e+00,-3.000000000000000000e+00,-1.300000000000000000e+01,-1.000000000000000000e+00,-1.000000000000000000e+00,-1.000000000000000000e+00,-1.000000000000000000e+00,-3.735351562500000000e-01,3.374023437500000000e-01,5.646362304687500000e-01,6.539916992187500000e-01
-2.000000000000000000e+00,-5.000000000000000000e+00,-3.000000000000000000e+01,-1.400000000000000000e+01,-4.000000000000000000e+00,-4.000000000000000000e+00,0.000000000000000000e+00,-1.000000000000000000e+00,-3.735351562500000000e-01,3.374023437500000000e-01,5.646362304687500000e-01,6.539916992187500000e-01
-1.000000000000000000e+00,-3.000000000000000000e+00,4.000000000000000000e+00,1.000000000000000000e+00,-1.000000000000000000e+00,0.000000000000000000e+00,1.000000000000000000e+00,0.000000000000000000e+00,-3.735351562500000000e-01,3.374023437500000000e-01,5.646362304687500000e-01,6.539916992187500000e-01
-1.000000000000000000e+00,-1.000000000000000000e+00,-9.000000000000000000e+00,1.400000000000000000e+01,2.000000000000000000e+00,1.000000000000000000e+00,-2.000000000000000000e+00,0.000000000000000000e+00,-3.735351562500000000e-01,3.374023437500000000e-01,5.646362304687500000e-01,6.539916992187500000e-01
-3.000000000000000000e+00,1.000000000000000000e+00,4.000000000000000000e+00,-3.400000000000000000e+01,-1.200000000000000000e+01,-3.000000000000000000e+00,-2.000000000000000000e+00,0.000000000000000000e+00,-3.734741210937500000e-01,3.345336914062500000e-01,5.657958984375000000e-01,6.544799804687500000e-01
0.000000000000000000e+00,0.000000000000000000e+00,1.200000000000000000e+01,2.000000000000000000e+01,4.000000000000000000e+00,0.000000000000000000e+00,1.000000000000000000e+00,-1.000000000000000000e+00,-3.734741210937500000e-01,3.345336914062500000e-01,5.657958984375000000e-01,6.544799804687500000e-01
-2.000000000000000000e+00,-3.000000000000000000e+00,-1.300000000000000000e+01,-9.000000000000000000e+00,-4.000000000000000000e+00,-3.000000000000000000e+00,-1.000000000000000000e+00,-2.000000000000000000e+00,-3.734741210937500000e-01,3.345336914062500000e-01,5.657958984375000000e-01,6.544799804687500000e-01
0.000000000000000000e+00,2.000000000000000000e+00,7.000000000000000000e+00,1.900000000000000000e+01,3.000000000000000000e+00,-1.000000000000000000e+00,0.000000000000000000e+00,0.000000000000000000e+00,-3.734741210937500000e-01,3.345336914062500000e-01,5.657958984375000000e-01,6.544799804687500000e-01
