0.000000000000000000e+00,-3.000000000000000000e+00,9.000000000000000000e+00,7.000000000000000000e+00,6.000000000000000000e+00,2.000000000000000000e+00,1.000000000000000000e+00,0.000000000000000000e+00,-3.023681640625000000e-01,2.789306640625000000e-01,3.159179687500000000e-01,8.549194335937500000e-01
-1.000000000000000000e+01,-8.000000000000000000e+00,-5.000000000000000000e+00,-5.000000000000000000e+00,-1.200000000000000000e+01,-4.000000000000000000e+00,-3.000000000000000000e+00,-1.000000000000000000e+00,-3.023681640625000000e-01,2.789306640625000000e-01,3.159179687500000000e-01,8.549194335937500000e-01
4.000000000000000000e+00,1.000000000000000000e+01,1.500000000000000000e+01,-8.000000000000000000e+00,2.000000000000000000e+00,-1.000000000000000000e+00,-4.000000000000000000e+00,-1.000000000000000000e+00,-3.018798828125000000e-01,2.795410156250000000e-01,3.160400390625000000e-01,8.548583984375000000e-01
-4.000000000000000000e+00,-8.000000000000000000e+00,-2.200000000000000000e+01,5.000000000000000000e+00,7.000000000000000000e+00,2.000000000000000000e+00,-1.000000000000000000e+00,-3.000000000000000000e+00,-3.018798828125000000e-01,2.795410156250000000e-01,3.160400390625000000e-01,8.548583984375000000e-01
-3.000000000000000000e+00,-1.000000000000000000e+00,3.000000000000000000e+00,7.000000000000000000e+00,9.000000000000000000e+00,1.000000000000000000e+00,-1.000000000000000000e+00,-1.000000000000000000e+00,-3.018798828125000000e-01,2.795410156250000000e-01,3.160400390625000000e-01,8.548583984375000000e-01
5.000000000000000000e+00,-2.000000000000000000e+00,5.000000000000000000e+00,-7.000000000000000000e+00,-9.000000000000000000e+00,-4.000000000000000000e+00,-4.000000000000000000e+00,-4.000000000000000000e+00,-3.018798828125000000e-01,2.795410156250000000e-01,3.160400390625000000e-01,8.548583984375000000e-01
0.000000000000000000e+00,1.000000000000000000e+00,-2.000000000000000000e+01,-5.000000000000000000e+00,-1.000000000000000000e+00,1.000000000000000000e+00,0.000000000000000000e+00,-1.000000000000000000e+00,-3.024291992187500000e-01,2.797851562500000000e-01,3.164672851562500000e-01,8.544311523437500000e-01
8.000000000000000000e+00,1.100000000000000000e+01,8.000000000000000000e+00,-4.000000000000000000e+00,5.000000000000000000e+00,3.000000000000000000e+00,4.000000000000000000e+00,1.000000000000000000e+00,-3.024291992187500000e-01,2.797851562500000000e-01,3.164672851562500000e-01,8.544311523437500000e-01
-2.000000000000000000e+01,-6.000000000000000000e+00,1.700000000000000000e+01,1.100000000000000000e+01,-6.000000000000000000e+00,-5.000000000000000000e+00,-2.000000000000000000e+00,-1.000000000000000000e+00,-3.024291992187500000e-01,2.797851562500000000e-01,3.164672851562500000e-01,8.544311523437500000e-01
-5.000000000000000000e+00,-9.000000000000000000e+00,-2.400000000000000000e+01,-6.000000000000000000e+00,-2.000000000000000000e+00,-2.000000000000000000e+00,-1.000000000000000000e+00,-1.000000000000000000e+00,-3.024291992187500000e-01,2.797851562500000000e-01,3.164672851562500000e-01,8.544311523437500000e-01
6.000000000000000000e+00,1.000000000000000000e+00,-9.000000000000000000e+00,3.000000000000000000e+00,1.000000000000000000e+00,1.000000000000000000e+00,1.000000000000000000e+00,2.000000000000000000e+00,-3.030395507812500000e-01,2.797851562500000000e-01,3.163452148437500000e-01,8.542480468750000000e-01
0.000000000000000000e+00,1.000000000000000000e+00,5.000000000000000000e+00,2.000000000000000000e+00,1.000000000000000000e+00,-2.000000000000000000e+00,-1.000000000000000000e+00,-4.000000000000000000e+00,-3.030395507812500000e-01,2.797851562500000000e-01,3.163452148437500000e-01,8.542480468750000000e-01
-1.000000000000000000e+01,-8.000000000000000000e+00,-4.000000000000000000e+00,-1.000000000000000000e+01,-9.000000000000000000e+00,-3.000000000000000000e+00,-4.000000000000000000e+00,-4.000000000000000000e+00,-3.030395507812500000e-01,2.797851562500000000e-01,3.163452148437500000e-01,8.542480468750000000e-01
1.700000000000000000e+01,7.000000000000000000e+00,6.000000000000000000e+00,-4.000000000000000000e+00,-5.000000000000000000e+00,1.000000000000000000e+00,1.000000000000000000e+00,3.000000000000000000e+00,-3.030395507812500000e-01,2.797851562500000000e-01,3.163452148437500000e-01,8.542480468750000000e-01
-1.600000000000000000e+01,-1.100000000000000000e+01,-5.000000000000000000e+00,2.000000000000000000e+00,7.000000000000000000e+00,-1.000000000000000000e+00,-1.000000000000000000e+00,0.000000000000000000e+00,-3.027343750000000000e-01,2.800903320312500000e-01,3.156738281250000000e-01,8.544921875000000000e-01
-4.000000000000000000e+00,-3.000000000000000000e+00,5.000000000000000000e+00,7.000000000000000000e+00,-7.000000000000000000e+00,-5.000000000000000000e+00,-5.000000000000000000e+00,-1.000000000000000000e+00,-3.027343750000000000e-01,2.800903320312500000e-01,3.156738281250000000e-01,8.544921875000000000e-01
1.000000000000000000e+00,4.000000000000000000e+00,5.000000000000000000e+00,-1.400000000000000000e+01,2.000000000000000000e+00,-1.000000000000000000e+00,-2.000000000000000000e+00,-1.000000000000000000e+00,-3.027343750000000000e-01,2.800903320312500000e-01,3.156738281250000000e-01,8.544921875000000000e-01
-7.000000000000000000e+00,-2.000000000000000000e+00,2.000000000000000000e+00,9.000000000000000000e+00,-3.000000000000000000e+00,-2.000000000000000000e+00,-2.000000000000000000e+00,-4.000000000000000000e+00,-3.027343750000000000e-01,2.800903320312500000e-01,3.156738281250000000e-01,8.544921875000000000e-01
7.000000000000000000e+00,-1.000000000000000000e+00,0.000000000000000000e+00,1.000000000000000000e+00,7.000000000000000000e+00,1.000000000000000000e+00,1.000000000000000000e+00,2.000000000000000000e+00,-3.021850585937500000e-01,2.805786132812500000e-01,3.151855468750000000e-01,8.547363281250000000e-01
-5.000000000000000000e+00,-3.000000000000000000e+00,8.000000000000000000e+00,2.000000000000000000e+00,0.000000000000000000e+00,-1.000000000000000000e+00,-2.000000000000000000e+00,-2.000000000000000000e+00,-3.021850585937500000e-01,2.805786132812500000e-01,3.151855468750000000e-01,8.547363281250000000e-01
2.000000000000000000e+00,-5.000000000000000000e+00,-1.500000000000000000e+01,6.000000000000000000e+00,-5.000000000000000000e+00,-3.000000000000000000e+00,1.000000000000000000e+00,-1.000000000000000000e+00,-3.021850585937500000e-01,2.805786132812500000e-01,3.151855468750000000e-01,8.547363281250000000e-01
-2.000000000000000000e+00,-1.000000000000000000e+00,-2.900000000000000000e+01,-1.800000000000000000e+01,0.000000000000000000e+00,0.000000000000000000e+00,-1.000000000000000000e+00,-1.000000000000000000e+00,-3.021850585937500000e-01,2.805786132812500000e-01,3.151855468750000000e-01,8.547363281250000000e-01
1.500000000000000000e+01,-5.000000000000000000e+00,3.000000000000000000e+00,4.000000000000000000e+00,0.000000000000000000e+00,2.000000000000000000e+00,1.000000000000000000e+00,-1.000000000000000000e+00,-3.021850585937500000e-01,2.807617187500000000e-01,3.153686523437500000e-01,8.546142578125000000e-01
-3.000000000000000000e+01,2.000000000000000000e+00,9.000000000000000000e+00,-2.700000000000000000e+01,-1.500000000000000000e+01,-1.000000000000000000e+00,-1.000000000000000000e+00,-1.000000000000000000e+00,-3.021850585937500000e-01,2.807617187500000000e-01,3.153686523437500000e-01,8.546142578125000000e-01
1.000000000000000000e+01,4.000000000000000000e+00,4.000000000000000000e+00,3.200000000000000000e+01,2.200000000000000000e+01,3.000000000000000000e+00,1.000000000000000000e+00,0.000000000000000000e+00,-3.021850585937500000e-01,2.807617187500000000e-01,3.153686523437500000e-01,8.546142578125000000e-01
-5.000000000000000000e+00,-2.000000000000000000e+00,-5.000000000000000000e+00,-7.000000000000000000e+00,-1.200000000000000000e+01,-4.000000000000000000e+00,-3.000000000000000000e+00,-3.000000000000000000e+00,-3.021850585937500000e-01,2.807617187500000000e-01,3.153686523437500000e-01,8.546142578125000000e-01
5.000000000000000000e+00,2.000000000000000000e+00,-8.000000000000000000e+00,-1.400000000000000000e+01,-9.000000000000000000e+00,-1.000000000000000000e+00,-1.000000000000000000e+00,-1.000000000000000000e+00,-3.031005859375000000e-01,2.803344726562500000e-01,3.156127929687500000e-01,8.543701171875000000e-01
-4.000000000000000000e+00,-7.000000000000000000e+00,0.000000000000000000e+00,1.400000000000000000e+01,1.200000000000000000e+01,3.000000000000000000e+00,-2.000000000000000000e+00,-1.000000000000000000e+00,-3.031005859375000000e-01,2.803344726562500000e-01,3.156127929687500000e-01,8.543701171875000000e-01
8.000000000000000000e+00,1.000000000000000000e+00,3.000000000000000000e+00,-5.000000000000000000e+00,-3.000000000000000000e+00,3.000000000000000000e+00,2.000000000000000000e+00,2.000000000000000000e+00,-3.031005859375000000e-01,2.803344726562500000e-01,3.156127929687500000e-01,8.543701171875000000e-01
-4.000000000000000000e+00,1.000000000000000000e+00,-3.000000000000000000e+00,-1.200000000000000000e+01,-2.000000000000000000e+00,-3.000000000000000000e+00,-3.000000000000000000e+00,-1.000000000000000000e+00,-3.031005859375000000e-01,2.803344726562500000e-01,3.156127929687500000e-01,8.543701171875000000e-01
-1.000000000000000000e+01,-5.000000000000000000e+00,-8.000000000000000000e+00,4.000000000000000000e+00,3.000000000000000000e+00,-6.000000000000000000e+00,-1.000000000000000000e+00,-4.000000000000000000e+00,-3.035278320312500000e-01,2.800292968750000000e-01,3.150634765625000000e-01,8.544921875000000000e-01
1.000000000000000000e+01,3.000000000000000000e+00,2.000000000000000000e+00,4.000000000000000000e+00,-4.000000000000000000e+00,-2.000000000000000000e+00,-2.000000000000000000e+00,-2.000000000000000000e+00,-3.035278320312500000e-01,2.800292968750000000e-01,3.150634765625000000e-01,8.544921875000000000e-01
0.000000000000000000e+00,3.000000000000000000e+00,-2.000000000000000000e+00,-9.000000000000000000e+00,-6.000000000000000000e+00,-2.000000000000000000e+00,0.000000000000000000e+00,-1.000000000000000000e+00,-3.035278320312500000e-01,2.800292968750000000e-01,3.150634765625000000e-01,8.544921875000000000e-01
9.000000000000000000e+00,-2.000000000000000000e+00,4.000000000000000000e+00,9.000000000000000000e+00,7.000000000000000000e+00,0.000000000000000000e+00,3.000000000000000000e+00,6.000000000000000000e+00,-3.035278320312500000e-01,2.800292968750000000e-01,3.150634765625000000e-01,8.544921875000000000e-01
-1.400000000000000000e+01,-5.000000000000000000e+00,-1.100000000000000000e+01,-1.200000000000000000e+01,-8.000000000000000000e+00,-3.000000000000000000e+00,-6.000000000000000000e+00,-5.000000000000000000e+00,-3.031005859375000000e-01,2.801513671875000000e-01,3.142700195312500000e-01,8.548583984375000000e-01
2.000000000000000000e+00,-1.000000000000000000e+00,1.800000000000000000e+01,1.100000000000000000e+01,-5.000000000000000000e+00,-3.000000000000000000e+00,-2.000000000000000000e+00,-2.000000000000000000e+00,-3.031005859375000000e-01,2.801513671875000000e-01,3.142700195312500000e-01,8.548583984375000000e-01
-6.000000000000000000e+00,-1.000000000000000000e+00,-1.000000000000000000e+00,3.000000000000000000e+00,1.100000000000000000e+01,3.000000000000000000e+00,2.000000000000000000e+00,0.000000000000000000e+00,-3.031005859375000000e-01,2.801513671875000000e-01,3.142700195312500000e-01,8.548583984375000000e-01
4.000000000000000000e+00,1.000000000000000000e+00,-3.500000000000000000e+01,-3.600000000000000000e+01,-1.400000000000000000e+01,-4.000000000000000000e+00,-4.000000000000000000e+00,-3.000000000000000000e+00,-3.031005859375000000e-01,2.801513671875000000e-01,3.142700195312500000e-01,8.548583984375000000e-01
-1.000000000000000000e+00,-2.000000000000000000e+00,1.600000000000000000e+01,4.500000000000000000e+01,6.000000000000000000e+00,-1.000000000000000000e+00,-1.000000000000000000e+00,0.000000000000000000e+00,-3.026733398437500000e-01,2.802734375000000000e-01,3.143920898437500000e-01,8.549194335937500000e-01
-3.000000000000000000e+00,-3.000000000000000000e+00,8.000000000000000000e+00,1.000000000000000000e+01,6.000000000000000000e+00,1.000000000000000000e+00,-1.000000000000000000e+00,0.000000000000000000e+00,-3.026733398437500000e-01,2.802734375000000000e-01,3.143920898437500000e-01,8.549194335937500000e-01
6.000000000000000000e+00,3.000000000000000000e+00,2.000000000000000000e+00,-2.100000000000000000e+01,-9.000000000000000000e+00,-5.000000000000000000e+00,-2.000000000000000000e+00,-3.000000000000000000e+00,-3.026733398437500000e-01,2.802734375000000000e-01,3.143920898437500000e-01,8.549194335937500000e-01
-6.000000000000000000e+00,4.000000000000000000e+00,3.800000000000000000e+01,2.100000000000000000e+01,3.000000000000000000e+00,0.000000000000000000e+00,-1.000000000000000000e+00,-2.000000000000000000e+00,-3.026733398437500000e-01,2.802734375000000000e-01,3.143920898437500000e-01,8.549194335937500000e-01
5.000000000000000000e+00,5.000000000000000000e+00,-4.400000000000000000e+01,-2.800000000000000000e+01,-1.100000000000000000e+01,-5.000000000000000000e+00,1.000000000000000000e+00,-1.000000000000000000e+00,-3.031616210937500000e-01,2.802734375000000000e-01,3.150024414062500000e-01,8.545532226562500000e-01
-9.000000000000000000e+00,-1.300000000000000000e+01,1.800000000000000000e+01,2.300000000000000000e+01,5.000000000000000000e+00,2.000000000000000000e+00,1.000000000000000000e+00,-2.000000000000000000e+00,-3.031616210937500000e-01,2.802734375000000000e-01,3.150024414062500000e-01,8.545532226562500000e-01
-1.000000000000000000e+00,-1.000000000000000000e+00,-2.600000000000000000e+01,-1.000000000000000000e+00,4.000000000000000000e+00,-1.000000000000000000e+00,-2.000000000000000000e+00,-1.000000000000000000e+00,-3.031616210937500000e-01,2.802734375000000000e-01,3.150024414062500000e-01,8.545532226562500000e-01
-2.000000000000000000e+00,-5.000000000000000000e+00,6.000000000000000000e+00,0.000000000000000000e+00,0.000000000000000000e+00,2.000000000000000000e+00,2.000000000000000000e+00,1.000000000000000000e+00,-3.031616210937500000e-01,2.802734375000000000e-01,3.150024414062500000e-01,8.545532226562500000e-01
-3.000000000000000000e+00,2.000000000000000000e+00,1.600000000000000000e+01,-8.000000000000000000e+00,-4.000000000000000000e+00,-3.000000000000000000e+00,-7.000000000000000000e+00,-3.000000000000000000e+00,-3.038940429687500000e-01,2.801513671875000000e-01,3.153686523437500000e-01,8.541870117187500000e-01
9.000000000000000000e+00,-1.000000000000000000e+00,-4.000000000000000000e+00,-2.000000000000000000e+00,0.000000000000000000e+00,-3.000000000000000000e+00,4.000000000000000000e+00,2.000000000000000000e+00,-3.038940429687500000e-01,2.801513671875000000e-01,3.153686523437500000e-01,8.541870117187500000e-01
-3.000000000000000000e+00,-3.000000000000000000e+00,1.000000000000000000e+01,-4.000000000000000000e+00,-4.000000000000000000e+00,0.000000000000000000e+00,-3.000000000000000000e+00,-4.000000000000000000e+00,-3.038940429687500000e-01,2.801513671875000000e-01,3.153686523437500000e-01,8.541870117187500000e-01
-1.000000000000000000e+01,-2.000000000000000000e+00,-1.100000000000000000e+01,1.000000000000000000e+00,3.000000000000000000e+00,1.000000000000000000e+00,1.000000000000000000e+00,-4.000000000000000000e+00,-3.038940429687500000e-01,2.801513671875000000e-01,3.153686523437500000e-01,8.541870117187500000e-01
2.900000000000000000e+01,6.000000000000000000e+00,1.100000000000000000e+01,1.000000000000000000e+00,7.000000000000000000e+00,5.000000000000000000e+00,1.000000000000000000e+00,6.000000000000000000e+00,-3.034667968750000000e-01,2.804565429687500000e-01,3.151245117187500000e-01,8.543090820312500000e-01
-1.700000000000000000e+01,-3.000000000000000000e+00,2.000000000000000000e+00,-1.000000000000000000e+01,-2.000000000000000000e+00,-2.000000000000000000e+00,-2.000000000000000000e+00,-3.000000000000000000e+00,-3.034667968750000000e-01,2.804565429687500000e-01,3.151245117187500000e-01,8.543090820312500000e-01
-1.000000000000000000e+00,-5.000000000000000000e+00,-2.200000000000000000e+01,-1.200000000000000000e+01,-1.200000000000000000e+01,-5.000000000000000000e+00,-6.000000000000000000e+00,-1.000000000000000000e+00,-3.034667968750000000e-01,2.804565429687500000e-01,3.151245117187500000e-01,8.543090820312500000e-01
1.000000000000000000e+00,-2.000000000000000000e+00,-1.000000000000000000e+00,1.200000000000000000e+01,5.000000000000000000e+00,-3.000000000000000000e+00,-1.000000000000000000e+00,-3.000000000000000000e+00,-3.034667968750000000e-01,2.804565429687500000e-01,3.151245117187500000e-01,8.543090820312500000e-01
-1.100000000000000000e+01,0.000000000000000000e+00,2.000000000000000000e+00,1.100000000000000000e+01,3.000000000000000000e+00,3.000000000000000000e+00,2.000000000000000000e+00,-1.000000000000000000e+00,-3.026123046875000000e-01,2.810058593750000000e-01,3.152465820312500000e-01,8.544311523437500000e-01
7.000000000000000000e+00,6.000000000000000000e+00,-1.000000000000000000e+01,-1.600000000000000000e+01,-9.000000000000000000e+00,-5.000000000000000000e+00,-4.000000000000000000e+00,-1.000000000000000000e+00,-3.026123046875000000e-01,2.810058593750000000e-01,3.152465820312500000e-01,8.544311523437500000e-01
-3.000000000000000000e+00,0.000000000000000000e+00,2.000000000000000000e+01,8.000000000000000000e+00,3.000000000000000000e+00,0.000000000000000000e+00,0.000000000000000000e+00,-3.000000000000000000e+00,-3.026123046875000000e-01,2.810058593750000000e-01,3.152465820312500000e-01,8.544311523437500000e-01
2.000000000000000000e+00,-2.000000000000000000e+00,1.500000000000000000e+01,-5.000000000000000000e+00,-1.100000000000000000e+01,-3.000000000000000000e+00,0.000000000000000000e+00,0.000000000000000000e+00,-3.026123046875000000e-01,2.810058593750000000e-01,3.152465820312500000e-01,8.544311523437500000e-01
-3.000000000000000000e+00,-4.000000000000000000e+00,-2.400000000000000000e+01,-2.500000000000000000e+01,6.000000000000000000e+00,1.000000000000000000e+00,2.000000000000000000e+00,1.000000000000000000e+00,-3.027343750000000000e-01,2.812500000000000000e-01,3.157958984375000000e-01,8.540649414062500000e-01
-4.000000000000000000e+00,-6.000000000000000000e+00,1.900000000000000000e+01,1.100000000000000000e+01,3.000000000000000000e+00,1.000000000000000000e+00,0.000000000000000000e+00,0.000000000000000000e+00,-3.027343750000000000e-01,2.812500000000000000e-01,3.157958984375000000e-01,8.540649414062500000e-01
3.000000000000000000e+00,2.000000000000000000e+00,1.000000000000000000e+01,5.000000000000000000e+00,-1.000000000000000000e+01,-5.000000000000000000e+00,-3.000000000000000000e+00,-1.000000000000000000e+00,-3.027343750000000000e-01,2.812500000000000000e-01,3.157958984375000000e-01,8.540649414062500000e-01
3.000000000000000000e+00,1.000000000000000000e+00,-5.000000000000000000e+00,5.000000000000000000e+00,1.700000000000000000e+01,5.000000000000000000e+00,1.000000000000000000e+00,1.000000000000000000e+00,-3.027343750000000000e-01,2.812500000000000000e-01,3.157958984375000000e-01,8.540649414062500000e-01
-1.000000000000000000e+01,-2.000000000000000000e+00,2.000000000000000000e+01,4.000000000000000000e+00,-7.000000000000000000e+00,-4.000000000000000000e+00,-6.000000000000000000e+00,-4.000000000000000000e+00,-3.032836914062500000e-01,2.811279296875000000e-01,3.161010742187500000e-01,8.538208007812500000e-01
1.800000000000000000e+01,7.000000000000000000e+00,0.000000000000000000e+00,-4.000000000000000000e+00,1.000000000000000000e+00,1.000000000000000000e+00,5.000000000000000000e+00,4.000000000000000000e+00,-3.032836914062500000e-01,2.811279296875000000e-01,3.161010742187500000e-01,8.538208007812500000e-01
-1.400000000000000000e+01,-7.000000000000000000e+00,-9.000000000000000000e+00,-9.000000000000000000e+00,1.000000000000000000e+00,1.000000000000000000e+00,2.000000000000000000e+00,1.000000000000000000e+00,-3.032836914062500000e-01,2.811279296875000000e-01,3.161010742187500000e-01,8.538208007812500000e-01
-4.000000000000000000e+00,2.000000000000000000e+00,8.000000000000000000e+00,0.000000000000000000e+00,-1.300000000000000000e+01,-2.000000000000000000e+00,2.000000000000000000e+00,-1.000000000000000000e+00,-3.032836914062500000e-01,2.811279296875000000e-01,3.161010742187500000e-01,8.538208007812500000e-01
4.000000000000000000e+00,1.000000000000000000e+00,3.000000000000000000e+00,1.300000000000000000e+01,1.400000000000000000e+01,3.000000000000000000e+00,0.000000000000000000e+00,3.000000000000000000e+00,-3.030395507812500000e-01,2.811279296875000000e-01,3.159790039062500000e-01,8.539428710937500000e-01
7.000000000000000000e+00,2.000000000000000000e+00,-1.500000000000000000e+01,-6.000000000000000000e+00,-2.000000000000000000e+00,-1.000000000000000000e+00,-4.000000000000000000e+00,-1.000000000000000000e+00,-3.030395507812500000e-01,2.811279296875000000e-01,3.159790039062500000e-01,8.539428710937500000e-01
-2.000000000000000000e+00,-3.000000000000000000e+00,5.000000000000000000e+00,2.000000000000000000e+00,2.000000000000000000e+00,1.000000000000000000e+00,2.000000000000000000e+00,-2.000000000000000000e+00,-3.030395507812500000e-01,2.811279296875000000e-01,3.159790039062500000e-01,8.539428710937500000e-01
-1.000000000000000000e+00,-1.000000000000000000e+00,2.000000000000000000e+00,-1.000000000000000000e+00,2.000000000000000000e+00,-1.000000000000000000e+00,0.000000000000000000e+00,0.000000000000000000e+00,-3.030395507812500000e-01,2.811279296875000000e-01,3.159790039062500000e-01,8.539428710937500000e-01
-2.000000000000000000e+00,-2.000000000000000000e+00,-6.000000000000000000e+00,-1.700000000000000000e+01,-1.900000000000000000e+01,-2.000000000000000000e+00,0.000000000000000000e+00,0.000000000000000000e+00,-3.023071289062500000e-01,2.813720703125000000e-01,3.158569335937500000e-01,8.541870117187500000e-01
3.000000000000000000e+00,-2.000000000000000000e+00,-5.000000000000000000e+00,1.000000000000000000e+00,8.000000000000000000e+00,1.000000000000000000e+00,0.000000000000000000e+00,-1.000000000000000000e+00,-3.023071289062500000e-01,2.813720703125000000e-01,3.158569335937500000e-01,8.541870117187500000e-01
-5.000000000000000000e+00,2.000000000000000000e+00,6.000000000000000000e+00,1.100000000000000000e+01,6.000000000000000000e+00,1.000000000000000000e+00,-1.000000000000000000e+00,-3.000000000000000000e+00,-3.023071289062500000e-01,2.813720703125000000e-01,3.158569335937500000e-01,8.541870117187500000e-01
-5.000000000000000000e+00,-1.000000000000000000e+00,-4.000000000000000000e+00,-1.200000000000000000e+01,-7.000000000000000000e+00,-5.000000000000000000e+00,-5.000000000000000000e+00,-4.000000000000000000e+00,-3.023071289062500000e-01,2.813720703125000000e-01,3.158569335937500000e-01,8.541870117187500000e-01
-2.000000000000000000e+00,-3.000000000000000000e+00,2.000000000000000000e+00,1.000000000000000000e+00,5.000000000000000000e+00,0.000000000000000000e+00,2.000000000000000000e+00,2.000000000000000000e+00,-3.022460937500000000e-01,2.813720703125000000e-01,3.158569335937500000e-01,8.541870117187500000e-01
-3.000000000000000000e+00,-1.000000000000000000e+00,-5.000000000000000000e+00,1.300000000000000000e+01,-7.000000000000000000e+00,-3.000000000000000000e+00,-1.000000000000000000e+00,-2.000000000000000000e+00,-3.022460937500000000e-01,2.813720703125000000e-01,3.158569335937500000e-01,8.541870117187500000e-01
6.000000000000000000e+00,5.000000000000000000e+00,-2.000000000000000000e+01,-2.100000000000000000e+01,-1.600000000000000000e+01,-3.000000000000000000e+00,-3.000000000000000000e+00,-1.000000000000000000e+00,-3.022460937500000000e-01,2.813720703125000000e-01,3.158569335937500000e-01,8.541870117187500000e-01
-4.000000000000000000e+00,-1.100000000000000000e+01,-4.000000000000000000e+00,-3.000000000000000000e+00,1.400000000000000000e+01,5.000000000000000000e+00,-3.000000000000000000e+00,-3.000000000000000000e+00,-3.022460937500000000e-01,2.813720703125000000e-01,3.158569335937500000e-01,8.541870117187500000e-01
-2.000000000000000000e+00,1.000000000000000000e+01,1.300000000000000000e+01,9.000000000000000000e+00,-4.000000000000000000e+00,-2.000000000000000000e+00,-1.000000000000000000e+00,-3.000000000000000000e+00,-3.024291992187500000e-01,2.811889648437500000e-01,3.162841796875000000e-01,8.540039062500000000e-01
-5.000000000000000000e+00,0.000000000000000000e+00,0.000000000000000000e+00,-2.000000000000000000e+00,1.000000000000000000e+00,0.000000000000000000e+00,1.000000000000000000e+00,-1.000000000000000000e+00,-3.024291992187500000e-01,2.811889648437500000e-01,3.162841796875000000e-01,8.540039062500000000e-01
2.000000000000000000e+00,0.000000000000000000e+00,-3.000000000000000000e+00,-8.000000000000000000e+00,-1.400000000000000000e+01,-7.000000000000000000e+00,-5.000000000000000000e+00,-7.000000000000000000e+00,-3.024291992187500000e-01,2.811889648437500000e-01,3.162841796875000000e-01,8.540039062500000000e-01
-7.000000000000000000e+00,-3.000000000000000000e+00,-3.000000000000000000e+00,7.000000000000000000e+00,-3.000000000000000000e+00,-1.000000000000000000e+00,1.000000000000000000e+00,3.000000000000000000e+00,-3.024291992187500000e-01,2.811889648437500000e-01,3.162841796875000000e-01,8.540039062500000000e-01
5.000000000000000000e+00,-5.000000000000000000e+00,-7.000000000000000000e+00,0.000000000000000000e+00,3.000000000000000000e+00,-1.000000000000000000e+00,0.000000000000000000e+00,2.000000000000000000e+00,-3.028564453125000000e-01,2.807006835937500000e-01,3.162841796875000000e-01,8.540649414062500000e-01
-6.000000000000000000e+00,-3.000000000000000000e+00,-1.200000000000000000e+01,-8.000000000000000000e+00,-1.000000000000000000e+01,-3.000000000000000000e+00,-6.000000000000000000e+00,-3.000000000000000000e+00,-3.028564453125000000e-01,2.807006835937500000e-01,3.162841796875000000e-01,8.540649414062500000e-01
2.000000000000000000e+00,4.000000000000000000e+00,1.700000000000000000e+01,5.000000000000000000e+00,4.000000000000000000e+00,-1.000000000000000000e+00,-3.000000000000000000e+00,-3.000000000000000000e+00,-3.028564453125000000e-01,2.807006835937500000e-01,3.162841796875000000e-01,8.540649414062500000e-01
7.000000000000000000e+00,3.000000000000000000e+00,2.000000000000000000e+00,-4.000000000000000000e+00,-6.000000000000000000e+00,-1.000000000000000000e+00,-1.800000000000000000e+01,-1.500000000000000000e+01,-3.028564453125000000e-01,2.807006835937500000e-01,3.162841796875000000e-01,8.540649414062500000e-01
-1.800000000000000000e+01,-1.200000000000000000e+01,-1.100000000000000000e+01,0.000000000000000000e+00,3.000000000000000000e+00,2.000000000000000000e+00,1.800000000000000000e+01,1.000000000000000000e+01,-3.025512695312500000e-01,2.806396484375000000e-01,3.157958984375000000e-01,8.543701171875000000e-01
7.000000000000000000e+00,1.000000000000000000e+00,1.000000000000000000e+00,-8.000000000000000000e+00,-5.000000000000000000e+00,-1.000000000000000000e+00,-1.000000000000000000e+00,1.000000000000000000e+00,-3.025512695312500000e-01,2.806396484375000000e-01,3.157958984375000000e-01,8.543701171875000000e-01
1.000000000000000000e+00,-6.000000000000000000e+00,-2.500000000000000000e+01,-3.000000000000000000e+00,0.000000000000000000e+00,-1.000000000000000000e+00,3.000000000000000000e+00,4.000000000000000000e+00,-3.025512695312500000e-01,2.806396484375000000e-01,3.157958984375000000e-01,8.543701171875000000e-01
-4.000000000000000000e+00,0.000000000000000000e+00,-2.000000000000000000e+00,4.000000000000000000e+00,-1.000000000000000000e+00,-2.000000000000000000e+00,-5.000000000000000000e+00,-4.000000000000000000e+00,-3.025512695312500000e-01,2.806396484375000000e-01,3.157958984375000000e-01,8.543701171875000000e-01
-3.000000000000000000e+00,-2.000000000000000000e+00,2.000000000000000000e+00,-1.000000000000000000e+00,-2.000000000000000000e+00,0.000000000000000000e+00,-9.000000000000000000e+00,-8.000000000000000000e+00,-3.018798828125000000e-01,2.810058593750000000e-01,3.156738281250000000e-01,8.544921875000000000e-01
0.000000000000000000e+00,1.000000000000000000e+00,4.000000000000000000e+00,-1.300000000000000000e+01,-4.000000000000000000e+00,-7.000000000000000000e+00,-5.000000000000000000e+00,-1.000000000000000000e+00,-3.018798828125000000e-01,2.810058593750000000e-01,3.156738281250000000e-01,8.544921875000000000e-01
-2.000000000000000000e+00,-1.600000000000000000e+01,1.300000000000000000e+01,2.500000000000000000e+01,8.000000000000000000e+00,6.000000000000000000e+00,3.000000000000000000e+00,1.000000000000000000e+00,-3.018798828125000000e-01,2.810058593750000000e-01,3.156738281250000000e-01,8.544921875000000000e-01
3.000000000000000000e+00,1.600000000000000000e+01,4.000000000000000000e+00,1.300000000000000000e+01,2.700000000000000000e+01,1.000000000000000000e+01,4.000000000000000000e+00,2.000000000000000000e+00,-3.018798828125000000e-01,2.810058593750000000e-01,3.156738281250000000e-01,8.544921875000000000e-01
-6.000000000000000000e+00,-9.000000000000000000e+00,-3.700000000000000000e+01,-1.000000000000000000e+00,-4.000000000000000000e+00,-4.000000000000000000e+00,-6.000000000000000000e+00,-5.000000000000000000e+00,-3.018188476562500000e-01,2.810058593750000000e-01,3.162231445312500000e-01,8.543090820312500000e-01
-4.000000000000000000e+00,2.000000000000000000e+00,-1.000000000000000000e+00,-6.000000000000000000e+00,-3.000000000000000000e+00,-2.000000000000000000e+00,0.000000000000000000e+00,0.000000000000000000e+00,-3.018188476562500000e-01,2.810058593750000000e-01,3.162231445312500000e-01,8.543090820312500000e-01
0.000000000000000000e+00,1.000000000000000000e+00,-3.000000000000000000e+00,-1.000000000000000000e+01,-9.000000000000000000e+00,1.000000000000000000e+00,0.000000000000000000e+00,0.000000000000000000e+00,-3.018188476562500000e-01,2.810058593750000000e-01,3.162231445312500000e-01,8.543090820312500000e-01
-2.000000000000000000e+00,-4.000000000000000000e+00,6.000000000000000000e+00,2.000000000000000000e+00,1.000000000000000000e+00,-4.000000000000000000e+00,0.000000000000000000e+00,0.000000000000000000e+00,-3.018188476562500000e-01,2.810058593750000000e-01,3.162231445312500000e-01,8.543090820312500000e-01
1.400000000000000000e+01,7.000000000000000000e+00,1.400000000000000000e+01,-1.000000000000000000e+00,-5.000000000000000000e+00,-2.000000000000000000e+00,1.000000000000000000e+00,-1.000000000000000000e+00,-3.030395507812500000e-01,2.804565429687500000e-01,3.165283203125000000e-01,8.539428710937500000e-01
-1.300000000000000000e+01,-8.000000000000000000e+00,-2.000000000000000000e+00,-9.000000000000000000e+00,-4.000000000000000000e+00,1.000000000000000000e+00,0.000000000000000000e+00,0.000000000000000000e+00,-3.030395507812500000e-01,2.804565429687500000e-01,3.165283203125000000e-01,8.539428710937500000e-01
3.000000000000000000e+00,1.000000000000000000e+00,-2.000000000000000000e+00,1.300000000000000000e+01,9.000000000000000000e+00,-2.000000000000000000e+00,-1.000000000000000000e+00,2.000000000000000000e+00,-3.030395507812500000e-01,2.804565429687500000e-01,3.165283203125000000e-01,8.539428710937500000e-01
-3.000000000000000000e+00,-3.000000000000000000e+00,3.000000000000000000e+00,-4.000000000000000000e+00,-6.000000000000000000e+00,-3.000000000000000000e+00,1.000000000000000000e+00,2.000000000000000000e+00,-3.030395507812500000e-01,2.804565429687500000e-01,3.165283203125000000e-01,8.539428710937500000e-01
6.000000000000000000e+00,2.000000000000000000e+00,2.000000000000000000e+00,-3.000000000000000000e+00,1.000000000000000000e+00,2.000000000000000000e+00,0.000000000000000000e+00,-1.000000000000000000e+00,-3.030395507812500000e-01,2.804565429687500000e-01,3.159790039062500000e-01,8.541870117187500000e-01
-8.000000000000000000e+00,-5.000000000000000000e+00,-7.000000000000000000e+00,0.000000000000000000e+00,-1.000000000000000000e+00,-2.000000000000000000e+00,-5.000000000000000000e+00,-1.100000000000000000e+01,-3.030395507812500000e-01,2.804565429687500000e-01,3.159790039062500000e-01,8.541870117187500000e-01
6.000000000000000000e+00,3.000000000000000000e+00,1.000000000000000000e+00,-5.000000000000000000e+00,-2.000000000000000000e+00,1.000000000000000000e+00,4.000000000000000000e+00,4.000000000000000000e+00,-3.030395507812500000e-01,2.804565429687500000e-01,3.159790039062500000e-01,8.541870117187500000e-01
2.000000000000000000e+00,-2.000000000000000000e+00,-9.000000000000000000e+00,-8.000000000000000000e+00,-6.000000000000000000e+00,-3.000000000000000000e+00,0.000000000000000000e+00,2.000000000000000000e+00,-3.030395507812500000e-01,2.804565429687500000e-01,3.159790039062500000e-01,8.541870117187500000e-01
-7.000000000000000000e+00,-4.000000000000000000e+00,8.000000000000000000e+00,-3.000000000000000000e+00,-3.000000000000000000e+00,-1.000000000000000000e+00,-2.000000000000000000e+00,-1.000000000000000000e+00,-3.020629882812500000e-01,2.809448242187500000e-01,3.154907226562500000e-01,8.545532226562500000e-01
2.000000000000000000e+00,2.000000000000000000e+00,-5.000000000000000000e+00,9.000000000000000000e+00,1.000000000000000000e+00,-4.000000000000000000e+00,-6.000000000000000000e+00,-2.000000000000000000e+00,-3.020629882812500000e-01,2.809448242187500000e-01,3.154907226562500000e-01,8.545532226562500000e-01
-1.000000000000000000e+01,-6.000000000000000000e+00,-5.000000000000000000e+00,-8.000000000000000000e+00,2.000000000000000000e+00,0.000000000000000000e+00,0.000000000000000000e+00,-4.000000000000000000e+00,-3.020629882812500000e-01,2.809448242187500000e-01,3.154907226562500000e-01,8.545532226562500000e-01
-2.000000000000000000e+00,-5.000000000000000000e+00,-4.000000000000000000e+00,-1.800000000000000000e+01,-2.100000000000000000e+01,-5.000000000000000000e+00,0.000000000000000000e+00,-2.000000000000000000e+00,-3.020629882812500000e-01,2.809448242187500000e-01,3.154907226562500000e-01,8.545532226562500000e-01
0.000000000000000000e+00,2.000000000000000000e+00,4.500000000000000000e+01,4.500000000000000000e+01,4.200000000000000000e+01,8.000000000000000000e+00,3.000000000000000000e+00,1.000000000000000000e+00,-3.020629882812500000e-01,2.808227539062500000e-01,3.156738281250000000e-01,8.544921875000000000e-01
-1.000000000000000000e+00,-1.000000000000000000e+00,-6.500000000000000000e+01,-1.400000000000000000e+01,-1.000000000000000000e+00,1.000000000000000000e+00,2.000000000000000000e+00,-1.000000000000000000e+00,-3.020629882812500000e-01,2.808227539062500000e-01,3.156738281250000000e-01,8.544921875000000000e-01
0.000000000000000000e+00,0.000000000000000000e+00,1.400000000000000000e+01,-1.100000000000000000e+01,-6.000000000000000000e+00,-1.000000000000000000e+00,1.000000000000000000e+00,1.000000000000000000e+00,-3.020629882812500000e-01,2.808227539062500000e-01,3.156738281250000000e-01,8.544921875000000000e-01
-3.000000000000000000e+00,-6.000000000000000000e+00,-1.800000000000000000e+01,-1.000000000000000000e+00,1.000000000000000000e+00,-1.000000000000000000e+00,2.000000000000000000e+00,0.000000000000000000e+00,-3.020629882812500000e-01,2.808227539062500000e-01,3.156738281250000000e-01,8.544921875000000000e-01
-2.000000000000000000e+00,1.000000000000000000e+00,3.000000000000000000e+00,-1.500000000000000000e+01,-1.300000000000000000e+01,-5.000000000000000000e+00,-3.000000000000000000e+00,-2.000000000000000000e+00,-3.030395507812500000e-01,2.803344726562500000e-01,3.161010742187500000e-01,8.541259765625000000e-01
5.000000000000000000e+00,0.000000000000000000e+00,2.200000000000000000e+01,1.100000000000000000e+01,9.000000000000000000e+00,2.000000000000000000e+00,2.000000000000000000e+00,0.000000000000000000e+00,-3.030395507812500000e-01,2.803344726562500000e-01,3.161010742187500000e-01,8.541259765625000000e-01
-2.000000000000000000e+00,-1.000000000000000000e+00,-1.400000000000000000e+01,-1.000000000000000000e+00,7.000000000000000000e+00,0.000000000000000000e+00,-4.000000000000000000e+00,-1.000000000000000000e+00,-3.030395507812500000e-01,2.803344726562500000e-01,3.161010742187500000e-01,8.541259765625000000e-01
7.000000000000000000e+00,9.000000000000000000e+00,1.100000000000000000e+01,-2.000000000000000000e+00,-2.900000000000000000e+01,-8.000000000000000000e+00,-3.000000000000000000e+01,-2.300000000000000000e+01,-3.030395507812500000e-01,2.803344726562500000e-01,3.161010742187500000e-01,8.541259765625000000e-01
-3.600000000000000000e+01,-1.900000000000000000e+01,-1.600000000000000000e+01,-7.000000000000000000e+00,3.000000000000000000e+00,2.000000000000000000e+00,2.400000000000000000e+01,1.100000000000000000e+01,-3.031005859375000000e-01,2.803344726562500000e-01,3.161010742187500000e-01,8.541870117187500000e-01
2.100000000000000000e+01,4.000000000000000000e+00,0.000000000000000000e+00,0.000000000000000000e+00,8.000000000000000000e+00,1.000000000000000000e+00,3.000000000000000000e+00,9.000000000000000000e+00,-3.031005859375000000e-01,2.803344726562500000e-01,3.161010742187500000e-01,8.541870117187500000e-01
1.000000000000000000e+00,2.000000000000000000e+00,-5.000000000000000000e+00,-3.000000000000000000e+00,-6.000000000000000000e+00,-3.000000000000000000e+00,-4.000000000000000000e+00,-1.000000000000000000e+00,-3.031005859375000000e-01,2.803344726562500000e-01,3.161010742187500000e-01,8.541870117187500000e-01
-1.000000000000000000e+00,-4.000000000000000000e+00,4.000000000000000000e+00,-1.000000000000000000e+00,-6.000000000000000000e+00,-4.000000000000000000e+00,1.000000000000000000e+00,2.000000000000000000e+00,-3.031005859375000000e-01,2.803344726562500000e-01,3.161010742187500000e-01,8.541870117187500000e-01
3.000000000000000000e+00,5.000000000000000000e+00,-7.000000000000000000e+00,-1.000000000000000000e+00,-1.000000000000000000e+01,-4.000000000000000000e+00,-1.800000000000000000e+01,-1.300000000000000000e+01,-3.023071289062500000e-01,2.805786132812500000e-01,3.157348632812500000e-01,8.544921875000000000e-01
-1.300000000000000000e+01,-6.000000000000000000e+00,6.000000000000000000e+00,0.000000000000000000e+00,-3.000000000000000000e+00,-2.000000000000000000e+00,0.000000000000000000e+00,-4.000000000000000000e+00,-3.023071289062500000e-01,2.805786132812500000e-01,3.157348632812500000e-01,8.544921875000000000e-01
-5.000000000000000000e+00,-1.000000000000000000e+00,1.000000000000000000e+00,-2.000000000000000000e+00,-1.000000000000000000e+00,2.000000000000000000e+00,2.000000000000000000e+00,2.000000000000000000e+00,-3.023071289062500000e-01,2.805786132812500000e-01,3.157348632812500000e-01,8.544921875000000000e-01
2.000000000000000000e+00,2.000000000000000000e+00,5.000000000000000000e+00,4.000000000000000000e+00,1.100000000000000000e+01,0.000000000000000000e+00,2.000000000000000000e+00,1.000000000000000000e+00,-3.023071289062500000e-01,2.805786132812500000e-01,3.157348632812500000e-01,8.544921875000000000e-01
1.000000000000000000e+00,1.000000000000000000e+00,-1.500000000000000000e+01,-1.700000000000000000e+01,-1.000000000000000000e+01,-4.000000000000000000e+00,-7.000000000000000000e+00,-2.000000000000000000e+00,-3.018798828125000000e-01,2.807006835937500000e-01,3.157958984375000000e-01,8.545532226562500000e-01
0.000000000000000000e+00,0.000000000000000000e+00,2.900000000000000000e+01,2.100000000000000000e+01,3.000000000000000000e+00,2.000000000000000000e+00,6.000000000000000000e+00,5.000000000000000000e+00,-3.018798828125000000e-01,2.807006835937500000e-01,3.157958984375000000e-01,8.545532226562500000e-01
0.000000000000000000e+00,-6.000000000000000000e+00,-2.800000000000000000e+01,-1.000000000000000000e+01,-8.000000000000000000e+00,-8.000000000000000000e+00,-5.000000000000000000e+00,-4.000000000000000000e+00,-3.018798828125000000e-01,2.807006835937500000e-01,3.157958984375000000e-01,8.545532226562500000e-01
-3.000000000000000000e+00,-1.000000000000000000e+00,-7.000000000000000000e+00,-4.000000000000000000e+00,-1.000000000000000000e+00,-1.000000000000000000e+00,6.000000000000000000e+00,4.000000000000000000e+00,-3.018798828125000000e-01,2.807006835937500000e-01,3.157958984375000000e-01,8.545532226562500000e-01
6.000000000000000000e+00,1.000000000000000000e+00,6.000000000000000000e+00,4.000000000000000000e+00,8.000000000000000000e+00,3.000000000000000000e+00,1.000000000000000000e+00,-2.000000000000000000e+00,-3.026123046875000000e-01,2.805175781250000000e-01,3.162231445312500000e-01,8.541870117187500000e-01
5.000000000000000000e+00,2.000000000000000000e+00,-2.000000000000000000e+00,-3.000000000000000000e+01,-1.300000000000000000e+01,-2.000000000000000000e+00,-6.000000000000000000e+00,-4.000000000000000000e+00,-3.026123046875000000e-01,2.805175781250000000e-01,3.162231445312500000e-01,8.541870117187500000e-01
-1.200000000000000000e+01,-2.000000000000000000e+00,9.000000000000000000e+00,4.600000000000000000e+01,2.700000000000000000e+01,7.000000000000000000e+00,-2.000000000000000000e+00,-3.000000000000000000e+00,-3.026123046875000000e-01,2.805175781250000000e-01,3.162231445312500000e-01,8.541870117187500000e-01
-2.000000000000000000e+00,-3.000000000000000000e+00,2.300000000000000000e+01,9.000000000000000000e+00,1.000000000000000000e+01,3.000000000000000000e+00,6.000000000000000000e+00,6.000000000000000000e+00,-3.026123046875000000e-01,2.805175781250000000e-01,3.162231445312500000e-01,8.541870117187500000e-01
3.000000000000000000e+00,-5.000000000000000000e+00,-2.900000000000000000e+01,-1.400000000000000000e+01,-8.000000000000000000e+00,-1.000000000000000000e+00,-1.000000000000000000e+00,2.000000000000000000e+00,-3.029174804687500000e-01,2.803955078125000000e-01,3.166503906250000000e-01,8.540039062500000000e-01
-7.000000000000000000e+00,-4.000000000000000000e+00,-1.200000000000000000e+01,-1.000000000000000000e+01,-6.000000000000000000e+00,-6.000000000000000000e+00,-1.000000000000000000e+01,-1.000000000000000000e+01,-3.029174804687500000e-01,2.803955078125000000e-01,3.166503906250000000e-01,8.540039062500000000e-01
1.400000000000000000e+01,5.000000000000000000e+00,3.000000000000000000e+00,-1.900000000000000000e+01,-8.000000000000000000e+00,-4.000000000000000000e+00,-2.000000000000000000e+00,-1.000000000000000000e+00,-3.029174804687500000e-01,2.803955078125000000e-01,3.166503906250000000e-01,8.540039062500000000e-01
-2.500000000000000000e+01,-1.200000000000000000e+01,-1.300000000000000000e+01,1.000000000000000000e+01,4.000000000000000000e+00,1.000000000000000000e+00,4.000000000000000000e+00,1.000000000000000000e+00,-3.029174804687500000e-01,2.803955078125000000e-01,3.166503906250000000e-01,8.540039062500000000e-01
6.000000000000000000e+00,3.000000000000000000e+00,1.400000000000000000e+01,8.000000000000000000e+00,0.000000000000000000e+00,4.000000000000000000e+00,-2.000000000000000000e+00,0.000000000000000000e+00,-3.029174804687500000e-01,2.803955078125000000e-01,3.166503906250000000e-01,8.540039062500000000e-01
-4.000000000000000000e+00,-3.000000000000000000e+00,1.000000000000000000e+00,3.000000000000000000e+00,-4.000000000000000000e+00,-3.000000000000000000e+00,0.000000000000000000e+00,-3.000000000000000000e+00,-3.029174804687500000e-01,2.803955078125000000e-01,3.166503906250000000e-01,8.540039062500000000e-01
1.000000000000000000e+00,-1.000000000000000000e+00,-3.000000000000000000e+00,-9.000000000000000000e+00,-9.000000000000000000e+00,-3.000000000000000000e+00,2.000000000000000000e+00,1.000000000000000000e+00,-3.029174804687500000e-01,2.803955078125000000e-01,3.166503906250000000e-01,8.540039062500000000e-01
7.000000000000000000e+00,-1.000000000000000000e+00,-5.000000000000000000e+00,2.000000000000000000e+00,1.000000000000000000e+00,-1.000000000000000000e+00,2.000000000000000000e+00,2.000000000000000000e+00,-3.029174804687500000e-01,2.803955078125000000e-01,3.166503906250000000e-01,8.540039062500000000e-01
1.000000000000000000e+00,1.000000000000000000e+00,3.000000000000000000e+00,-3.000000000000000000e+00,-4.000000000000000000e+00,-3.000000000000000000e+00,-4.000000000000000000e+00,-3.000000000000000000e+00,-3.026123046875000000e-01,2.803955078125000000e-01,3.162231445312500000e-01,8.542480468750000000e-01
-5.000000000000000000e+00,0.000000000000000000e+00,-2.000000000000000000e+00,1.000000000000000000e+00,0.000000000000000000e+00,-3.000000000000000000e+00,-3.000000000000000000e+00,0.000000000000000000e+00,-3.026123046875000000e-01,2.803955078125000000e-01,3.162231445312500000e-01,8.542480468750000000e-01
-2.000000000000000000e+00,3.000000000000000000e+00,2.000000000000000000e+00,-5.000000000000000000e+00,-4.000000000000000000e+00,0.000000000000000000e+00,-2.000000000000000000e+00,-3.000000000000000000e+00,-3.026123046875000000e-01,2.803955078125000000e-01,3.162231445312500000e-01,8.542480468750000000e-01
1.000000000000000000e+00,3.000000000000000000e+00,9.000000000000000000e+00,4.000000000000000000e+00,4.000000000000000000e+00,2.000000000000000000e+00,4.000000000000000000e+00,2.000000000000000000e+00,-3.026123046875000000e-01,2.803955078125000000e-01,3.162231445312500000e-01,8.542480468750000000e-01
4.000000000000000000e+00,0.000000000000000000e+00,-6.000000000000000000e+00,-1.800000000000000000e+01,-1.400000000000000000e+01,-4.000000000000000000e+00,-1.000000000000000000e+00,2.000000000000000000e+00,-3.025512695312500000e-01,2.804565429687500000e-01,3.162231445312500000e-01,8.542480468750000000e-01
0.000000000000000000e+00,0.000000000000000000e+00,-3.000000000000000000e+00,-6.000000000000000000e+00,-8.000000000000000000e+00,-1.000000000000000000e+00,0.000000000000000000e+00,-1.000000000000000000e+00,-3.025512695312500000e-01,2.804565429687500000e-01,3.162231445312500000e-01,8.542480468750000000e-01
-5.000000000000000000e+00,-3.000000000000000000e+00,-1.200000000000000000e+01,1.000000000000000000e+00,9.000000000000000000e+00,0.000000000000000000e+00,-3.000000000000000000e+00,-2.000000000000000000e+00,-3.025512695312500000e-01,2.804565429687500000e-01,3.162231445312500000e-01,8.542480468750000000e-01
4.000000000000000000e+00,-1.000000000000000000e+00,-6.000000000000000000e+00,-1.800000000000000000e+01,2.000000000000000000e+00,-1.000000000000000000e+00,0.000000000000000000e+00,-4.000000000000000000e+00,-3.025512695312500000e-01,2.804565429687500000e-01,3.162231445312500000e-01,8.542480468750000000e-01
-1.000000000000000000e+00,1.000000000000000000e+00,5.000000000000000000e+00,0.000000000000000000e+00,-7.000000000000000000e+00,-3.000000000000000000e+00,-2.000000000000000000e+00,-3.000000000000000000e+00,-3.031616210937500000e-01,2.802734375000000000e-01,3.167114257812500000e-01,8.539428710937500000e-01
-1.000000000000000000e+00,-1.000000000000000000e+00,5.000000000000000000e+00,1.500000000000000000e+01,5.000000000000000000e+00,2.000000000000000000e+00,1.000000000000000000e+00,1.000000000000000000e+00,-3.031616210937500000e-01,2.802734375000000000e-01,3.167114257812500000e-01,8.539428710937500000e-01
0.000000000000000000e+00,-2.000000000000000000e+00,1.000000000000000000e+01,-3.000000000000000000e+00,-5.000000000000000000e+00,6.000000000000000000e+00,1.000000000000000000e+00,-2.000000000000000000e+00,-3.031616210937500000e-01,2.802734375000000000e-01,3.167114257812500000e-01,8.539428710937500000e-01
0.000000000000000000e+00,1.000000000000000000e+00,-1.800000000000000000e+01,-9.000000000000000000e+00,-7.000000000000000000e+00,-2.000000000000000000e+00,-2.000000000000000000e+00,-1.000000000000000000e+00,-3.031616210937500000e-01,2.802734375000000000e-01,3.167114257812500000e-01,8.539428710937500000e-01
-4.000000000000000000e+00,-5.000000000000000000e+00,6.000000000000000000e+00,-1.000000000000000000e+00,-4.000000000000000000e+00,0.000000000000000000e+00,1.000000000000000000e+00,-1.000000000000000000e+00,-3.035278320312500000e-01,2.800292968750000000e-01,3.167114257812500000e-01,8.538818359375000000e-01
5.000000000000000000e+00,0.000000000000000000e+00,1.000000000000000000e+00,1.000000000000000000e+00,4.000000000000000000e+00,3.000000000000000000e+00,3.000000000000000000e+00,-2.000000000000000000e+00,-3.035278320312500000e-01,2.800292968750000000e-01,3.167114257812500000e-01,8.538818359375000000e-01
-4.000000000000000000e+00,-2.000000000000000000e+00,1.500000000000000000e+01,2.000000000000000000e+00,5.000000000000000000e+00,0.000000000000000000e+00,1.000000000000000000e+00,3.000000000000000000e+00,-3.035278320312500000e-01,2.800292968750000000e-01,3.167114257812500000e-01,8.538818359375000000e-01
-7.000000000000000000e+00,-1.000000000000000000e+00,-1.000000000000000000e+01,0.000000000000000000e+00,3.000000000000000000e+00,-1.000000000000000000e+00,-3.000000000000000000e+00,-2.000000000000000000e+00,-3.035278320312500000e-01,2.800292968750000000e-01,3.167114257812500000e-01,8.538818359375000000e-01
1.000000000000000000e+01,5.000000000000000000e+00,-1.000000000000000000e+00,4.000000000000000000e+00,-2.000000000000000000e+00,-2.000000000000000000e+00,-4.000000000000000000e+00,-3.000000000000000000e+00,-3.033447265625000000e-01,2.798461914062500000e-01,3.163452148437500000e-01,8.541259765625000000e-01
-2.000000000000000000e+01,-7.000000000000000000e+00,9.000000000000000000e+00,4.000000000000000000e+00,-3.000000000000000000e+00,-3.000000000000000000e+00,-4.000000000000000000e+00,-2.000000000000000000e+00,-3.033447265625000000e-01,2.798461914062500000e-01,3.163452148437500000e-01,8.541259765625000000e-01
8.000000000000000000e+00,-2.000000000000000000e+00,-1.000000000000000000e+01,-3.000000000000000000e+00,-4.000000000000000000e+00,-3.000000000000000000e+00,-1.000000000000000000e+00,-1.000000000000000000e+00,-3.033447265625000000e-01,2.798461914062500000e-01,3.163452148437500000e-01,8.541259765625000000e-01
-7.000000000000000000e+00,-1.000000000000000000e+00,2.100000000000000000e+01,6.000000000000000000e+00,8.000000000000000000e+00,4.000000000000000000e+00,6.000000000000000000e+00,2.000000000000000000e+00,-3.033447265625000000e-01,2.798461914062500000e-01,3.163452148437500000e-01,8.541259765625000000e-01
-3.000000000000000000e+00,-5.000000000000000000e+00,-4.400000000000000000e+01,-6.000000000000000000e+00,0.000000000000000000e+00,-2.000000000000000000e+00,-1.000000000000000000e+00,-1.000000000000000000e+00,-3.028564453125000000e-01,2.799682617187500000e-01,3.163452148437500000e-01,8.542480468750000000e-01
4.000000000000000000e+00,0.000000000000000000e+00,4.000000000000000000e+00,-1.800000000000000000e+01,-8.000000000000000000e+00,-1.000000000000000000e+00,-2.000000000000000000e+00,2.000000000000000000e+00,-3.028564453125000000e-01,2.799682617187500000e-01,3.163452148437500000e-01,8.542480468750000000e-01
-3.000000000000000000e+00,2.000000000000000000e+00,6.000000000000000000e+00,1.100000000000000000e+01,1.500000000000000000e+01,0.000000000000000000e+00,-2.000000000000000000e+00,-2.000000000000000000e+00,-3.028564453125000000e-01,2.799682617187500000e-01,3.163452148437500000e-01,8.542480468750000000e-01
1.000000000000000000e+00,-3.000000000000000000e+00,4.000000000000000000e+00,-4.000000000000000000e+00,-1.200000000000000000e+01,-4.000000000000000000e+00,-5.000000000000000000e+00,-2.000000000000000000e+00,-3.028564453125000000e-01,2.799682617187500000e-01,3.163452148437500000e-01,8.542480468750000000e-01
0.000000000000000000e+00,2.000000000000000000e+00,1.400000000000000000e+01,2.200000000000000000e+01,1.000000000000000000e+01,1.000000000000000000e+00,-1.000000000000000000e+00,-1.000000000000000000e+00,-3.030395507812500000e-01,2.798461914062500000e-01,3.167724609375000000e-01,8.540649414062500000e-01
4.000000000000000000e+00,7.000000000000000000e+00,0.000000000000000000e+00,-3.500000000000000000e+01,-1.000000000000000000e+01,-2.000000000000000000e+00,-2.000000000000000000e+00,0.000000000000000000e+00,-3.030395507812500000e-01,2.798461914062500000e-01,3.167724609375000000e-01,8.540649414062500000e-01
-7.000000000000000000e+00,-1.100000000000000000e+01,-1.000000000000000000e+00,1.900000000000000000e+01,3.000000000000000000e+00,0.000000000000000000e+00,-1.000000000000000000e+00,-4.000000000000000000e+00,-3.030395507812500000e-01,2.798461914062500000e-01,3.167724609375000000e-01,8.540649414062500000e-01
5.000000000000000000e+00,1.000000000000000000e+00,-9.000000000000000000e+00,2.000000000000000000e+00,1.000000000000000000e+00,0.000000000000000000e+00,-6.000000000000000000e+00,-3.000000000000000000e+00,-3.030395507812500000e-01,2.798461914062500000e-01,3.167724609375000000e-01,8.540649414062500000e-01
-1.000000000000000000e+00,-3.000000000000000000e+00,-1.100000000000000000e+01,-8.000000000000000000e+00,-7.000000000000000000e+00,-2.000000000000000000e+00,2.000000000000000000e+00,3.000000000000000000e+00,-3.037109375000000000e-01,2.796020507812500000e-01,3.171386718750000000e-01,8.537597656250000000e-01
-1.100000000000000000e+01,-9.000000000000000000e+00,-5.000000000000000000e+00,7.000000000000000000e+00,6.000000000000000000e+00,1.000000000000000000e+00,1.000000000000000000e+00,-1.000000000000000000e+00,-3.037109375000000000e-01,2.796020507812500000e-01,3.171386718750000000e-01,8.537597656250000000e-01
1.000000000000000000e+00,4.000000000000000000e+00,0.000000000000000000e+00,-1.200000000000000000e+01,-1.000000000000000000e+01,-5.000000000000000000e+00,-8.000000000000000000e+00,-2.000000000000000000e+00,-3.037109375000000000e-01,2.796020507812500000e-01,3.171386718750000000e-01,8.537597656250000000e-01
-3.000000000000000000e+00,-3.000000000000000000e+00,-2.000000000000000000e+00,-2.000000000000000000e+00,0.000000000000000000e+00,0.000000000000000000e+00,-1.000000000000000000e+00,-6.000000000000000000e+00,-3.037109375000000000e-01,2.796020507812500000e-01,3.171386718750000000e-01,8.537597656250000000e-01
-1.000000000000000000e+00,6.000000000000000000e+00,1.400000000000000000e+01,1.000000000000000000e+00,-5.000000000000000000e+00,0.000000000000000000e+00,0.000000000000000000e+00,-2.000000000000000000e+00,-3.041381835937500000e-01,2.793579101562500000e-01,3.171997070312500000e-01,8.536376953125000000e-01
-4.000000000000000000e+00,-7.000000000000000000e+00,-1.000000000000000000e+01,6.000000000000000000e+00,6.000000000000000000e+00,0.000000000000000000e+00,-1.000000000000000000e+00,1.000000000000000000e+00,-3.041381835937500000e-01,2.793579101562500000e-01,3.171997070312500000e-01,8.536376953125000000e-01
1.300000000000000000e+01,2.000000000000000000e+00,-1.300000000000000000e+01,-5.000000000000000000e+00,-8.000000000000000000e+00,-3.000000000000000000e+00,-1.000000000000000000e+00,3.000000000000000000e+00,-3.041381835937500000e-01,2.793579101562500000e-01,3.171997070312500000e-01,8.536376953125000000e-01
-6.000000000000000000e+00,-5.000000000000000000e+00,-1.000000000000000000e+00,1.000000000000000000e+00,9.000000000000000000e+00,6.000000000000000000e+00,2.000000000000000000e+00,-2.000000000000000000e+00,-3.041381835937500000e-01,2.793579101562500000e-01,3.171997070312500000e-01,8.536376953125000000e-01
0.000000000000000000e+00,1.000000000000000000e+00,1.300000000000000000e+01,-1.000000000000000000e+00,-4.000000000000000000e+00,-4.000000000000000000e+00,-7.000000000000000000e+00,-3.000000000000000000e+00,-3.038940429687500000e-01,2.795410156250000000e-01,3.170166015625000000e-01,8.538208007812500000e-01
3.000000000000000000e+00,1.000000000000000000e+00,-6.000000000000000000e+00,4.000000000000000000e+00,-5.000000000000000000e+00,-2.000000000000000000e+00,-1.000000000000000000e+00,-1.000000000000000000e+00,-3.038940429687500000e-01,2.795410156250000000e-01,3.170166015625000000e-01,8.538208007812500000e-01
-8.000000000000000000e+00,1.000000000000000000e+00,9.000000000000000000e+00,-1.900000000000000000e+01,-1.900000000000000000e+01,-1.000000000000000000e+00,-2.000000000000000000e+00,-4.000000000000000000e+00,-3.038940429687500000e-01,2.795410156250000000e-01,3.170166015625000000e-01,8.538208007812500000e-01
1.000000000000000000e+00,1.000000000000000000e+00,2.000000000000000000e+00,2.500000000000000000e+01,2.500000000000000000e+01,1.000000000000000000e+00,-4.000000000000000000e+00,-2.000000000000000000e+00,-3.038940429687500000e-01,2.795410156250000000e-01,3.170166015625000000e-01,8.538208007812500000e-01
8.000000000000000000e+00,2.000000000000000000e+00,3.000000000000000000e+00,-5.000000000000000000e+00,2.000000000000000000e+00,0.000000000000000000e+00,1.000000000000000000e+01,1.100000000000000000e+01,-3.038330078125000000e-01,2.795410156250000000e-01,3.170166015625000000e-01,8.538208007812500000e-01
1.000000000000000000e+00,-2.000000000000000000e+00,-1.100000000000000000e+01,4.000000000000000000e+00,0.000000000000000000e+00,1.000000000000000000e+00,2.000000000000000000e+00,3.000000000000000000e+00,-3.038330078125000000e-01,2.795410156250000000e-01,3.170166015625000000e-01,8.538208007812500000e-01
-1.000000000000000000e+00,-3.000000000000000000e+00,-6.000000000000000000e+00,-1.200000000000000000e+01,-7.000000000000000000e+00,-2.000000000000000000e+00,1.000000000000000000e+00,0.000000000000000000e+00,-3.038330078125000000e-01,2.795410156250000000e-01,3.170166015625000000e-01,8.538208007812500000e-01
2.000000000000000000e+00,1.000000000000000000e+00,6.000000000000000000e+00,-2.000000000000000000e+00,-1.000000000000000000e+01,-4.000000000000000000e+00,-3.000000000000000000e+00,-3.000000000000000000e+00,-3.038330078125000000e-01,2.795410156250000000e-01,3.170166015625000000e-01,8.538208007812500000e-01
-4.000000000000000000e+00,1.000000000000000000e+00,4.000000000000000000e+00,3.000000000000000000e+00,4.000000000000000000e+00,-1.000000000000000000e+00,-6.000000000000000000e+00,-5.000000000000000000e+00,-3.039550781250000000e-01,2.795410156250000000e-01,3.173828125000000000e-01,8.536376953125000000e-01
2.000000000000000000e+00,0.000000000000000000e+00,0.000000000000000000e+00,2.000000000000000000e+00,0.000000000000000000e+00,-2.000000000000000000e+00,-1.000000000000000000e+00,-1.000000000000000000e+00,-3.039550781250000000e-01,2.795410156250000000e-01,3.173828125000000000e-01,8.536376953125000000e-01
-6.000000000000000000e+00,-2.000000000000000000e+00,-3.000000000000000000e+00,-1.500000000000000000e+01,-1.200000000000000000e+01,-6.000000000000000000e+00,-4.000000000000000000e+00,-2.000000000000000000e+00,-3.039550781250000000e-01,2.795410156250000000e-01,3.173828125000000000e-01,8.536376953125000000e-01
5.000000000000000000e+00,4.000000000000000000e+00,-8.000000000000000000e+00,4.000000000000000000e+00,1.200000000000000000e+01,3.000000000000000000e+00,4.000000000000000000e+00,3.000000000000000000e+00,-3.039550781250000000e-01,2.795410156250000000e-01,3.173828125000000000e-01,8.536376953125000000e-01
-1.100000000000000000e+01,0.000000000000000000e+00,7.000000000000000000e+01,2.500000000000000000e+01,1.100000000000000000e+01,4.000000000000000000e+00,3.000000000000000000e+00,-1.000000000000000000e+00,-3.042602539062500000e-01,2.794799804687500000e-01,3.181152343750000000e-01,8.532714843750000000e-01
1.400000000000000000e+01,-2.000000000000000000e+00,-8.700000000000000000e+01,-1.800000000000000000e+01,-1.100000000000000000e+01,-6.000000000000000000e+00,-7.000000000000000000e+00,-8.000000000000000000e+00,-3.042602539062500000e-01,2.794799804687500000e-01,3.181152343750000000e-01,8.532714843750000000e-01
-2.700000000000000000e+01,-1.700000000000000000e+01,-9.000000000000000000e+00,-7.000000000000000000e+00,-1.000000000000000000e+00,-1.000000000000000000e+00,-3.000000000000000000e+00,-3.000000000000000000e+00,-3.042602539062500000e-01,2.794799804687500000e-01,3.181152343750000000e-01,8.532714843750000000e-01
-1.000000000000000000e+00,-3.000000000000000000e+00,-2.000000000000000000e+00,-1.000000000000000000e+01,-1.100000000000000000e+01,-1.000000000000000000e+00,2.000000000000000000e+00,-2.000000000000000000e+00,-3.042602539062500000e-01,2.794799804687500000e-01,3.181152343750000000e-01,8.532714843750000000e-01
2.000000000000000000e+00,2.000000000000000000e+00,0.000000000000000000e+00,-4.000000000000000000e+00,-3.000000000000000000e+00,-2.000000000000000000e+00,0.000000000000000000e+00,0.000000000000000000e+00,-3.048706054687500000e-01,2.792358398437500000e-01,3.184814453125000000e-01,8.529663085937500000e-01
0.000000000000000000e+00,2.000000000000000000e+00,3.400000000000000000e+01,6.000000000000000000e+00,3.000000000000000000e+00,3.000000000000000000e+00,0.000000000000000000e+00,-1.000000000000000000e+00,-3.048706054687500000e-01,2.792358398437500000e-01,3.184814453125000000e-01,8.529663085937500000e-01
2.000000000000000000e+00,-1.000000000000000000e+00,0.000000000000000000e+00,1.300000000000000000e+01,1.200000000000000000e+01,2.000000000000000000e+00,2.000000000000000000e+00,-1.000000000000000000e+00,-3.048706054687500000e-01,2.792358398437500000e-01,3.184814453125000000e-01,8.529663085937500000e-01
6.000000000000000000e+00,1.000000000000000000e+00,-1.100000000000000000e+01,-9.000000000000000000e+00,-1.200000000000000000e+01,-6.000000000000000000e+00,-1.000000000000000000e+00,4.000000000000000000e+00,-3.048706054687500000e-01,2.792358398437500000e-01,3.184814453125000000e-01,8.529663085937500000e-01
-3.000000000000000000e+00,-5.000000000000000000e+00,-1.500000000000000000e+01,-4.000000000000000000e+00,-1.000000000000000000e+00,0.000000000000000000e+00,-7.000000000000000000e+00,-5.000000000000000000e+00,-3.045043945312500000e-01,2.794799804687500000e-01,3.182373046875000000e-01,8.531494140625000000e-01
-2.000000000000000000e+00,0.000000000000000000e+00,1.400000000000000000e+01,2.000000000000000000e+00,0.000000000000000000e+00,-1.000000000000000000e+00,1.000000000000000000e+00,1.000000000000000000e+00,-3.045043945312500000e-01,2.794799804687500000e-01,3.182373046875000000e-01,8.531494140625000000e-01
3.000000000000000000e+00,3.000000000000000000e+00,-6.000000000000000000e+00,2.000000000000000000e+00,5.000000000000000000e+00,-1.000000000000000000e+00,-1.000000000000000000e+00,-2.000000000000000000e+00,-3.045043945312500000e-01,2.794799804687500000e-01,3.182373046875000000e-01,8.531494140625000000e-01
-3.000000000000000000e+00,-4.000000000000000000e+00,5.000000000000000000e+00,0.000000000000000000e+00,-8.000000000000000000e+00,-4.000000000000000000e+00,-1.000000000000000000e+00,0.000000000000000000e+00,-3.045043945312500000e-01,2.794799804687500000e-01,3.182373046875000000e-01,8.531494140625000000e-01
-1.000000000000000000e+00,-2.000000000000000000e+00,-9.000000000000000000e+00,-5.000000000000000000e+00,0.000000000000000000e+00,-4.000000000000000000e+00,-3.000000000000000000e+00,-3.000000000000000000e+00,-3.037719726562500000e-01,2.798461914062500000e-01,3.180541992187500000e-01,8.533325195312500000e-01
-3.000000000000000000e+00,-1.000000000000000000e+00,5.000000000000000000e+00,3.000000000000000000e+00,1.000000000000000000e+00,-3.000000000000000000e+00,-1.000000000000000000e+00,-2.000000000000000000e+00,-3.037719726562500000e-01,2.798461914062500000e-01,3.180541992187500000e-01,8.533325195312500000e-01
-2.000000000000000000e+00,3.000000000000000000e+00,1.000000000000000000e+01,7.000000000000000000e+00,0.000000000000000000e+00,0.000000000000000000e+00,1.000000000000000000e+00,-1.000000000000000000e+00,-3.037719726562500000e-01,2.798461914062500000e-01,3.180541992187500000e-01,8.533325195312500000e-01
-1.000000000000000000e+00,0.000000000000000000e+00,-2.000000000000000000e+00,-1.600000000000000000e+01,-1.500000000000000000e+01,-4.000000000000000000e+00,-1.000000000000000000e+00,-1.000000000000000000e+00,-3.037719726562500000e-01,2.798461914062500000e-01,3.180541992187500000e-01,8.533325195312500000e-01
-1.000000000000000000e+00,-4.000000000000000000e+00,-1.300000000000000000e+01,1.200000000000000000e+01,2.600000000000000000e+01,1.100000000000000000e+01,-1.000000000000000000e+00,-3.000000000000000000e+00,-3.038940429687500000e-01,2.800292968750000000e-01,3.184814453125000000e-01,8.530883789062500000e-01
0.000000000000000000e+00,-1.000000000000000000e+00,2.000000000000000000e+00,6.000000000000000000e+00,6.000000000000000000e+00,2.000000000000000000e+00,1.000000000000000000e+00,0.000000000000000000e+00,-3.038940429687500000e-01,2.800292968750000000e-01,3.184814453125000000e-01,8.530883789062500000e-01
3.000000000000000000e+00,3.000000000000000000e+00,-1.000000000000000000e+00,-5.000000000000000000e+00,-4.000000000000000000e+00,-1.000000000000000000e+00,1.000000000000000000e+00,-1.000000000000000000e+00,-3.038940429687500000e-01,2.800292968750000000e-01,3.184814453125000000e-01,8.530883789062500000e-01
1.000000000000000000e+00,1.000000000000000000e+00,-4.000000000000000000e+00,-1.800000000000000000e+01,-2.000000000000000000e+01,-6.000000000000000000e+00,-3.000000000000000000e+00,-2.000000000000000000e+00,-3.038940429687500000e-01,2.800292968750000000e-01,3.184814453125000000e-01,8.530883789062500000e-01
9.000000000000000000e+00,1.000000000000000000e+00,-1.400000000000000000e+01,-2.000000000000000000e+00,5.000000000000000000e+00,-2.000000000000000000e+00,-3.000000000000000000e+00,0.000000000000000000e+00,-3.048095703125000000e-01,2.795410156250000000e-01,3.189086914062500000e-01,8.527221679687500000e-01
-2.500000000000000000e+01,-1.000000000000000000e+01,2.300000000000000000e+01,2.000000000000000000e+01,5.000000000000000000e+00,3.000000000000000000e+00,0.000000000000000000e+00,-3.000000000000000000e+00,-3.048095703125000000e-01,2.795410156250000000e-01,3.189086914062500000e-01,8.527221679687500000e-01
8.000000000000000000e+00,1.000000000000000000e+00,-1.400000000000000000e+01,-1.800000000000000000e+01,-1.300000000000000000e+01,-6.000000000000000000e+00,-1.000000000000000000e+00,1.000000000000000000e+00,-3.051757812500000000e-01,2.791748046875000000e-01,3.188476562500000000e-01,8.527832031250000000e-01
-1.700000000000000000e+01,-7.000000000000000000e+00,8.000000000000000000e+00,3.700000000000000000e+01,4.300000000000000000e+01,1.200000000000000000e+01,4.000000000000000000e+00,1.000000000000000000e+00,-3.051757812500000000e-01,2.791748046875000000e-01,3.188476562500000000e-01,8.527832031250000000e-01
6.000000000000000000e+00,1.000000000000000000e+00,1.000000000000000000e+00,-1.500000000000000000e+01,-1.500000000000000000e+01,-5.000000000000000000e+00,0.000000000000000000e+00,2.000000000000000000e+00,-3.051757812500000000e-01,2.791748046875000000e-01,3.188476562500000000e-01,8.527832031250000000e-01
7.000000000000000000e+00,2.000000000000000000e+00,0.000000000000000000e+00,-2.000000000000000000e+00,0.000000000000000000e+00,-1.000000000000000000e+00,0.000000000000000000e+00,0.000000000000000000e+00,-3.051757812500000000e-01,2.791748046875000000e-01,3.188476562500000000e-01,8.527832031250000000e-01
0.000000000000000000e+00,1.000000000000000000e+00,1.100000000000000000e+01,-6.000000000000000000e+00,-7.000000000000000000e+00,-3.000000000000000000e+00,-3.000000000000000000e+00,-2.000000000000000000e+00,-3.051757812500000000e-01,2.791748046875000000e-01,3.188476562500000000e-01,8.527832031250000000e-01
1.000000000000000000e+00,1.000000000000000000e+00,-1.000000000000000000e+00,-3.000000000000000000e+00,-7.000000000000000000e+00,-3.000000000000000000e+00,2.000000000000000000e+00,0.000000000000000000e+00,-3.051757812500000000e-01,2.791748046875000000e-01,3.188476562500000000e-01,8.527832031250000000e-01
-3.000000000000000000e+00,-2.000000000000000000e+00,-1.100000000000000000e+01,-3.000000000000000000e+00,-7.000000000000000000e+00,-2.000000000000000000e+00,5.000000000000000000e+00,4.000000000000000000e+00,-3.051757812500000000e-01,2.789916992187500000e-01,3.185424804687500000e-01,8.529052734375000000e-01
2.000000000000000000e+00,0.000000000000000000e+00,1.200000000000000000e+01,2.000000000000000000e+00,9.000000000000000000e+00,3.000000000000000000e+00,0.000000000000000000e+00,-1.000000000000000000e+00,-3.051757812500000000e-01,2.789916992187500000e-01,3.185424804687500000e-01,8.529052734375000000e-01
1.000000000000000000e+00,3.000000000000000000e+00,8.000000000000000000e+00,1.200000000000000000e+01,2.000000000000000000e+00,-1.000000000000000000e+00,-1.000000000000000000e+00,2.000000000000000000e+00,-3.051757812500000000e-01,2.789916992187500000e-01,3.185424804687500000e-01,8.529052734375000000e-01
4.000000000000000000e+00,0.000000000000000000e+00,0.000000000000000000e+00,-1.600000000000000000e+01,-7.000000000000000000e+00,-2.000000000000000000e+00,-3.000000000000000000e+00,-3.000000000000000000e+00,-3.051757812500000000e-01,2.789916992187500000e-01,3.185424804687500000e-01,8.529052734375000000e-01
-7.000000000000000000e+00,-3.000000000000000000e+00,-8.000000000000000000e+00,2.000000000000000000e+00,-1.000000000000000000e+00,0.000000000000000000e+00,-5.000000000000000000e+00,-4.000000000000000000e+00,-3.052368164062500000e-01,2.788696289062500000e-01,3.184204101562500000e-01,8.529663085937500000e-01
1.000000000000000000e+00,2.000000000000000000e+00,-1.000000000000000000e+00,-1.300000000000000000e+01,-1.800000000000000000e+01,-6.000000000000000000e+00,-2.000000000000000000e+00,-1.000000000000000000e+00,-3.052368164062500000e-01,2.788696289062500000e-01,3.184204101562500000e-01,8.529663085937500000e-01
0.000000000000000000e+00,-1.000000000000000000e+00,-1.000000000000000000e+00,7.000000000000000000e+00,-5.000000000000000000e+00,-2.000000000000000000e+00,0.000000000000000000e+00,0.000000000000000000e+00,-3.052368164062500000e-01,2.788696289062500000e-01,3.184204101562500000e-01,8.529663085937500000e-01
1.000000000000000000e+00,1.000000000000000000e+00,1.400000000000000000e+01,1.800000000000000000e+01,2.500000000000000000e+01,7.000000000000000000e+00,0.000000000000000000e+00,0.000000000000000000e+00,-3.052368164062500000e-01,2.788696289062500000e-01,3.184204101562500000e-01,8.529663085937500000e-01
-5.000000000000000000e+00,-1.000000000000000000e+00,-8.000000000000000000e+00,-3.000000000000000000e+00,-8.000000000000000000e+00,-4.000000000000000000e+00,-3.000000000000000000e+00,-2.000000000000000000e+00,-3.055419921875000000e-01,2.786254882812500000e-01,3.183593750000000000e-01,8.529663085937500000e-01
0.000000000000000000e+00,0.000000000000000000e+00,-8.000000000000000000e+00,-2.000000000000000000e+00,-1.000000000000000000e+00,1.000000000000000000e+00,0.000000000000000000e+00,0.000000000000000000e+00,-3.055419921875000000e-01,2.786254882812500000e-01,3.183593750000000000e-01,8.529663085937500000e-01
6.000000000000000000e+00,1.000000000000000000e+00,3.000000000000000000e+00,-1.900000000000000000e+01,0.000000000000000000e+00,2.000000000000000000e+00,-3.000000000000000000e+00,-3.000000000000000000e+00,-3.055419921875000000e-01,2.786254882812500000e-01,3.183593750000000000e-01,8.529663085937500000e-01
-7.000000000000000000e+00,-3.000000000000000000e+00,-8.000000000000000000e+00,1.700000000000000000e+01,-9.000000000000000000e+00,-4.000000000000000000e+00,-4.000000000000000000e+00,-2.000000000000000000e+00,-3.055419921875000000e-01,2.786254882812500000e-01,3.183593750000000000e-01,8.529663085937500000e-01
-3.000000000000000000e+00,-5.000000000000000000e+00,-1.000000000000000000e+00,0.000000000000000000e+00,6.000000000000000000e+00,-1.000000000000000000e+00,0.000000000000000000e+00,0.000000000000000000e+00,-3.056640625000000000e-01,2.783813476562500000e-01,3.181152343750000000e-01,8.531494140625000000e-01
5.000000000000000000e+00,0.000000000000000000e+00,0.000000000000000000e+00,-2.000000000000000000e+00,-1.000000000000000000e+00,-2.000000000000000000e+00,-2.000000000000000000e+00,0.000000000000000000e+00,-3.056640625000000000e-01,2.783813476562500000e-01,3.181152343750000000e-01,8.531494140625000000e-01
-4.000000000000000000e+00,1.000000000000000000e+00,1.800000000000000000e+01,1.000000000000000000e+01,9.000000000000000000e+00,5.000000000000000000e+00,0.000000000000000000e+00,-2.000000000000000000e+00,-3.056640625000000000e-01,2.783813476562500000e-01,3.181152343750000000e-01,8.531494140625000000e-01
9.000000000000000000e+00,3.000000000000000000e+00,-3.100000000000000000e+01,-2.300000000000000000e+01,-1.600000000000000000e+01,-4.000000000000000000e+00,-1.000000000000000000e+00,3.000000000000000000e+00,-3.056640625000000000e-01,2.783813476562500000e-01,3.181152343750000000e-01,8.531494140625000000e-01
-4.000000000000000000e+00,-2.000000000000000000e+00,1.000000000000000000e+01,4.000000000000000000e+00,1.000000000000000000e+00,-3.000000000000000000e+00,-7.000000000000000000e+00,-6.000000000000000000e+00,-3.052978515625000000e-01,2.782592773437500000e-01,3.177490234375000000e-01,8.533935546875000000e-01
-1.000000000000000000e+00,-1.000000000000000000e+00,-1.200000000000000000e+01,-2.000000000000000000e+00,-6.000000000000000000e+00,-4.000000000000000000e+00,-1.000000000000000000e+00,1.000000000000000000e+00,-3.052978515625000000e-01,2.782592773437500000e-01,3.177490234375000000e-01,8.533935546875000000e-01
-3.000000000000000000e+00,-5.000000000000000000e+00,-1.600000000000000000e+01,-5.000000000000000000e+00,3.000000000000000000e+00,-4.000000000000000000e+00,-1.000000000000000000e+00,-1.000000000000000000e+00,-3.052978515625000000e-01,2.782592773437500000e-01,3.177490234375000000e-01,8.533935546875000000e-01
0.000000000000000000e+00,1.000000000000000000e+00,1.400000000000000000e+01,5.000000000000000000e+00,3.000000000000000000e+00,-2.000000000000000000e+00,-1.000000000000000000e+00,0.000000000000000000e+00,-3.052978515625000000e-01,2.782592773437500000e-01,3.177490234375000000e-01,8.533935546875000000e-01
-1.000000000000000000e+00,1.000000000000000000e+00,-1.600000000000000000e+01,-2.000000000000000000e+00,-5.000000000000000000e+00,-2.000000000000000000e+00,3.000000000000000000e+00,0.000000000000000000e+00,-3.052978515625000000e-01,2.780761718750000000e-01,3.176269531250000000e-01,8.535156250000000000e-01
2.000000000000000000e+00,3.000000000000000000e+00,5.000000000000000000e+00,0.000000000000000000e+00,1.000000000000000000e+00,1.000000000000000000e+00,3.000000000000000000e+00,2.000000000000000000e+00,-3.052978515625000000e-01,2.780761718750000000e-01,3.176269531250000000e-01,8.535156250000000000e-01
-4.000000000000000000e+00,0.000000000000000000e+00,-3.000000000000000000e+00,2.000000000000000000e+00,1.000000000000000000e+00,1.000000000000000000e+00,0.000000000000000000e+00,-2.000000000000000000e+00,-3.052978515625000000e-01,2.780761718750000000e-01,3.176269531250000000e-01,8.535156250000000000e-01
1.000000000000000000e+00,-5.000000000000000000e+00,-2.000000000000000000e+01,-1.300000000000000000e+01,-1.300000000000000000e+01,-9.000000000000000000e+00,-4.000000000000000000e+00,-1.000000000000000000e+00,-3.052978515625000000e-01,2.780761718750000000e-01,3.176269531250000000e-01,8.535156250000000000e-01
-2.000000000000000000e+00,-2.000000000000000000e+00,1.400000000000000000e+01,0.000000000000000000e+00,-1.000000000000000000e+00,0.000000000000000000e+00,-1.000000000000000000e+00,-1.000000000000000000e+00,-3.055419921875000000e-01,2.778930664062500000e-01,3.176879882812500000e-01,8.534545898437500000e-01
0.000000000000000000e+00,-1.000000000000000000e+00,8.000000000000000000e+00,-3.000000000000000000e+00,-3.000000000000000000e+00,-2.000000000000000000e+00,-1.000000000000000000e+00,-2.000000000000000000e+00,-3.055419921875000000e-01,2.778930664062500000e-01,3.176879882812500000e-01,8.534545898437500000e-01
-4.000000000000000000e+00,-4.000000000000000000e+00,-1.300000000000000000e+01,0.000000000000000000e+00,-1.400000000000000000e+01,-3.000000000000000000e+00,3.000000000000000000e+00,2.000000000000000000e+00,-3.055419921875000000e-01,2.778930664062500000e-01,3.176879882812500000e-01,8.534545898437500000e-01
8.000000000000000000e+00,4.000000000000000000e+00,1.200000000000000000e+01,-7.000000000000000000e+00,1.700000000000000000e+01,2.000000000000000000e+00,-1.000000000000000000e+00,2.000000000000000000e+00,-3.055419921875000000e-01,2.778930664062500000e-01,3.176879882812500000e-01,8.534545898437500000e-01
5.000000000000000000e+00,2.000000000000000000e+00,-1.400000000000000000e+01,1.300000000000000000e+01,2.000000000000000000e+00,0.000000000000000000e+00,-2.000000000000000000e+00,-4.000000000000000000e+00,-3.059082031250000000e-01,2.775878906250000000e-01,3.176269531250000000e-01,8.534545898437500000e-01
-2.700000000000000000e+01,-1.200000000000000000e+01,0.000000000000000000e+00,-1.900000000000000000e+01,-4.000000000000000000e+00,0.000000000000000000e+00,-1.000000000000000000e+00,0.000000000000000000e+00,-3.059082031250000000e-01,2.775878906250000000e-01,3.176269531250000000e-01,8.534545898437500000e-01
4.000000000000000000e+00,-1.000000000000000000e+00,8.000000000000000000e+00,4.000000000000000000e+01,1.800000000000000000e+01,5.000000000000000000e+00,5.000000000000000000e+00,3.000000000000000000e+00,-3.059082031250000000e-01,2.775878906250000000e-01,3.176269531250000000e-01,8.534545898437500000e-01
6.000000000000000000e+00,2.000000000000000000e+00,-1.600000000000000000e+01,-1.100000000000000000e+01,-7.000000000000000000e+00,-2.000000000000000000e+00,2.000000000000000000e+00,1.000000000000000000e+00,-3.059082031250000000e-01,2.775878906250000000e-01,3.176269531250000000e-01,8.534545898437500000e-01
