5.000000000000000000e+00,3.800000000000000000e+01,1.400000000000000000e+01,1.000000000000000000e+00,0.000000000000000000e+00,2.000000000000000000e+00,2.000000000000000000e+00,0.000000000000000000e+00,-4.042968750000000000e-01,3.515625000000000000e-01,6.234741210937500000e-01,5.693359375000000000e-01
1.000000000000000000e+00,1.000000000000000000e+00,-2.000000000000000000e+00,-9.000000000000000000e+00,-6.000000000000000000e+00,-3.000000000000000000e+00,-1.000000000000000000e+00,0.000000000000000000e+00,-4.042968750000000000e-01,3.515625000000000000e-01,6.234741210937500000e-01,5.693359375000000000e-01
0.000000000000000000e+00,-2.100000000000000000e+01,-1.000000000000000000e+00,5.000000000000000000e+00,1.000000000000000000e+00,1.000000000000000000e+00,-1.000000000000000000e+00,-1.000000000000000000e+00,-4.035644531250000000e-01,3.520507812500000000e-01,6.240234375000000000e-01,5.689697265625000000e-01
-1.000000000000000000e+00,0.000000000000000000e+00,4.000000000000000000e+00,0.000000000000000000e+00,-1.000000000000000000e+00,-2.000000000000000000e+00,-1.000000000000000000e+00,-1.000000000000000000e+00,-4.035644531250000000e-01,3.520507812500000000e-01,6.240234375000000000e-01,5.689697265625000000e-01
2.000000000000000000e+00,1.000000000000000000e+01,-3.000000000000000000e+00,3.000000000000000000e+00,1.000000000000000000e+00,2.000000000000000000e+00,0.000000000000000000e+00,0.000000000000000000e+00,-4.035644531250000000e-01,3.520507812500000000e-01,6.240234375000000000e-01,5.689697265625000000e-01
-1.000000000000000000e+00,1.000000000000000000e+00,-7.000000000000000000e+00,-4.000000000000000000e+00,0.000000000000000000e+00,-1.000000000000000000e+00,0.000000000000000000e+00,-1.000000000000000000e+00,-4.035644531250000000e-01,3.520507812500000000e-01,6.240234375000000000e-01,5.689697265625000000e-01
-1.000000000000000000e+00,1.000000000000000000e+00,-4.000000000000000000e+00,-2.000000000000000000e+00,-3.000000000000000000e+00,0.000000000000000000e+00,-1.000000000000000000e+00,2.000000000000000000e+00,-4.031372070312500000e-01,3.520507812500000000e-01,6.245117187500000000e-01,5.687255859375000000e-01
0.000000000000000000e+00,1.000000000000000000e+01,7.000000000000000000e+00,7.000000000000000000e+00,1.000000000000000000e+00,-2.000000000000000000e+00,1.000000000000000000e+00,-1.000000000000000000e+00,-4.031372070312500000e-01,3.520507812500000000e-01,6.245117187500000000e-01,5.687255859375000000e-01
0.000000000000000000e+00,-1.700000000000000000e+01,-1.200000000000000000e+01,-2.000000000000000000e+00,-1.000000000000000000e+00,-1.000000000000000000e+00,-2.000000000000000000e+00,0.000000000000000000e+00,-4.031372070312500000e-01,3.520507812500000000e-01,6.245117187500000000e-01,5.687255859375000000e-01
-6.000000000000000000e+00,1.600000000000000000e+01,9.000000000000000000e+00,0.000000000000000000e+00,0.000000000000000000e+00,-1.000000000000000000e+00,-2.000000000000000000e+00,-1.000000000000000000e+00,-4.031372070312500000e-01,3.520507812500000000e-01,6.245117187500000000e-01,5.687255859375000000e-01
8.000000000000000000e+00,-1.700000000000000000e+01,-1.400000000000000000e+01,-7.000000000000000000e+00,-1.000000000000000000e+00,-3.000000000000000000e+00,-1.000000000000000000e+00,-3.000000000000000000e+00,-4.031372070312500000e-01,3.514404296875000000e-01,6.249389648437500000e-01,5.686645507812500000e-01
-9.000000000000000000e+00,1.000000000000000000e+00,-6.000000000000000000e+00,-6.000000000000000000e+00,-3.000000000000000000e+00,-3.000000000000000000e+00,-2.000000000000000000e+00,0.000000000000000000e+00,-4.031372070312500000e-01,3.514404296875000000e-01,6.249389648437500000e-01,5.686645507812500000e-01
1.600000000000000000e+01,-9.000000000000000000e+00,-3.000000000000000000e+00,1.000000000000000000e+00,-7.000000000000000000e+00,-3.000000000000000000e+00,-3.000000000000000000e+00,-4.000000000000000000e+00,-4.031372070312500000e-01,3.514404296875000000e-01,6.249389648437500000e-01,5.686645507812500000e-01
0.000000000000000000e+00,1.600000000000000000e+01,5.000000000000000000e+00,1.000000000000000000e+00,3.000000000000000000e+00,0.000000000000000000e+00,-4.000000000000000000e+00,-4.000000000000000000e+00,-4.031372070312500000e-01,3.514404296875000000e-01,6.249389648437500000e-01,5.686645507812500000e-01
-4.000000000000000000e+00,0.000000000000000000e+00,6.000000000000000000e+00,5.000000000000000000e+00,4.000000000000000000e+00,5.000000000000000000e+00,1.000000000000000000e+00,1.000000000000000000e+00,-4.033813476562500000e-01,3.507690429687500000e-01,6.248779296875000000e-01,5.690307617187500000e-01
-7.000000000000000000e+00,4.000000000000000000e+00,-1.000000000000000000e+00,-4.000000000000000000e+00,-6.000000000000000000e+00,-4.000000000000000000e+00,-3.000000000000000000e+00,-2.000000000000000000e+00,-4.033813476562500000e-01,3.507690429687500000e-01,6.248779296875000000e-01,5.690307617187500000e-01
0.000000000000000000e+00,-1.300000000000000000e+01,-9.000000000000000000e+00,-3.000000000000000000e+00,1.000000000000000000e+00,0.000000000000000000e+00,-1.000000000000000000e+00,-1.000000000000000000e+00,-4.033813476562500000e-01,3.507690429687500000e-01,6.248779296875000000e-01,5.690307617187500000e-01
0.000000000000000000e+00,-1.000000000000000000e+00,0.000000000000000000e+00,-3.000000000000000000e+00,-4.000000000000000000e+00,-4.000000000000000000e+00,-2.000000000000000000e+00,0.000000000000000000e+00,-4.033813476562500000e-01,3.507690429687500000e-01,6.248779296875000000e-01,5.690307617187500000e-01
1.000000000000000000e+00,1.000000000000000000e+00,0.000000000000000000e+00,2.000000000000000000e+00,1.000000000000000000e+00,1.000000000000000000e+00,2.000000000000000000e+00,1.000000000000000000e+00,-4.033813476562500000e-01,3.502197265625000000e-01,6.245727539062500000e-01,5.695800781250000000e-01
2.000000000000000000e+00,1.000000000000000000e+01,0.000000000000000000e+00,2.000000000000000000e+00,3.000000000000000000e+00,2.000000000000000000e+00,2.000000000000000000e+00,-2.000000000000000000e+00,-4.033813476562500000e-01,3.502197265625000000e-01,6.245727539062500000e-01,5.695800781250000000e-01
-4.000000000000000000e+00,-2.000000000000000000e+00,1.000000000000000000e+00,-3.000000000000000000e+00,-1.000000000000000000e+00,1.000000000000000000e+00,2.000000000000000000e+00,-1.000000000000000000e+00,-4.033813476562500000e-01,3.502197265625000000e-01,6.245727539062500000e-01,5.695800781250000000e-01
-1.000000000000000000e+00,-1.400000000000000000e+01,0.000000000000000000e+00,1.000000000000000000e+00,1.000000000000000000e+00,-3.000000000000000000e+00,-2.000000000000000000e+00,-1.000000000000000000e+00,-4.033813476562500000e-01,3.502197265625000000e-01,6.245727539062500000e-01,5.695800781250000000e-01
-4.000000000000000000e+00,-6.000000000000000000e+00,-7.000000000000000000e+00,-4.000000000000000000e+00,-6.000000000000000000e+00,-4.000000000000000000e+00,-2.000000000000000000e+00,0.000000000000000000e+00,-4.033203125000000000e-01,3.498535156250000000e-01,6.243896484375000000e-01,5.700683593750000000e-01
-1.000000000000000000e+00,9.000000000000000000e+00,5.000000000000000000e+00,4.000000000000000000e+00,4.000000000000000000e+00,1.000000000000000000e+00,0.000000000000000000e+00,0.000000000000000000e+00,-4.033203125000000000e-01,3.498535156250000000e-01,6.243896484375000000e-01,5.700683593750000000e-01
-8.000000000000000000e+00,2.000000000000000000e+00,-1.000000000000000000e+00,-6.000000000000000000e+00,-3.000000000000000000e+00,-3.000000000000000000e+00,0.000000000000000000e+00,0.000000000000000000e+00,-4.033203125000000000e-01,3.498535156250000000e-01,6.243896484375000000e-01,5.700683593750000000e-01
4.000000000000000000e+00,-6.000000000000000000e+00,-8.000000000000000000e+00,-3.000000000000000000e+00,2.000000000000000000e+00,1.000000000000000000e+00,0.000000000000000000e+00,-1.000000000000000000e+00,-4.033203125000000000e-01,3.498535156250000000e-01,6.243896484375000000e-01,5.700683593750000000e-01
-2.000000000000000000e+00,-1.200000000000000000e+01,1.000000000000000000e+00,2.000000000000000000e+00,4.000000000000000000e+00,1.000000000000000000e+00,1.000000000000000000e+00,0.000000000000000000e+00,-4.033813476562500000e-01,3.491821289062500000e-01,6.246948242187500000e-01,5.701904296875000000e-01
3.000000000000000000e+00,2.300000000000000000e+01,1.800000000000000000e+01,1.000000000000000000e+00,-4.000000000000000000e+00,-3.000000000000000000e+00,-4.000000000000000000e+00,-4.000000000000000000e+00,-4.033813476562500000e-01,3.491821289062500000e-01,6.246948242187500000e-01,5.701904296875000000e-01
-1.000000000000000000e+00,8.000000000000000000e+00,1.000000000000000000e+00,0.000000000000000000e+00,1.000000000000000000e+00,1.000000000000000000e+00,-1.000000000000000000e+00,0.000000000000000000e+00,-4.033813476562500000e-01,3.491821289062500000e-01,6.246948242187500000e-01,5.701904296875000000e-01
-3.000000000000000000e+00,6.000000000000000000e+00,4.000000000000000000e+00,0.000000000000000000e+00,-1.000000000000000000e+00,1.000000000000000000e+00,0.000000000000000000e+00,1.000000000000000000e+00,-4.033813476562500000e-01,3.491821289062500000e-01,6.246948242187500000e-01,5.701904296875000000e-01
2.000000000000000000e+00,0.000000000000000000e+00,-1.500000000000000000e+01,-1.100000000000000000e+01,-3.000000000000000000e+00,1.000000000000000000e+00,0.000000000000000000e+00,1.000000000000000000e+00,-4.032592773437500000e-01,3.481445312500000000e-01,6.252441406250000000e-01,5.702514648437500000e-01
1.000000000000000000e+00,-1.000000000000000000e+01,3.000000000000000000e+00,9.000000000000000000e+00,1.000000000000000000e+00,-1.000000000000000000e+00,-1.000000000000000000e+00,-1.000000000000000000e+00,-4.032592773437500000e-01,3.481445312500000000e-01,6.252441406250000000e-01,5.702514648437500000e-01
-3.000000000000000000e+00,-4.000000000000000000e+00,3.000000000000000000e+00,1.000000000000000000e+00,0.000000000000000000e+00,-3.000000000000000000e+00,-2.000000000000000000e+00,-1.000000000000000000e+00,-4.032592773437500000e-01,3.481445312500000000e-01,6.252441406250000000e-01,5.702514648437500000e-01
-6.000000000000000000e+00,1.000000000000000000e+00,-3.000000000000000000e+00,-3.000000000000000000e+00,-4.000000000000000000e+00,-1.000000000000000000e+00,1.000000000000000000e+00,-1.000000000000000000e+00,-4.032592773437500000e-01,3.481445312500000000e-01,6.252441406250000000e-01,5.702514648437500000e-01
1.200000000000000000e+01,-7.000000000000000000e+00,0.000000000000000000e+00,-1.000000000000000000e+00,-3.000000000000000000e+00,-1.000000000000000000e+00,-3.000000000000000000e+00,-1.000000000000000000e+00,-4.028930664062500000e-01,3.471679687500000000e-01,6.257934570312500000e-01,5.704345703125000000e-01
-2.000000000000000000e+00,2.000000000000000000e+00,-6.000000000000000000e+00,-5.000000000000000000e+00,-6.000000000000000000e+00,-4.000000000000000000e+00,-5.000000000000000000e+00,-2.000000000000000000e+00,-4.028930664062500000e-01,3.471679687500000000e-01,6.257934570312500000e-01,5.704345703125000000e-01
-3.000000000000000000e+00,1.000000000000000000e+00,-2.000000000000000000e+00,-1.000000000000000000e+00,-2.000000000000000000e+00,3.000000000000000000e+00,-1.000000000000000000e+00,0.000000000000000000e+00,-4.028930664062500000e-01,3.471679687500000000e-01,6.257934570312500000e-01,5.704345703125000000e-01
-2.000000000000000000e+00,-8.000000000000000000e+00,1.000000000000000000e+00,1.000000000000000000e+00,-1.000000000000000000e+00,2.000000000000000000e+00,-1.000000000000000000e+00,-1.000000000000000000e+00,-4.028930664062500000e-01,3.471679687500000000e-01,6.257934570312500000e-01,5.704345703125000000e-01
-6.000000000000000000e+00,1.100000000000000000e+01,2.000000000000000000e+00,1.000000000000000000e+00,1.000000000000000000e+00,-2.000000000000000000e+00,0.000000000000000000e+00,-2.000000000000000000e+00,-4.020385742187500000e-01,3.467407226562500000e-01,6.262207031250000000e-01,5.708618164062500000e-01
-4.000000000000000000e+00,-1.100000000000000000e+01,-2.000000000000000000e+00,-3.000000000000000000e+00,2.000000000000000000e+00,0.000000000000000000e+00,0.000000000000000000e+00,1.000000000000000000e+00,-4.020385742187500000e-01,3.467407226562500000e-01,6.262207031250000000e-01,5.708618164062500000e-01
6.000000000000000000e+00,-9.000000000000000000e+00,-4.000000000000000000e+00,-3.000000000000000000e+00,-1.000000000000000000e+00,-1.000000000000000000e+00,-1.000000000000000000e+00,0.000000000000000000e+00,-4.020385742187500000e-01,3.467407226562500000e-01,6.262207031250000000e-01,5.708618164062500000e-01
0.000000000000000000e+00,-3.000000000000000000e+00,-1.300000000000000000e+01,-1.000000000000000000e+01,-2.000000000000000000e+00,-2.000000000000000000e+00,-1.000000000000000000e+00,-2.000000000000000000e+00,-4.020385742187500000e-01,3.467407226562500000e-01,6.262207031250000000e-01,5.708618164062500000e-01
-6.000000000000000000e+00,1.200000000000000000e+01,2.400000000000000000e+01,1.900000000000000000e+01,2.000000000000000000e+00,-2.000000000000000000e+00,-3.000000000000000000e+00,-2.000000000000000000e+00,-4.011230468750000000e-01,3.465576171875000000e-01,6.268310546875000000e-01,5.709838867187500000e-01
1.000000000000000000e+00,3.000000000000000000e+00,3.000000000000000000e+00,-6.000000000000000000e+00,-4.000000000000000000e+00,0.000000000000000000e+00,-1.000000000000000000e+00,-2.000000000000000000e+00,-4.011230468750000000e-01,3.465576171875000000e-01,6.268310546875000000e-01,5.709838867187500000e-01
-1.000000000000000000e+00,4.000000000000000000e+00,3.000000000000000000e+00,-1.000000000000000000e+00,0.000000000000000000e+00,-4.000000000000000000e+00,0.000000000000000000e+00,0.000000000000000000e+00,-4.011230468750000000e-01,3.465576171875000000e-01,6.268310546875000000e-01,5.709838867187500000e-01
-3.000000000000000000e+00,-1.300000000000000000e+01,0.000000000000000000e+00,2.000000000000000000e+00,-2.000000000000000000e+00,0.000000000000000000e+00,1.000000000000000000e+00,0.000000000000000000e+00,-4.011230468750000000e-01,3.465576171875000000e-01,6.268310546875000000e-01,5.709838867187500000e-01
-4.000000000000000000e+00,2.000000000000000000e+00,-1.600000000000000000e+01,-6.000000000000000000e+00,-5.000000000000000000e+00,-3.000000000000000000e+00,-2.000000000000000000e+00,-1.000000000000000000e+00,-4.003295898437500000e-01,3.460693359375000000e-01,6.277465820312500000e-01,5.708618164062500000e-01
1.000000000000000000e+00,-6.000000000000000000e+00,-7.000000000000000000e+00,-5.000000000000000000e+00,0.000000000000000000e+00,2.000000000000000000e+00,2.000000000000000000e+00,0.000000000000000000e+00,-4.003295898437500000e-01,3.460693359375000000e-01,6.277465820312500000e-01,5.708618164062500000e-01
-3.000000000000000000e+00,-1.000000000000000000e+01,4.000000000000000000e+00,8.000000000000000000e+00,-2.000000000000000000e+00,-3.000000000000000000e+00,-2.000000000000000000e+00,-2.000000000000000000e+00,-4.003295898437500000e-01,3.460693359375000000e-01,6.277465820312500000e-01,5.708618164062500000e-01
2.000000000000000000e+00,1.700000000000000000e+01,2.000000000000000000e+00,-1.000000000000000000e+00,-4.000000000000000000e+00,-2.000000000000000000e+00,0.000000000000000000e+00,1.000000000000000000e+00,-4.003295898437500000e-01,3.460693359375000000e-01,6.277465820312500000e-01,5.708618164062500000e-01
-1.000000000000000000e+00,3.000000000000000000e+00,2.000000000000000000e+00,0.000000000000000000e+00,7.000000000000000000e+00,1.000000000000000000e+00,0.000000000000000000e+00,1.000000000000000000e+00,-3.994750976562500000e-01,3.456420898437500000e-01,6.287231445312500000e-01,5.706176757812500000e-01
0.000000000000000000e+00,-1.000000000000000000e+00,-6.000000000000000000e+00,0.000000000000000000e+00,2.000000000000000000e+00,2.000000000000000000e+00,0.000000000000000000e+00,-1.000000000000000000e+00,-3.994750976562500000e-01,3.456420898437500000e-01,6.287231445312500000e-01,5.706176757812500000e-01
-1.000000000000000000e+00,4.000000000000000000e+00,-2.000000000000000000e+00,-4.000000000000000000e+00,-3.000000000000000000e+00,-1.000000000000000000e+00,-2.000000000000000000e+00,-2.000000000000000000e+00,-3.994750976562500000e-01,3.456420898437500000e-01,6.287231445312500000e-01,5.706176757812500000e-01
-1.000000000000000000e+00,-1.900000000000000000e+01,3.000000000000000000e+00,2.000000000000000000e+00,-1.000000000000000000e+00,-3.000000000000000000e+00,-2.000000000000000000e+00,-1.000000000000000000e+00,-3.994750976562500000e-01,3.456420898437500000e-01,6.287231445312500000e-01,5.706176757812500000e-01
4.000000000000000000e+00,-4.000000000000000000e+00,-1.100000000000000000e+01,-2.000000000000000000e+00,-5.000000000000000000e+00,-1.000000000000000000e+00,1.000000000000000000e+00,-1.000000000000000000e+00,-3.989868164062500000e-01,3.449096679687500000e-01,6.294555664062500000e-01,5.705566406250000000e-01
1.000000000000000000e+00,3.000000000000000000e+00,1.000000000000000000e+01,0.000000000000000000e+00,0.000000000000000000e+00,0.000000000000000000e+00,-1.000000000000000000e+00,0.000000000000000000e+00,-3.989868164062500000e-01,3.449096679687500000e-01,6.294555664062500000e-01,5.705566406250000000e-01
-1.000000000000000000e+00,5.000000000000000000e+00,-9.000000000000000000e+00,-6.000000000000000000e+00,-3.000000000000000000e+00,-1.000000000000000000e+00,-1.000000000000000000e+00,-1.000000000000000000e+00,-3.989868164062500000e-01,3.449096679687500000e-01,6.294555664062500000e-01,5.705566406250000000e-01
-3.000000000000000000e+00,6.000000000000000000e+00,7.000000000000000000e+00,6.000000000000000000e+00,-3.000000000000000000e+00,-1.000000000000000000e+00,-2.000000000000000000e+00,-3.000000000000000000e+00,-3.989868164062500000e-01,3.449096679687500000e-01,6.294555664062500000e-01,5.705566406250000000e-01
-8.000000000000000000e+00,-8.000000000000000000e+00,-1.000000000000000000e+00,-2.000000000000000000e+00,-5.000000000000000000e+00,-3.000000000000000000e+00,-1.000000000000000000e+00,-1.000000000000000000e+00,-3.986206054687500000e-01,3.441162109375000000e-01,6.300659179687500000e-01,5.706787109375000000e-01
5.000000000000000000e+00,-9.000000000000000000e+00,-2.000000000000000000e+00,0.000000000000000000e+00,-2.000000000000000000e+00,-1.000000000000000000e+00,-1.000000000000000000e+00,-1.000000000000000000e+00,-3.986206054687500000e-01,3.441162109375000000e-01,6.300659179687500000e-01,5.706787109375000000e-01
0.000000000000000000e+00,-4.000000000000000000e+00,-8.000000000000000000e+00,3.000000000000000000e+00,2.000000000000000000e+00,3.000000000000000000e+00,-1.000000000000000000e+00,-1.000000000000000000e+00,-3.986206054687500000e-01,3.441162109375000000e-01,6.300659179687500000e-01,5.706787109375000000e-01
-2.000000000000000000e+00,1.000000000000000000e+00,-3.000000000000000000e+00,-3.000000000000000000e+00,1.000000000000000000e+00,0.000000000000000000e+00,0.000000000000000000e+00,0.000000000000000000e+00,-3.986206054687500000e-01,3.441162109375000000e-01,6.300659179687500000e-01,5.706787109375000000e-01
-5.000000000000000000e+00,-5.000000000000000000e+00,-2.000000000000000000e+00,-7.000000000000000000e+00,-2.000000000000000000e+00,-1.000000000000000000e+00,-1.000000000000000000e+00,0.000000000000000000e+00,-3.983764648437500000e-01,3.436889648437500000e-01,6.304321289062500000e-01,5.706787109375000000e-01
3.000000000000000000e+00,1.000000000000000000e+01,-2.000000000000000000e+00,0.000000000000000000e+00,1.000000000000000000e+00,1.000000000000000000e+00,1.000000000000000000e+00,1.000000000000000000e+00,-3.983764648437500000e-01,3.436889648437500000e-01,6.304321289062500000e-01,5.706787109375000000e-01
-4.000000000000000000e+00,-2.900000000000000000e+01,1.000000000000000000e+00,-2.000000000000000000e+00,-3.000000000000000000e+00,-2.000000000000000000e+00,-2.000000000000000000e+00,-2.000000000000000000e+00,-3.983764648437500000e-01,3.436889648437500000e-01,6.304321289062500000e-01,5.706787109375000000e-01
2.000000000000000000e+00,2.000000000000000000e+01,4.000000000000000000e+00,0.000000000000000000e+00,2.000000000000000000e+00,3.000000000000000000e+00,-1.000000000000000000e+00,-1.000000000000000000e+00,-3.983764648437500000e-01,3.436889648437500000e-01,6.304321289062500000e-01,5.706787109375000000e-01
0.000000000000000000e+00,2.000000000000000000e+00,-4.000000000000000000e+00,-2.000000000000000000e+00,-5.000000000000000000e+00,-3.000000000000000000e+00,-1.000000000000000000e+00,-1.000000000000000000e+00,-3.981323242187500000e-01,3.433837890625000000e-01,6.309204101562500000e-01,5.705566406250000000e-01
-6.000000000000000000e+00,-1.200000000000000000e+01,-7.000000000000000000e+00,-5.000000000000000000e+00,-2.000000000000000000e+00,-2.000000000000000000e+00,-2.000000000000000000e+00,-2.000000000000000000e+00,-3.981323242187500000e-01,3.433837890625000000e-01,6.309204101562500000e-01,5.705566406250000000e-01
1.000000000000000000e+00,9.000000000000000000e+00,4.000000000000000000e+00,-5.000000000000000000e+00,4.000000000000000000e+00,1.000000000000000000e+00,-2.000000000000000000e+00,0.000000000000000000e+00,-3.981323242187500000e-01,3.433837890625000000e-01,6.309204101562500000e-01,5.705566406250000000e-01
-2.000000000000000000e+00,-1.900000000000000000e+01,-2.000000000000000000e+00,-2.000000000000000000e+00,-2.000000000000000000e+00,-3.000000000000000000e+00,-1.000000000000000000e+00,-1.000000000000000000e+00,-3.981323242187500000e-01,3.433837890625000000e-01,6.309204101562500000e-01,5.705566406250000000e-01
1.000000000000000000e+00,4.000000000000000000e+00,6.000000000000000000e+00,1.100000000000000000e+01,8.000000000000000000e+00,2.000000000000000000e+00,0.000000000000000000e+00,-2.000000000000000000e+00,-3.978881835937500000e-01,3.427124023437500000e-01,6.315307617187500000e-01,5.703735351562500000e-01
-1.000000000000000000e+00,3.000000000000000000e+00,-4.000000000000000000e+00,-2.000000000000000000e+00,-4.000000000000000000e+00,-5.000000000000000000e+00,-1.000000000000000000e+00,0.000000000000000000e+00,-3.978881835937500000e-01,3.427124023437500000e-01,6.315307617187500000e-01,5.703735351562500000e-01
0.000000000000000000e+00,6.000000000000000000e+00,-1.000000000000000000e+00,-7.000000000000000000e+00,0.000000000000000000e+00,-1.000000000000000000e+00,0.000000000000000000e+00,0.000000000000000000e+00,-3.978881835937500000e-01,3.427124023437500000e-01,6.315307617187500000e-01,5.703735351562500000e-01
-3.000000000000000000e+00,-6.000000000000000000e+00,6.000000000000000000e+00,1.000000000000000000e+00,2.000000000000000000e+00,1.000000000000000000e+00,-2.000000000000000000e+00,-1.000000000000000000e+00,-3.978881835937500000e-01,3.427124023437500000e-01,6.315307617187500000e-01,5.703735351562500000e-01
-5.000000000000000000e+00,-1.100000000000000000e+01,-4.000000000000000000e+00,-7.000000000000000000e+00,-7.000000000000000000e+00,-2.000000000000000000e+00,-3.000000000000000000e+00,-3.000000000000000000e+00,-3.979492187500000000e-01,3.418579101562500000e-01,6.318359375000000000e-01,5.704956054687500000e-01
1.000000000000000000e+00,8.000000000000000000e+00,1.000000000000000000e+00,-2.000000000000000000e+00,0.000000000000000000e+00,-2.000000000000000000e+00,0.000000000000000000e+00,0.000000000000000000e+00,-3.979492187500000000e-01,3.418579101562500000e-01,6.318359375000000000e-01,5.704956054687500000e-01
-2.000000000000000000e+00,-1.200000000000000000e+01,-7.000000000000000000e+00,3.000000000000000000e+00,0.000000000000000000e+00,-1.000000000000000000e+00,-3.000000000000000000e+00,-2.000000000000000000e+00,-3.979492187500000000e-01,3.418579101562500000e-01,6.318359375000000000e-01,5.704956054687500000e-01
2.000000000000000000e+00,2.200000000000000000e+01,7.000000000000000000e+00,-6.000000000000000000e+00,-6.000000000000000000e+00,-2.000000000000000000e+00,-1.000000000000000000e+00,0.000000000000000000e+00,-3.979492187500000000e-01,3.418579101562500000e-01,6.318359375000000000e-01,5.704956054687500000e-01
0.000000000000000000e+00,-7.000000000000000000e+00,1.600000000000000000e+01,1.000000000000000000e+00,-1.000000000000000000e+00,2.000000000000000000e+00,-1.000000000000000000e+00,0.000000000000000000e+00,-3.980102539062500000e-01,3.411254882812500000e-01,6.321411132812500000e-01,5.705566406250000000e-01
-3.000000000000000000e+00,-2.100000000000000000e+01,-2.400000000000000000e+01,-6.000000000000000000e+00,-2.000000000000000000e+00,-1.000000000000000000e+00,1.000000000000000000e+00,0.000000000000000000e+00,-3.980102539062500000e-01,3.411254882812500000e-01,6.321411132812500000e-01,5.705566406250000000e-01
-1.000000000000000000e+00,-3.000000000000000000e+00,1.300000000000000000e+01,4.000000000000000000e+00,-3.000000000000000000e+00,-1.000000000000000000e+00,1.000000000000000000e+00,0.000000000000000000e+00,-3.980102539062500000e-01,3.411254882812500000e-01,6.321411132812500000e-01,5.705566406250000000e-01
-3.000000000000000000e+00,2.000000000000000000e+01,1.100000000000000000e+01,3.000000000000000000e+00,0.000000000000000000e+00,-3.000000000000000000e+00,-3.000000000000000000e+00,-3.000000000000000000e+00,-3.980102539062500000e-01,3.411254882812500000e-01,6.321411132812500000e-01,5.705566406250000000e-01
1.000000000000000000e+00,4.000000000000000000e+00,-2.000000000000000000e+00,-1.000000000000000000e+00,-2.000000000000000000e+00,-3.000000000000000000e+00,-2.000000000000000000e+00,-1.000000000000000000e+00,-3.978271484375000000e-01,3.405151367187500000e-01,6.323852539062500000e-01,5.708007812500000000e-01
-2.000000000000000000e+00,-9.000000000000000000e+00,-5.000000000000000000e+00,0.000000000000000000e+00,2.000000000000000000e+00,0.000000000000000000e+00,-1.000000000000000000e+00,0.000000000000000000e+00,-3.978271484375000000e-01,3.405151367187500000e-01,6.323852539062500000e-01,5.708007812500000000e-01
0.000000000000000000e+00,1.100000000000000000e+01,8.000000000000000000e+00,0.000000000000000000e+00,2.000000000000000000e+00,1.000000000000000000e+00,0.000000000000000000e+00,-1.000000000000000000e+00,-3.978271484375000000e-01,3.405151367187500000e-01,6.323852539062500000e-01,5.708007812500000000e-01
0.000000000000000000e+00,-1.400000000000000000e+01,-1.100000000000000000e+01,0.000000000000000000e+00,0.000000000000000000e+00,0.000000000000000000e+00,0.000000000000000000e+00,-1.000000000000000000e+00,-3.978271484375000000e-01,3.405151367187500000e-01,6.323852539062500000e-01,5.708007812500000000e-01
-2.000000000000000000e+00,2.000000000000000000e+00,-2.000000000000000000e+00,-3.000000000000000000e+00,1.000000000000000000e+00,2.000000000000000000e+00,-1.000000000000000000e+00,-1.000000000000000000e+00,-3.976440429687500000e-01,3.399047851562500000e-01,6.326904296875000000e-01,5.709228515625000000e-01
-1.000000000000000000e+00,0.000000000000000000e+00,4.000000000000000000e+00,2.000000000000000000e+00,-1.000000000000000000e+00,-2.000000000000000000e+00,-2.000000000000000000e+00,-2.000000000000000000e+00,-3.976440429687500000e-01,3.399047851562500000e-01,6.326904296875000000e-01,5.709228515625000000e-01
0.000000000000000000e+00,-3.000000000000000000e+00,-1.200000000000000000e+01,-1.000000000000000000e+00,-4.000000000000000000e+00,-1.000000000000000000e+00,1.000000000000000000e+00,0.000000000000000000e+00,-3.976440429687500000e-01,3.399047851562500000e-01,6.326904296875000000e-01,5.709228515625000000e-01
-2.000000000000000000e+00,-9.000000000000000000e+00,-2.000000000000000000e+00,-1.000000000000000000e+00,-1.000000000000000000e+00,-2.000000000000000000e+00,-2.000000000000000000e+00,-2.000000000000000000e+00,-3.976440429687500000e-01,3.399047851562500000e-01,6.326904296875000000e-01,5.709228515625000000e-01
1.000000000000000000e+00,5.000000000000000000e+00,-1.000000000000000000e+00,3.000000000000000000e+00,2.000000000000000000e+00,-2.000000000000000000e+00,0.000000000000000000e+00,1.000000000000000000e+00,-3.973999023437500000e-01,3.391723632812500000e-01,6.330566406250000000e-01,5.711059570312500000e-01
3.000000000000000000e+00,9.000000000000000000e+00,-3.000000000000000000e+00,-2.000000000000000000e+00,-1.000000000000000000e+00,-1.000000000000000000e+00,2.000000000000000000e+00,1.400000000000000000e+01,-3.973999023437500000e-01,3.391723632812500000e-01,6.330566406250000000e-01,5.711059570312500000e-01
-4.000000000000000000e+00,-1.600000000000000000e+01,-1.000000000000000000e+01,-3.000000000000000000e+00,0.000000000000000000e+00,1.000000000000000000e+00,-1.000000000000000000e+00,-1.200000000000000000e+01,-3.973999023437500000e-01,3.391723632812500000e-01,6.330566406250000000e-01,5.711059570312500000e-01
-1.000000000000000000e+00,-5.000000000000000000e+00,0.000000000000000000e+00,3.000000000000000000e+00,0.000000000000000000e+00,-1.000000000000000000e+00,-2.000000000000000000e+00,-1.000000000000000000e+00,-3.973999023437500000e-01,3.391723632812500000e-01,6.330566406250000000e-01,5.711059570312500000e-01
0.000000000000000000e+00,3.000000000000000000e+00,-1.000000000000000000e+00,-7.000000000000000000e+00,-4.000000000000000000e+00,-2.000000000000000000e+00,-2.000000000000000000e+00,-2.000000000000000000e+00,-3.973388671875000000e-01,3.385620117187500000e-01,6.334228515625000000e-01,5.711059570312500000e-01
0.000000000000000000e+00,4.000000000000000000e+00,5.000000000000000000e+00,3.000000000000000000e+00,-3.000000000000000000e+00,1.000000000000000000e+00,0.000000000000000000e+00,-3.000000000000000000e+00,-3.973388671875000000e-01,3.385620117187500000e-01,6.334228515625000000e-01,5.711059570312500000e-01
-1.000000000000000000e+00,-3.000000000000000000e+00,-7.000000000000000000e+00,-2.000000000000000000e+00,-2.000000000000000000e+00,-3.000000000000000000e+00,-2.000000000000000000e+00,4.000000000000000000e+00,-3.973388671875000000e-01,3.385620117187500000e-01,6.334228515625000000e-01,5.711059570312500000e-01
0.000000000000000000e+00,9.000000000000000000e+00,-9.000000000000000000e+00,-7.000000000000000000e+00,-2.000000000000000000e+00,-1.000000000000000000e+00,0.000000000000000000e+00,1.000000000000000000e+00,-3.973388671875000000e-01,3.385620117187500000e-01,6.334228515625000000e-01,5.711059570312500000e-01
-1.000000000000000000e+00,3.000000000000000000e+00,1.300000000000000000e+01,4.000000000000000000e+00,3.000000000000000000e+00,1.000000000000000000e+00,-1.000000000000000000e+00,-2.000000000000000000e+00,-3.976440429687500000e-01,3.378906250000000000e-01,6.338500976562500000e-01,5.708007812500000000e-01
-6.000000000000000000e+00,-5.000000000000000000e+00,-1.000000000000000000e+00,-2.000000000000000000e+00,0.000000000000000000e+00,-1.000000000000000000e+00,-2.000000000000000000e+00,-2.000000000000000000e+00,-3.976440429687500000e-01,3.378906250000000000e-01,6.338500976562500000e-01,5.708007812500000000e-01
2.000000000000000000e+00,1.500000000000000000e+01,5.000000000000000000e+00,0.000000000000000000e+00,-1.000000000000000000e+00,0.000000000000000000e+00,-1.000000000000000000e+00,1.000000000000000000e+00,-3.976440429687500000e-01,3.378906250000000000e-01,6.338500976562500000e-01,5.708007812500000000e-01
1.000000000000000000e+00,-1.700000000000000000e+01,-1.900000000000000000e+01,-1.000000000000000000e+00,1.000000000000000000e+00,-2.000000000000000000e+00,-2.000000000000000000e+00,-4.000000000000000000e+00,-3.976440429687500000e-01,3.378906250000000000e-01,6.338500976562500000e-01,5.708007812500000000e-01
-2.000000000000000000e+00,-9.000000000000000000e+00,-5.000000000000000000e+00,0.000000000000000000e+00,-1.000000000000000000e+00,-3.000000000000000000e+00,-1.000000000000000000e+00,0.000000000000000000e+00,-3.979492187500000000e-01,3.372192382812500000e-01,6.342163085937500000e-01,5.706176757812500000e-01
-4.000000000000000000e+00,6.000000000000000000e+00,6.000000000000000000e+00,-1.000000000000000000e+00,-1.000000000000000000e+00,-3.000000000000000000e+00,-3.000000000000000000e+00,-4.000000000000000000e+00,-3.979492187500000000e-01,3.372192382812500000e-01,6.342163085937500000e-01,5.706176757812500000e-01
0.000000000000000000e+00,-4.000000000000000000e+00,-2.000000000000000000e+00,1.000000000000000000e+00,-1.000000000000000000e+00,0.000000000000000000e+00,3.000000000000000000e+00,2.000000000000000000e+00,-3.979492187500000000e-01,3.372192382812500000e-01,6.342163085937500000e-01,5.706176757812500000e-01
1.000000000000000000e+00,3.000000000000000000e+00,0.000000000000000000e+00,1.000000000000000000e+00,-3.000000000000000000e+00,-5.000000000000000000e+00,-2.000000000000000000e+00,2.000000000000000000e+00,-3.979492187500000000e-01,3.372192382812500000e-01,6.342163085937500000e-01,5.706176757812500000e-01
1.000000000000000000e+00,-2.000000000000000000e+00,-1.600000000000000000e+01,-5.000000000000000000e+00,0.000000000000000000e+00,-1.000000000000000000e+00,-1.000000000000000000e+00,1.000000000000000000e+00,-3.978271484375000000e-01,3.367309570312500000e-01,6.345214843750000000e-01,5.706176757812500000e-01
1.000000000000000000e+00,0.000000000000000000e+00,1.000000000000000000e+01,1.000000000000000000e+00,1.000000000000000000e+00,5.000000000000000000e+00,0.000000000000000000e+00,-2.000000000000000000e+00,-3.978271484375000000e-01,3.367309570312500000e-01,6.345214843750000000e-01,5.706176757812500000e-01
-3.000000000000000000e+00,-1.000000000000000000e+00,0.000000000000000000e+00,2.000000000000000000e+00,0.000000000000000000e+00,-3.000000000000000000e+00,-3.000000000000000000e+00,-1.000000000000000000e+00,-3.978271484375000000e-01,3.367309570312500000e-01,6.345214843750000000e-01,5.706176757812500000e-01
-1.000000000000000000e+00,-2.000000000000000000e+00,1.000000000000000000e+00,-1.000000000000000000e+00,2.000000000000000000e+00,1.000000000000000000e+00,-3.000000000000000000e+00,-1.000000000000000000e+00,-3.978271484375000000e-01,3.367309570312500000e-01,6.345214843750000000e-01,5.706176757812500000e-01
1.000000000000000000e+00,1.000000000000000000e+01,2.000000000000000000e+00,1.000000000000000000e+00,-2.000000000000000000e+00,-3.000000000000000000e+00,1.000000000000000000e+00,0.000000000000000000e+00,-3.977661132812500000e-01,3.367309570312500000e-01,6.345825195312500000e-01,5.706787109375000000e-01
-1.000000000000000000e+00,-1.900000000000000000e+01,-8.000000000000000000e+00,-4.000000000000000000e+00,-4.000000000000000000e+00,0.000000000000000000e+00,2.000000000000000000e+00,-2.000000000000000000e+00,-3.977661132812500000e-01,3.367309570312500000e-01,6.345825195312500000e-01,5.706787109375000000e-01
-4.000000000000000000e+00,7.000000000000000000e+00,-4.000000000000000000e+00,0.000000000000000000e+00,0.000000000000000000e+00,-2.000000000000000000e+00,-2.000000000000000000e+00,-1.000000000000000000e+00,-3.977661132812500000e-01,3.367309570312500000e-01,6.345825195312500000e-01,5.706787109375000000e-01
-1.000000000000000000e+00,-5.000000000000000000e+00,2.000000000000000000e+00,1.000000000000000000e+00,5.000000000000000000e+00,2.000000000000000000e+00,-1.000000000000000000e+00,0.000000000000000000e+00,-3.977661132812500000e-01,3.367309570312500000e-01,6.345825195312500000e-01,5.706787109375000000e-01
-1.000000000000000000e+00,-6.000000000000000000e+00,-1.100000000000000000e+01,-7.000000000000000000e+00,-1.000000000000000000e+00,-2.000000000000000000e+00,-2.000000000000000000e+00,-1.000000000000000000e+00,-3.978271484375000000e-01,3.364257812500000000e-01,6.347656250000000000e-01,5.705566406250000000e-01
2.000000000000000000e+00,1.200000000000000000e+01,1.200000000000000000e+01,8.000000000000000000e+00,0.000000000000000000e+00,-3.000000000000000000e+00,0.000000000000000000e+00,-1.000000000000000000e+00,-3.978271484375000000e-01,3.364257812500000000e-01,6.347656250000000000e-01,5.705566406250000000e-01
-1.000000000000000000e+00,-6.000000000000000000e+00,5.000000000000000000e+00,-4.000000000000000000e+00,-6.000000000000000000e+00,-1.000000000000000000e+00,-3.000000000000000000e+00,3.000000000000000000e+00,-3.978271484375000000e-01,3.364257812500000000e-01,6.347656250000000000e-01,5.705566406250000000e-01
-1.000000000000000000e+00,-9.000000000000000000e+00,3.000000000000000000e+00,2.000000000000000000e+00,-2.000000000000000000e+00,1.000000000000000000e+00,0.000000000000000000e+00,-1.000000000000000000e+00,-3.978271484375000000e-01,3.364257812500000000e-01,6.347656250000000000e-01,5.705566406250000000e-01
-1.000000000000000000e+00,-1.400000000000000000e+01,-1.000000000000000000e+01,0.000000000000000000e+00,2.000000000000000000e+00,0.000000000000000000e+00,-1.000000000000000000e+00,-2.000000000000000000e+00,-3.980712890625000000e-01,3.361206054687500000e-01,6.350708007812500000e-01,5.702514648437500000e-01
2.000000000000000000e+00,8.000000000000000000e+00,7.000000000000000000e+00,2.000000000000000000e+00,-3.000000000000000000e+00,-1.000000000000000000e+00,-2.000000000000000000e+00,-1.000000000000000000e+00,-3.980712890625000000e-01,3.361206054687500000e-01,6.350708007812500000e-01,5.702514648437500000e-01
-3.000000000000000000e+00,4.000000000000000000e+00,-2.000000000000000000e+00,4.000000000000000000e+00,-2.000000000000000000e+00,-3.000000000000000000e+00,-2.000000000000000000e+00,-2.000000000000000000e+00,-3.980712890625000000e-01,3.361206054687500000e-01,6.350708007812500000e-01,5.702514648437500000e-01
1.000000000000000000e+00,9.000000000000000000e+00,3.000000000000000000e+00,-1.000000000000000000e+01,-7.000000000000000000e+00,-2.000000000000000000e+00,-1.000000000000000000e+00,1.000000000000000000e+00,-3.980712890625000000e-01,3.361206054687500000e-01,6.350708007812500000e-01,5.702514648437500000e-01
-2.000000000000000000e+00,-2.500000000000000000e+01,-8.000000000000000000e+00,3.000000000000000000e+00,3.000000000000000000e+00,3.000000000000000000e+00,2.000000000000000000e+00,0.000000000000000000e+00,-3.984985351562500000e-01,3.354492187500000000e-01,6.352539062500000000e-01,5.701904296875000000e-01
-1.000000000000000000e+00,3.000000000000000000e+00,-1.700000000000000000e+01,-4.000000000000000000e+00,0.000000000000000000e+00,-1.000000000000000000e+00,-3.000000000000000000e+00,-4.000000000000000000e+00,-3.984985351562500000e-01,3.354492187500000000e-01,6.352539062500000000e-01,5.701904296875000000e-01
-1.000000000000000000e+00,-1.300000000000000000e+01,-4.000000000000000000e+00,-1.000000000000000000e+00,1.000000000000000000e+00,-3.000000000000000000e+00,1.000000000000000000e+00,-1.000000000000000000e+00,-3.984985351562500000e-01,3.354492187500000000e-01,6.352539062500000000e-01,5.701904296875000000e-01
2.000000000000000000e+00,7.000000000000000000e+00,0.000000000000000000e+00,0.000000000000000000e+00,-3.000000000000000000e+00,-1.000000000000000000e+00,0.000000000000000000e+00,1.000000000000000000e+00,-3.984985351562500000e-01,3.354492187500000000e-01,6.352539062500000000e-01,5.701904296875000000e-01
0.000000000000000000e+00,1.100000000000000000e+01,-6.000000000000000000e+00,-5.000000000000000000e+00,-6.000000000000000000e+00,-5.000000000000000000e+00,-2.000000000000000000e+00,-1.000000000000000000e+00,-3.984375000000000000e-01,3.353881835937500000e-01,6.350708007812500000e-01,5.704956054687500000e-01
-1.000000000000000000e+00,-4.000000000000000000e+00,1.500000000000000000e+01,-2.000000000000000000e+00,4.000000000000000000e+00,0.000000000000000000e+00,-3.000000000000000000e+00,-1.000000000000000000e+00,-3.984375000000000000e-01,3.353881835937500000e-01,6.350708007812500000e-01,5.704956054687500000e-01
-3.000000000000000000e+00,-3.000000000000000000e+00,4.000000000000000000e+00,6.000000000000000000e+00,0.000000000000000000e+00,-1.000000000000000000e+00,-3.000000000000000000e+00,-2.000000000000000000e+00,-3.984375000000000000e-01,3.353881835937500000e-01,6.350708007812500000e-01,5.704956054687500000e-01
0.000000000000000000e+00,-1.000000000000000000e+01,-2.000000000000000000e+00,-1.000000000000000000e+00,0.000000000000000000e+00,0.000000000000000000e+00,2.000000000000000000e+00,-2.000000000000000000e+00,-3.984375000000000000e-01,3.353881835937500000e-01,6.350708007812500000e-01,5.704956054687500000e-01
-4.000000000000000000e+00,2.600000000000000000e+01,8.000000000000000000e+00,1.000000000000000000e+00,-3.000000000000000000e+00,-1.000000000000000000e+00,-1.000000000000000000e+00,-2.000000000000000000e+00,-3.981323242187500000e-01,3.352050781250000000e-01,6.348876953125000000e-01,5.709228515625000000e-01
2.000000000000000000e+00,-6.000000000000000000e+00,-1.100000000000000000e+01,1.000000000000000000e+00,-1.000000000000000000e+00,-2.000000000000000000e+00,-1.000000000000000000e+00,-2.000000000000000000e+00,-3.981323242187500000e-01,3.352050781250000000e-01,6.348876953125000000e-01,5.709228515625000000e-01
1.000000000000000000e+00,2.000000000000000000e+00,-2.000000000000000000e+00,-5.000000000000000000e+00,-2.000000000000000000e+00,-1.000000000000000000e+00,0.000000000000000000e+00,0.000000000000000000e+00,-3.981323242187500000e-01,3.352050781250000000e-01,6.348876953125000000e-01,5.709228515625000000e-01
-4.000000000000000000e+00,-7.000000000000000000e+00,0.000000000000000000e+00,-1.000000000000000000e+00,1.000000000000000000e+00,1.000000000000000000e+00,0.000000000000000000e+00,0.000000000000000000e+00,-3.981323242187500000e-01,3.352050781250000000e-01,6.348876953125000000e-01,5.709228515625000000e-01
2.000000000000000000e+00,4.000000000000000000e+00,-3.000000000000000000e+00,-1.000000000000000000e+00,0.000000000000000000e+00,0.000000000000000000e+00,-2.000000000000000000e+00,-2.000000000000000000e+00,-3.980102539062500000e-01,3.347778320312500000e-01,6.348876953125000000e-01,5.712890625000000000e-01
-3.000000000000000000e+00,-1.300000000000000000e+01,-1.300000000000000000e+01,-3.000000000000000000e+00,-4.000000000000000000e+00,-1.000000000000000000e+00,-2.000000000000000000e+00,-1.000000000000000000e+00,-3.980102539062500000e-01,3.347778320312500000e-01,6.348876953125000000e-01,5.712890625000000000e-01
2.000000000000000000e+00,1.800000000000000000e+01,1.600000000000000000e+01,-4.000000000000000000e+00,-1.000000000000000000e+00,3.000000000000000000e+00,0.000000000000000000e+00,0.000000000000000000e+00,-3.980102539062500000e-01,3.347778320312500000e-01,6.348876953125000000e-01,5.712890625000000000e-01
-8.000000000000000000e+00,-7.000000000000000000e+00,1.000000000000000000e+00,5.000000000000000000e+00,-2.000000000000000000e+00,-3.000000000000000000e+00,-1.000000000000000000e+00,-3.000000000000000000e+00,-3.980102539062500000e-01,3.347778320312500000e-01,6.348876953125000000e-01,5.712890625000000000e-01
7.000000000000000000e+00,5.000000000000000000e+00,-6.000000000000000000e+00,-4.000000000000000000e+00,-4.000000000000000000e+00,0.000000000000000000e+00,-1.000000000000000000e+00,-1.000000000000000000e+00,-3.983154296875000000e-01,3.341064453125000000e-01,6.348266601562500000e-01,5.715942382812500000e-01
-1.000000000000000000e+00,0.000000000000000000e+00,-2.000000000000000000e+00,0.000000000000000000e+00,1.000000000000000000e+00,-1.000000000000000000e+00,0.000000000000000000e+00,-1.000000000000000000e+00,-3.983154296875000000e-01,3.341064453125000000e-01,6.348266601562500000e-01,5.715942382812500000e-01
-2.000000000000000000e+00,-5.000000000000000000e+00,-8.000000000000000000e+00,-5.000000000000000000e+00,0.000000000000000000e+00,0.000000000000000000e+00,0.000000000000000000e+00,-2.000000000000000000e+00,-3.983154296875000000e-01,3.341064453125000000e-01,6.348266601562500000e-01,5.715942382812500000e-01
0.000000000000000000e+00,1.000000000000000000e+00,0.000000000000000000e+00,-2.000000000000000000e+00,-2.000000000000000000e+00,-1.000000000000000000e+00,-2.000000000000000000e+00,-1.000000000000000000e+00,-3.983154296875000000e-01,3.341064453125000000e-01,6.348266601562500000e-01,5.715942382812500000e-01
-3.000000000000000000e+00,-1.000000000000000000e+00,7.000000000000000000e+00,-3.000000000000000000e+00,-2.000000000000000000e+00,-1.000000000000000000e+00,-1.000000000000000000e+00,-1.000000000000000000e+00,-3.986816406250000000e-01,3.334350585937500000e-01,6.347045898437500000e-01,5.717773437500000000e-01
-5.000000000000000000e+00,-1.700000000000000000e+01,-9.000000000000000000e+00,2.000000000000000000e+00,1.000000000000000000e+00,1.000000000000000000e+00,1.000000000000000000e+00,0.000000000000000000e+00,-3.986816406250000000e-01,3.334350585937500000e-01,6.347045898437500000e-01,5.717773437500000000e-01
2.000000000000000000e+00,2.000000000000000000e+00,9.000000000000000000e+00,1.000000000000000000e+00,-5.000000000000000000e+00,-4.000000000000000000e+00,-1.000000000000000000e+00,3.000000000000000000e+00,-3.986816406250000000e-01,3.334350585937500000e-01,6.347045898437500000e-01,5.717773437500000000e-01
2.000000000000000000e+00,-2.000000000000000000e+00,-4.000000000000000000e+00,0.000000000000000000e+00,-2.000000000000000000e+00,0.000000000000000000e+00,0.000000000000000000e+00,-1.000000000000000000e+00,-3.986816406250000000e-01,3.334350585937500000e-01,6.347045898437500000e-01,5.717773437500000000e-01
-2.000000000000000000e+00,-5.000000000000000000e+00,3.000000000000000000e+00,-1.000000000000000000e+00,2.000000000000000000e+00,-1.000000000000000000e+00,-2.000000000000000000e+00,-1.000000000000000000e+00,-3.989257812500000000e-01,3.332519531250000000e-01,6.345214843750000000e-01,5.719604492187500000e-01
-2.000000000000000000e+00,-7.000000000000000000e+00,-3.000000000000000000e+00,-4.000000000000000000e+00,-6.000000000000000000e+00,-2.000000000000000000e+00,-1.000000000000000000e+00,-3.000000000000000000e+00,-3.989257812500000000e-01,3.332519531250000000e-01,6.345214843750000000e-01,5.719604492187500000e-01
-4.000000000000000000e+00,1.600000000000000000e+01,-1.200000000000000000e+01,-3.000000000000000000e+00,-1.000000000000000000e+00,1.000000000000000000e+00,-1.000000000000000000e+00,-3.000000000000000000e+00,-3.989257812500000000e-01,3.332519531250000000e-01,6.345214843750000000e-01,5.719604492187500000e-01
-2.000000000000000000e+00,-1.400000000000000000e+01,6.000000000000000000e+00,0.000000000000000000e+00,1.000000000000000000e+00,0.000000000000000000e+00,2.000000000000000000e+00,-1.000000000000000000e+00,-3.989257812500000000e-01,3.332519531250000000e-01,6.345214843750000000e-01,5.719604492187500000e-01
-2.000000000000000000e+00,2.000000000000000000e+00,1.900000000000000000e+01,8.000000000000000000e+00,-2.000000000000000000e+00,-2.000000000000000000e+00,-2.000000000000000000e+00,-1.000000000000000000e+00,-3.992309570312500000e-01,3.331298828125000000e-01,6.342773437500000000e-01,5.720825195312500000e-01
0.000000000000000000e+00,1.000000000000000000e+01,2.000000000000000000e+00,-3.000000000000000000e+00,-1.000000000000000000e+00,-1.000000000000000000e+00,-3.000000000000000000e+00,-3.000000000000000000e+00,-3.992309570312500000e-01,3.331298828125000000e-01,6.342773437500000000e-01,5.720825195312500000e-01
1.000000000000000000e+00,-1.000000000000000000e+00,-4.000000000000000000e+00,1.000000000000000000e+00,1.000000000000000000e+00,0.000000000000000000e+00,0.000000000000000000e+00,1.000000000000000000e+00,-3.992309570312500000e-01,3.331298828125000000e-01,6.342773437500000000e-01,5.720825195312500000e-01
-1.000000000000000000e+00,-1.000000000000000000e+00,-8.000000000000000000e+00,-3.000000000000000000e+00,0.000000000000000000e+00,-1.000000000000000000e+00,-1.000000000000000000e+00,-1.000000000000000000e+00,-3.992309570312500000e-01,3.331298828125000000e-01,6.342773437500000000e-01,5.720825195312500000e-01
-3.000000000000000000e+00,-1.200000000000000000e+01,-2.300000000000000000e+01,-1.000000000000000000e+01,-2.000000000000000000e+00,-1.000000000000000000e+00,-2.000000000000000000e+00,-1.000000000000000000e+00,-3.995361328125000000e-01,3.333129882812500000e-01,6.339111328125000000e-01,5.721435546875000000e-01
0.000000000000000000e+00,1.700000000000000000e+01,2.900000000000000000e+01,7.000000000000000000e+00,-3.000000000000000000e+00,-4.000000000000000000e+00,-4.000000000000000000e+00,-1.000000000000000000e+00,-3.995361328125000000e-01,3.333129882812500000e-01,6.339111328125000000e-01,5.721435546875000000e-01
-4.000000000000000000e+00,-1.300000000000000000e+01,1.000000000000000000e+00,-1.000000000000000000e+00,-1.000000000000000000e+00,1.000000000000000000e+00,0.000000000000000000e+00,-1.000000000000000000e+00,-3.995361328125000000e-01,3.333129882812500000e-01,6.339111328125000000e-01,5.721435546875000000e-01
-1.000000000000000000e+00,2.000000000000000000e+00,-5.000000000000000000e+00,-3.000000000000000000e+00,1.000000000000000000e+00,-2.000000000000000000e+00,-1.000000000000000000e+00,-2.000000000000000000e+00,-3.995361328125000000e-01,3.333129882812500000e-01,6.339111328125000000e-01,5.721435546875000000e-01
-2.000000000000000000e+00,-6.000000000000000000e+00,0.000000000000000000e+00,-1.000000000000000000e+00,-1.000000000000000000e+00,0.000000000000000000e+00,-1.000000000000000000e+00,-1.000000000000000000e+00,-3.999023437500000000e-01,3.335571289062500000e-01,6.336059570312500000e-01,5.721435546875000000e-01
-2.000000000000000000e+00,-1.000000000000000000e+00,-1.000000000000000000e+01,-4.000000000000000000e+00,-2.000000000000000000e+00,0.000000000000000000e+00,1.000000000000000000e+00,-1.000000000000000000e+00,-3.999023437500000000e-01,3.335571289062500000e-01,6.336059570312500000e-01,5.721435546875000000e-01
3.000000000000000000e+00,5.000000000000000000e+00,-4.000000000000000000e+00,-3.000000000000000000e+00,1.000000000000000000e+00,0.000000000000000000e+00,1.000000000000000000e+00,1.000000000000000000e+00,-3.999023437500000000e-01,3.335571289062500000e-01,6.336059570312500000e-01,5.721435546875000000e-01
-1.000000000000000000e+00,3.000000000000000000e+00,5.000000000000000000e+00,0.000000000000000000e+00,-3.000000000000000000e+00,-3.000000000000000000e+00,-1.000000000000000000e+00,1.000000000000000000e+00,-3.999023437500000000e-01,3.335571289062500000e-01,6.336059570312500000e-01,5.721435546875000000e-01
-1.000000000000000000e+00,5.000000000000000000e+00,0.000000000000000000e+00,2.000000000000000000e+00,-2.000000000000000000e+00,-1.000000000000000000e+00,0.000000000000000000e+00,-1.000000000000000000e+00,-4.002685546875000000e-01,3.335571289062500000e-01,6.335449218750000000e-01,5.718994140625000000e-01
-3.000000000000000000e+00,-2.200000000000000000e+01,-1.100000000000000000e+01,-9.000000000000000000e+00,-2.000000000000000000e+00,2.000000000000000000e+00,0.000000000000000000e+00,-1.000000000000000000e+00,-4.002685546875000000e-01,3.335571289062500000e-01,6.335449218750000000e-01,5.718994140625000000e-01
-2.000000000000000000e+00,-1.000000000000000000e+00,-1.000000000000000000e+00,-1.000000000000000000e+00,0.000000000000000000e+00,-1.000000000000000000e+00,-2.000000000000000000e+00,-3.000000000000000000e+00,-4.002685546875000000e-01,3.335571289062500000e-01,6.335449218750000000e-01,5.718994140625000000e-01
1.000000000000000000e+00,-3.000000000000000000e+00,-4.000000000000000000e+00,2.000000000000000000e+00,2.000000000000000000e+00,-1.000000000000000000e+00,0.000000000000000000e+00,-1.000000000000000000e+00,-4.002685546875000000e-01,3.335571289062500000e-01,6.335449218750000000e-01,5.718994140625000000e-01
-1.000000000000000000e+00,1.400000000000000000e+01,6.000000000000000000e+00,2.000000000000000000e+00,1.000000000000000000e+00,0.000000000000000000e+00,-1.000000000000000000e+00,-2.000000000000000000e+00,-4.006347656250000000e-01,3.333740234375000000e-01,6.336669921875000000e-01,5.716552734375000000e-01
0.000000000000000000e+00,-1.600000000000000000e+01,-9.000000000000000000e+00,0.000000000000000000e+00,0.000000000000000000e+00,-1.000000000000000000e+00,0.000000000000000000e+00,1.000000000000000000e+00,-4.006347656250000000e-01,3.333740234375000000e-01,6.336669921875000000e-01,5.716552734375000000e-01
1.000000000000000000e+00,2.300000000000000000e+01,1.600000000000000000e+01,-1.000000000000000000e+00,-3.000000000000000000e+00,-4.000000000000000000e+00,-2.000000000000000000e+00,-2.000000000000000000e+00,-4.006347656250000000e-01,3.333740234375000000e-01,6.336669921875000000e-01,5.716552734375000000e-01
-1.000000000000000000e+00,-4.000000000000000000e+00,1.000000000000000000e+00,-2.000000000000000000e+00,-2.000000000000000000e+00,0.000000000000000000e+00,-1.000000000000000000e+00,-2.000000000000000000e+00,-4.006347656250000000e-01,3.333740234375000000e-01,6.336669921875000000e-01,5.716552734375000000e-01
-1.000000000000000000e+00,3.000000000000000000e+00,4.000000000000000000e+00,-4.000000000000000000e+00,-2.000000000000000000e+00,-2.000000000000000000e+00,0.000000000000000000e+00,-3.000000000000000000e+00,-4.009399414062500000e-01,3.333740234375000000e-01,6.335449218750000000e-01,5.715332031250000000e-01
-1.000000000000000000e+00,-2.000000000000000000e+00,3.000000000000000000e+00,2.000000000000000000e+00,-1.000000000000000000e+00,-2.000000000000000000e+00,-1.000000000000000000e+00,-3.000000000000000000e+00,-4.009399414062500000e-01,3.333740234375000000e-01,6.335449218750000000e-01,5.715332031250000000e-01
-1.000000000000000000e+00,-1.500000000000000000e+01,-1.500000000000000000e+01,-4.000000000000000000e+00,1.000000000000000000e+00,0.000000000000000000e+00,0.000000000000000000e+00,0.000000000000000000e+00,-4.009399414062500000e-01,3.333740234375000000e-01,6.335449218750000000e-01,5.715332031250000000e-01
2.000000000000000000e+00,1.300000000000000000e+01,1.000000000000000000e+00,1.000000000000000000e+00,-3.000000000000000000e+00,0.000000000000000000e+00,-2.000000000000000000e+00,-1.000000000000000000e+00,-4.009399414062500000e-01,3.333740234375000000e-01,6.335449218750000000e-01,5.715332031250000000e-01
-1.000000000000000000e+00,-1.100000000000000000e+01,-6.000000000000000000e+00,-1.000000000000000000e+00,-1.000000000000000000e+00,2.000000000000000000e+00,0.000000000000000000e+00,0.000000000000000000e+00,-4.009399414062500000e-01,3.333740234375000000e-01,6.335449218750000000e-01,5.715332031250000000e-01
-3.000000000000000000e+00,0.000000000000000000e+00,7.000000000000000000e+00,-4.000000000000000000e+00,-2.000000000000000000e+00,-2.000000000000000000e+00,-3.000000000000000000e+00,-1.000000000000000000e+00,-4.009399414062500000e-01,3.333740234375000000e-01,6.335449218750000000e-01,5.715332031250000000e-01
-2.000000000000000000e+00,2.000000000000000000e+00,-2.000000000000000000e+00,1.000000000000000000e+00,-1.000000000000000000e+00,-1.000000000000000000e+00,1.000000000000000000e+00,0.000000000000000000e+00,-4.009399414062500000e-01,3.333740234375000000e-01,6.335449218750000000e-01,5.715332031250000000e-01
0.000000000000000000e+00,4.000000000000000000e+00,-2.000000000000000000e+00,-4.000000000000000000e+00,-1.000000000000000000e+00,-2.000000000000000000e+00,-1.000000000000000000e+00,-1.000000000000000000e+00,-4.009399414062500000e-01,3.333740234375000000e-01,6.335449218750000000e-01,5.715332031250000000e-01
-5.000000000000000000e+00,-1.700000000000000000e+01,1.000000000000000000e+00,2.000000000000000000e+00,2.000000000000000000e+00,-1.000000000000000000e+00,1.000000000000000000e+00,0.000000000000000000e+00,-4.009399414062500000e-01,3.333740234375000000e-01,6.335449218750000000e-01,5.715332031250000000e-01
0.000000000000000000e+00,1.100000000000000000e+01,-9.000000000000000000e+00,-3.000000000000000000e+00,-1.000000000000000000e+00,0.000000000000000000e+00,0.000000000000000000e+00,-1.000000000000000000e+00,-4.009399414062500000e-01,3.333740234375000000e-01,6.335449218750000000e-01,5.715332031250000000e-01
-1.000000000000000000e+00,-1.200000000000000000e+01,-2.000000000000000000e+00,0.000000000000000000e+00,-2.000000000000000000e+00,0.000000000000000000e+00,-1.000000000000000000e+00,-1.000000000000000000e+00,-4.009399414062500000e-01,3.333740234375000000e-01,6.335449218750000000e-01,5.715332031250000000e-01
-6.000000000000000000e+00,1.100000000000000000e+01,-3.000000000000000000e+00,-5.000000000000000000e+00,-4.000000000000000000e+00,-4.000000000000000000e+00,-3.000000000000000000e+00,-2.000000000000000000e+00,-4.009399414062500000e-01,3.333740234375000000e-01,6.335449218750000000e-01,5.715332031250000000e-01
1.000000000000000000e+01,1.500000000000000000e+01,4.000000000000000000e+00,1.000000000000000000e+00,0.000000000000000000e+00,0.000000000000000000e+00,0.000000000000000000e+00,-1.000000000000000000e+00,-4.010009765625000000e-01,3.334350585937500000e-01,6.337280273437500000e-01,5.712890625000000000e-01
3.000000000000000000e+00,4.000000000000000000e+00,3.000000000000000000e+00,0.000000000000000000e+00,0.000000000000000000e+00,-1.000000000000000000e+00,-1.000000000000000000e+00,1.000000000000000000e+00,-4.010009765625000000e-01,3.334350585937500000e-01,6.337280273437500000e-01,5.712890625000000000e-01
-3.000000000000000000e+00,-7.000000000000000000e+00,0.000000000000000000e+00,0.000000000000000000e+00,0.000000000000000000e+00,-1.000000000000000000e+00,-1.000000000000000000e+00,-2.000000000000000000e+00,-4.010009765625000000e-01,3.334350585937500000e-01,6.337280273437500000e-01,5.712890625000000000e-01
-3.000000000000000000e+00,-5.000000000000000000e+00,-4.000000000000000000e+00,-4.000000000000000000e+00,-1.000000000000000000e+00,1.000000000000000000e+00,0.000000000000000000e+00,-2.000000000000000000e+00,-4.010009765625000000e-01,3.334350585937500000e-01,6.337280273437500000e-01,5.712890625000000000e-01
-5.000000000000000000e+00,1.000000000000000000e+00,-1.000000000000000000e+00,2.000000000000000000e+00,-2.000000000000000000e+00,-3.000000000000000000e+00,0.000000000000000000e+00,-2.000000000000000000e+00,-4.011230468750000000e-01,3.333740234375000000e-01,6.337890625000000000e-01,5.711669921875000000e-01
-2.000000000000000000e+00,8.000000000000000000e+00,1.000000000000000000e+00,-2.000000000000000000e+00,1.000000000000000000e+00,1.000000000000000000e+00,-1.000000000000000000e+00,-2.000000000000000000e+00,-4.011230468750000000e-01,3.333740234375000000e-01,6.337890625000000000e-01,5.711669921875000000e-01
1.000000000000000000e+00,-9.000000000000000000e+00,-5.000000000000000000e+00,2.000000000000000000e+00,5.000000000000000000e+00,0.000000000000000000e+00,1.000000000000000000e+00,0.000000000000000000e+00,-4.011230468750000000e-01,3.333740234375000000e-01,6.337890625000000000e-01,5.711669921875000000e-01
1.000000000000000000e+00,1.600000000000000000e+01,0.000000000000000000e+00,-6.000000000000000000e+00,-1.000000000000000000e+00,1.000000000000000000e+00,-2.000000000000000000e+00,-1.000000000000000000e+00,-4.011230468750000000e-01,3.333740234375000000e-01,6.337890625000000000e-01,5.711669921875000000e-01
-5.000000000000000000e+00,-3.500000000000000000e+01,1.000000000000000000e+00,1.000000000000000000e+00,0.000000000000000000e+00,0.000000000000000000e+00,-1.000000000000000000e+00,0.000000000000000000e+00,-4.011840820312500000e-01,3.333129882812500000e-01,6.339111328125000000e-01,5.709838867187500000e-01
-2.000000000000000000e+00,7.000000000000000000e+00,-2.000000000000000000e+00,0.000000000000000000e+00,-3.000000000000000000e+00,-5.000000000000000000e+00,-3.000000000000000000e+00,-3.000000000000000000e+00,-4.011840820312500000e-01,3.333129882812500000e-01,6.339111328125000000e-01,5.709838867187500000e-01
-1.000000000000000000e+00,-1.000000000000000000e+00,-3.000000000000000000e+00,-3.000000000000000000e+00,-3.000000000000000000e+00,-3.000000000000000000e+00,-2.000000000000000000e+00,-1.000000000000000000e+00,-4.011840820312500000e-01,3.333129882812500000e-01,6.339111328125000000e-01,5.709838867187500000e-01
0.000000000000000000e+00,-1.000000000000000000e+01,-7.000000000000000000e+00,2.000000000000000000e+00,1.000000000000000000e+00,-1.000000000000000000e+00,1.000000000000000000e+00,0.000000000000000000e+00,-4.011840820312500000e-01,3.333129882812500000e-01,6.339111328125000000e-01,5.709838867187500000e-01
0.000000000000000000e+00,1.500000000000000000e+01,-1.100000000000000000e+01,-2.000000000000000000e+00,-1.000000000000000000e+00,-2.000000000000000000e+00,-2.000000000000000000e+00,-1.000000000000000000e+00,-4.012451171875000000e-01,3.333740234375000000e-01,6.339111328125000000e-01,5.709838867187500000e-01
-1.000000000000000000e+00,1.200000000000000000e+01,1.100000000000000000e+01,-5.000000000000000000e+00,-2.000000000000000000e+00,0.000000000000000000e+00,1.000000000000000000e+00,-1.000000000000000000e+00,-4.012451171875000000e-01,3.333740234375000000e-01,6.339111328125000000e-01,5.709838867187500000e-01
-1.000000000000000000e+00,-7.000000000000000000e+00,-5.000000000000000000e+00,0.000000000000000000e+00,-4.000000000000000000e+00,-2.000000000000000000e+00,-3.000000000000000000e+00,-2.000000000000000000e+00,-4.012451171875000000e-01,3.333740234375000000e-01,6.339111328125000000e-01,5.709838867187500000e-01
1.000000000000000000e+00,0.000000000000000000e+00,2.000000000000000000e+00,1.000000000000000000e+00,2.000000000000000000e+00,1.000000000000000000e+00,2.000000000000000000e+00,0.000000000000000000e+00,-4.012451171875000000e-01,3.333740234375000000e-01,6.339111328125000000e-01,5.709838867187500000e-01
-1.000000000000000000e+00,-6.000000000000000000e+00,-8.000000000000000000e+00,-3.000000000000000000e+00,1.000000000000000000e+00,1.000000000000000000e+00,0.000000000000000000e+00,1.000000000000000000e+00,-4.011840820312500000e-01,3.333740234375000000e-01,6.339721679687500000e-01,5.708618164062500000e-01
0.000000000000000000e+00,-1.000000000000000000e+01,-5.000000000000000000e+00,5.000000000000000000e+00,-1.000000000000000000e+00,-2.000000000000000000e+00,-2.000000000000000000e+00,1.000000000000000000e+00,-4.011840820312500000e-01,3.333740234375000000e-01,6.339721679687500000e-01,5.708618164062500000e-01
-1.000000000000000000e+00,1.100000000000000000e+01,-1.000000000000000000e+01,-4.000000000000000000e+00,-2.000000000000000000e+00,0.000000000000000000e+00,1.000000000000000000e+00,-1.000000000000000000e+00,-4.011840820312500000e-01,3.333740234375000000e-01,6.339721679687500000e-01,5.708618164062500000e-01
-2.000000000000000000e+00,-2.800000000000000000e+01,0.000000000000000000e+00,0.000000000000000000e+00,-2.000000000000000000e+00,-1.000000000000000000e+00,-2.000000000000000000e+00,-2.000000000000000000e+00,-4.011840820312500000e-01,3.333740234375000000e-01,6.339721679687500000e-01,5.708618164062500000e-01
5.000000000000000000e+00,1.500000000000000000e+01,1.000000000000000000e+00,-1.000000000000000000e+00,-3.000000000000000000e+00,-4.000000000000000000e+00,-3.000000000000000000e+00,0.000000000000000000e+00,-4.013671875000000000e-01,3.331909179687500000e-01,6.341552734375000000e-01,5.706787109375000000e-01
1.000000000000000000e+00,-1.100000000000000000e+01,-1.100000000000000000e+01,-3.000000000000000000e+00,-2.000000000000000000e+00,0.000000000000000000e+00,0.000000000000000000e+00,-1.000000000000000000e+00,-4.013671875000000000e-01,3.331909179687500000e-01,6.341552734375000000e-01,5.706787109375000000e-01
0.000000000000000000e+00,1.000000000000000000e+00,0.000000000000000000e+00,1.000000000000000000e+00,0.000000000000000000e+00,1.000000000000000000e+00,-1.000000000000000000e+00,-1.000000000000000000e+00,-4.013671875000000000e-01,3.331909179687500000e-01,6.341552734375000000e-01,5.706787109375000000e-01
3.000000000000000000e+00,-7.000000000000000000e+00,-6.000000000000000000e+00,0.000000000000000000e+00,-2.000000000000000000e+00,-3.000000000000000000e+00,-1.000000000000000000e+00,1.000000000000000000e+00,-4.013671875000000000e-01,3.331909179687500000e-01,6.341552734375000000e-01,5.706787109375000000e-01
-4.000000000000000000e+00,-5.000000000000000000e+00,7.000000000000000000e+00,2.000000000000000000e+00,1.000000000000000000e+00,2.000000000000000000e+00,-1.000000000000000000e+00,-2.000000000000000000e+00,-4.013671875000000000e-01,3.331909179687500000e-01,6.341552734375000000e-01,5.706787109375000000e-01
-2.000000000000000000e+00,3.000000000000000000e+00,1.000000000000000000e+00,-2.000000000000000000e+00,-2.000000000000000000e+00,-2.000000000000000000e+00,-2.000000000000000000e+00,-3.000000000000000000e+00,-4.013671875000000000e-01,3.331909179687500000e-01,6.341552734375000000e-01,5.706787109375000000e-01
1.000000000000000000e+00,-2.000000000000000000e+00,1.000000000000000000e+00,0.000000000000000000e+00,5.000000000000000000e+00,-2.000000000000000000e+00,-1.000000000000000000e+00,0.000000000000000000e+00,-4.013671875000000000e-01,3.331909179687500000e-01,6.341552734375000000e-01,5.706787109375000000e-01
-3.000000000000000000e+00,-8.000000000000000000e+00,-1.000000000000000000e+00,1.000000000000000000e+00,-1.000000000000000000e+00,0.000000000000000000e+00,-1.000000000000000000e+00,-2.000000000000000000e+00,-4.013671875000000000e-01,3.331909179687500000e-01,6.341552734375000000e-01,5.706787109375000000e-01
1.000000000000000000e+00,6.000000000000000000e+00,1.000000000000000000e+00,-4.000000000000000000e+00,-2.000000000000000000e+00,-1.000000000000000000e+00,0.000000000000000000e+00,0.000000000000000000e+00,-4.011840820312500000e-01,3.331298828125000000e-01,6.343383789062500000e-01,5.706176757812500000e-01
0.000000000000000000e+00,0.000000000000000000e+00,-5.000000000000000000e+00,-3.000000000000000000e+00,-2.000000000000000000e+00,0.000000000000000000e+00,-1.000000000000000000e+00,0.000000000000000000e+00,-4.011840820312500000e-01,3.331298828125000000e-01,6.343383789062500000e-01,5.706176757812500000e-01
-2.000000000000000000e+00,-1.300000000000000000e+01,-3.000000000000000000e+00,-3.000000000000000000e+00,-3.000000000000000000e+00,-1.000000000000000000e+00,-2.000000000000000000e+00,-2.000000000000000000e+00,-4.011840820312500000e-01,3.331298828125000000e-01,6.343383789062500000e-01,5.706176757812500000e-01
-3.000000000000000000e+00,7.000000000000000000e+00,3.000000000000000000e+00,2.000000000000000000e+00,1.000000000000000000e+00,2.000000000000000000e+00,0.000000000000000000e+00,-2.000000000000000000e+00,-4.011840820312500000e-01,3.331298828125000000e-01,6.343383789062500000e-01,5.706176757812500000e-01
-2.000000000000000000e+00,-7.000000000000000000e+00,3.000000000000000000e+00,2.000000000000000000e+00,-1.000000000000000000e+00,-3.000000000000000000e+00,-2.000000000000000000e+00,-1.000000000000000000e+00,-4.010009765625000000e-01,3.330688476562500000e-01,6.345214843750000000e-01,5.705566406250000000e-01
-1.000000000000000000e+00,-9.000000000000000000e+00,-6.000000000000000000e+00,1.000000000000000000e+00,0.000000000000000000e+00,0.000000000000000000e+00,-2.000000000000000000e+00,-2.000000000000000000e+00,-4.010009765625000000e-01,3.330688476562500000e-01,6.345214843750000000e-01,5.705566406250000000e-01
-1.000000000000000000e+00,3.000000000000000000e+00,3.000000000000000000e+00,-3.000000000000000000e+00,0.000000000000000000e+00,0.000000000000000000e+00,-1.000000000000000000e+00,-4.000000000000000000e+00,-4.010009765625000000e-01,3.330688476562500000e-01,6.345214843750000000e-01,5.705566406250000000e-01
2.000000000000000000e+00,3.000000000000000000e+00,-1.700000000000000000e+01,-1.100000000000000000e+01,-4.000000000000000000e+00,-2.000000000000000000e+00,1.000000000000000000e+00,1.000000000000000000e+00,-4.010009765625000000e-01,3.330688476562500000e-01,6.345214843750000000e-01,5.705566406250000000e-01
2.000000000000000000e+00,1.500000000000000000e+01,8.000000000000000000e+00,6.000000000000000000e+00,-1.000000000000000000e+00,0.000000000000000000e+00,2.000000000000000000e+00,0.000000000000000000e+00,-4.010009765625000000e-01,3.328247070312500000e-01,6.347656250000000000e-01,5.704956054687500000e-01
-4.000000000000000000e+00,-2.400000000000000000e+01,4.000000000000000000e+00,-1.000000000000000000e+00,2.000000000000000000e+00,1.000000000000000000e+00,2.000000000000000000e+00,-1.000000000000000000e+00,-4.010009765625000000e-01,3.328247070312500000e-01,6.347656250000000000e-01,5.704956054687500000e-01
-3.000000000000000000e+00,6.000000000000000000e+00,-6.000000000000000000e+00,-4.000000000000000000e+00,-4.000000000000000000e+00,-5.000000000000000000e+00,-2.000000000000000000e+00,-2.000000000000000000e+00,-4.010009765625000000e-01,3.328247070312500000e-01,6.347656250000000000e-01,5.704956054687500000e-01
-2.000000000000000000e+00,-3.000000000000000000e+00,1.000000000000000000e+00,2.000000000000000000e+00,-1.000000000000000000e+00,-1.000000000000000000e+00,-3.000000000000000000e+00,-2.000000000000000000e+00,-4.010009765625000000e-01,3.328247070312500000e-01,6.347656250000000000e-01,5.704956054687500000e-01
-3.000000000000000000e+00,-2.000000000000000000e+00,-6.000000000000000000e+00,-8.000000000000000000e+00,-4.000000000000000000e+00,-1.000000000000000000e+00,-2.000000000000000000e+00,-1.000000000000000000e+00,-4.010009765625000000e-01,3.327636718750000000e-01,6.347656250000000000e-01,5.704956054687500000e-01
4.000000000000000000e+00,1.100000000000000000e+01,2.000000000000000000e+00,-1.000000000000000000e+00,-1.000000000000000000e+00,-2.000000000000000000e+00,0.000000000000000000e+00,2.000000000000000000e+00,-4.010009765625000000e-01,3.327636718750000000e-01,6.347656250000000000e-01,5.704956054687500000e-01
-5.000000000000000000e+00,-6.000000000000000000e+00,2.000000000000000000e+00,0.000000000000000000e+00,1.000000000000000000e+00,1.000000000000000000e+00,-1.000000000000000000e+00,2.000000000000000000e+00,-4.010009765625000000e-01,3.327636718750000000e-01,6.347656250000000000e-01,5.704956054687500000e-01
8.000000000000000000e+00,1.000000000000000000e+01,1.000000000000000000e+00,0.000000000000000000e+00,0.000000000000000000e+00,-2.000000000000000000e+00,-3.000000000000000000e+00,-4.000000000000000000e+00,-4.010009765625000000e-01,3.327636718750000000e-01,6.347656250000000000e-01,5.704956054687500000e-01
-3.000000000000000000e+00,-1.300000000000000000e+01,-1.300000000000000000e+01,-3.000000000000000000e+00,-1.000000000000000000e+00,-1.000000000000000000e+00,0.000000000000000000e+00,0.000000000000000000e+00,-4.010009765625000000e-01,3.327636718750000000e-01,6.347656250000000000e-01,5.705566406250000000e-01
0.000000000000000000e+00,1.400000000000000000e+01,1.200000000000000000e+01,-3.000000000000000000e+00,-1.000000000000000000e+00,-1.000000000000000000e+00,-1.000000000000000000e+00,-2.000000000000000000e+00,-4.010009765625000000e-01,3.327636718750000000e-01,6.347656250000000000e-01,5.705566406250000000e-01
-1.000000000000000000e+00,-1.000000000000000000e+00,3.000000000000000000e+00,6.000000000000000000e+00,-3.000000000000000000e+00,-3.000000000000000000e+00,-2.000000000000000000e+00,-2.000000000000000000e+00,-4.010009765625000000e-01,3.327636718750000000e-01,6.347656250000000000e-01,5.705566406250000000e-01
0.000000000000000000e+00,9.000000000000000000e+00,5.000000000000000000e+00,1.000000000000000000e+00,-2.000000000000000000e+00,-1.000000000000000000e+00,1.000000000000000000e+00,2.000000000000000000e+00,-4.010009765625000000e-01,3.327636718750000000e-01,6.347656250000000000e-01,5.705566406250000000e-01
-4.000000000000000000e+00,-1.000000000000000000e+01,-1.200000000000000000e+01,-4.000000000000000000e+00,4.000000000000000000e+00,3.000000000000000000e+00,0.000000000000000000e+00,-3.000000000000000000e+00,-4.009399414062500000e-01,3.328857421875000000e-01,6.348876953125000000e-01,5.703735351562500000e-01
-1.000000000000000000e+00,-6.000000000000000000e+00,-1.200000000000000000e+01,2.000000000000000000e+00,-1.000000000000000000e+00,-3.000000000000000000e+00,-2.000000000000000000e+00,-2.000000000000000000e+00,-4.009399414062500000e-01,3.328857421875000000e-01,6.348876953125000000e-01,5.703735351562500000e-01
0.000000000000000000e+00,-5.000000000000000000e+00,-4.000000000000000000e+00,-4.000000000000000000e+00,0.000000000000000000e+00,1.000000000000000000e+00,1.000000000000000000e+00,1.000000000000000000e+00,-4.009399414062500000e-01,3.328857421875000000e-01,6.348876953125000000e-01,5.703735351562500000e-01
-1.000000000000000000e+00,1.100000000000000000e+01,7.000000000000000000e+00,4.000000000000000000e+00,3.000000000000000000e+00,0.000000000000000000e+00,-2.000000000000000000e+00,-1.000000000000000000e+00,-4.009399414062500000e-01,3.328857421875000000e-01,6.348876953125000000e-01,5.703735351562500000e-01
0.000000000000000000e+00,-4.000000000000000000e+00,-3.000000000000000000e+00,-5.000000000000000000e+00,-5.000000000000000000e+00,-4.000000000000000000e+00,-1.000000000000000000e+00,-1.000000000000000000e+00,-4.009399414062500000e-01,3.328247070312500000e-01,6.350708007812500000e-01,5.701904296875000000e-01
-2.000000000000000000e+00,-2.300000000000000000e+01,-6.000000000000000000e+00,-1.000000000000000000e+00,1.000000000000000000e+00,0.000000000000000000e+00,1.000000000000000000e+00,2.000000000000000000e+00,-4.009399414062500000e-01,3.328247070312500000e-01,6.350708007812500000e-01,5.701904296875000000e-01
-3.000000000000000000e+00,1.400000000000000000e+01,6.000000000000000000e+00,-2.000000000000000000e+00,1.000000000000000000e+00,4.000000000000000000e+00,0.000000000000000000e+00,-3.000000000000000000e+00,-4.009399414062500000e-01,3.328247070312500000e-01,6.350708007812500000e-01,5.701904296875000000e-01
-4.000000000000000000e+00,-1.200000000000000000e+01,-1.000000000000000000e+00,3.000000000000000000e+00,-3.000000000000000000e+00,-2.000000000000000000e+00,-2.000000000000000000e+00,-1.000000000000000000e+00,-4.009399414062500000e-01,3.328247070312500000e-01,6.350708007812500000e-01,5.701904296875000000e-01
1.000000000000000000e+00,1.000000000000000000e+00,-2.000000000000000000e+00,-3.000000000000000000e+00,-2.000000000000000000e+00,-2.000000000000000000e+00,-2.000000000000000000e+00,-3.000000000000000000e+00,-4.010009765625000000e-01,3.328247070312500000e-01,6.351928710937500000e-01,5.700073242187500000e-01
-2.000000000000000000e+00,1.500000000000000000e+01,3.000000000000000000e+00,-2.000000000000000000e+00,-3.000000000000000000e+00,-2.000000000000000000e+00,-2.000000000000000000e+00,-1.000000000000000000e+00,-4.010009765625000000e-01,3.328247070312500000e-01,6.351928710937500000e-01,5.700073242187500000e-01
2.000000000000000000e+00,-6.000000000000000000e+00,-2.000000000000000000e+00,-3.000000000000000000e+00,-3.000000000000000000e+00,-3.000000000000000000e+00,-2.000000000000000000e+00,1.000000000000000000e+00,-4.010009765625000000e-01,3.328247070312500000e-01,6.351928710937500000e-01,5.700073242187500000e-01
-1.000000000000000000e+00,-4.000000000000000000e+00,-3.000000000000000000e+00,-1.000000000000000000e+00,-1.000000000000000000e+00,1.000000000000000000e+00,1.000000000000000000e+00,-2.000000000000000000e+00,-4.010009765625000000e-01,3.328247070312500000e-01,6.351928710937500000e-01,5.700073242187500000e-01
-1.000000000000000000e+00,8.000000000000000000e+00,4.000000000000000000e+00,0.000000000000000000e+00,-1.000000000000000000e+00,0.000000000000000000e+00,-2.000000000000000000e+00,-1.000000000000000000e+00,-4.011230468750000000e-01,3.324584960937500000e-01,6.353759765625000000e-01,5.699462890625000000e-01
-1.000000000000000000e+00,1.000000000000000000e+00,-1.000000000000000000e+00,0.000000000000000000e+00,-2.000000000000000000e+00,-1.000000000000000000e+00,-1.000000000000000000e+00,-2.000000000000000000e+00,-4.011230468750000000e-01,3.324584960937500000e-01,6.353759765625000000e-01,5.699462890625000000e-01
0.000000000000000000e+00,-4.000000000000000000e+00,-1.000000000000000000e+00,0.000000000000000000e+00,-1.000000000000000000e+00,-1.000000000000000000e+00,-3.000000000000000000e+00,-2.000000000000000000e+00,-4.011230468750000000e-01,3.324584960937500000e-01,6.353759765625000000e-01,5.699462890625000000e-01
-5.000000000000000000e+00,-1.500000000000000000e+01,-6.000000000000000000e+00,-4.000000000000000000e+00,-2.000000000000000000e+00,-2.000000000000000000e+00,-2.000000000000000000e+00,-4.000000000000000000e+00,-4.011230468750000000e-01,3.324584960937500000e-01,6.353759765625000000e-01,5.699462890625000000e-01
0.000000000000000000e+00,1.800000000000000000e+01,5.000000000000000000e+00,-1.000000000000000000e+00,-1.000000000000000000e+00,-2.000000000000000000e+00,-1.000000000000000000e+00,-1.000000000000000000e+00,-4.011230468750000000e-01,3.324584960937500000e-01,6.353759765625000000e-01,5.699462890625000000e-01
-2.000000000000000000e+00,-1.000000000000000000e+01,-1.000000000000000000e+01,-4.000000000000000000e+00,1.000000000000000000e+00,0.000000000000000000e+00,0.000000000000000000e+00,0.000000000000000000e+00,-4.011230468750000000e-01,3.324584960937500000e-01,6.353759765625000000e-01,5.699462890625000000e-01
0.000000000000000000e+00,-3.000000000000000000e+00,6.000000000000000000e+00,-2.000000000000000000e+00,0.000000000000000000e+00,0.000000000000000000e+00,-1.000000000000000000e+00,-1.000000000000000000e+00,-4.011230468750000000e-01,3.324584960937500000e-01,6.353759765625000000e-01,5.699462890625000000e-01
0.000000000000000000e+00,-3.000000000000000000e+00,-2.000000000000000000e+00,1.000000000000000000e+00,0.000000000000000000e+00,-1.000000000000000000e+00,0.000000000000000000e+00,0.000000000000000000e+00,-4.011230468750000000e-01,3.324584960937500000e-01,6.353759765625000000e-01,5.699462890625000000e-01
