2.000000000000000000e+00,-3.000000000000000000e+00,-1.700000000000000000e+01,-1.000000000000000000e+00,3.000000000000000000e+00,1.000000000000000000e+00,-2.000000000000000000e+00,-3.000000000000000000e+00,-1.773681640625000000e-01,4.016113281250000000e-01,-1.016235351562500000e-01,8.926391601562500000e-01
1.000000000000000000e+00,-3.000000000000000000e+00,-3.200000000000000000e+01,0.000000000000000000e+00,3.000000000000000000e+00,8.000000000000000000e+00,4.000000000000000000e+00,2.000000000000000000e+00,-1.773681640625000000e-01,4.016113281250000000e-01,-1.016235351562500000e-01,8.926391601562500000e-01
-3.000000000000000000e+00,-6.000000000000000000e+00,4.000000000000000000e+00,2.800000000000000000e+01,0.000000000000000000e+00,-6.000000000000000000e+00,-5.000000000000000000e+00,-3.000000000000000000e+00,-1.773681640625000000e-01,4.016113281250000000e-01,-1.016235351562500000e-01,8.926391601562500000e-01
-3.000000000000000000e+00,-2.000000000000000000e+00,9.000000000000000000e+00,0.000000000000000000e+00,-2.000000000000000000e+00,-8.000000000000000000e+00,-7.000000000000000000e+00,-1.000000000000000000e+00,-1.773681640625000000e-01,4.016113281250000000e-01,-1.016235351562500000e-01,8.926391601562500000e-01
-1.000000000000000000e+00,-4.000000000000000000e+00,-2.700000000000000000e+01,-9.000000000000000000e+00,-2.000000000000000000e+00,-1.000000000000000000e+00,-1.100000000000000000e+01,-1.000000000000000000e+00,-1.774902343750000000e-01,4.020385742187500000e-01,-1.020507812500000000e-01,8.923950195312500000e-01
-2.000000000000000000e+00,-7.000000000000000000e+00,-3.000000000000000000e+00,1.400000000000000000e+01,-1.000000000000000000e+00,3.000000000000000000e+00,1.100000000000000000e+01,-4.000000000000000000e+00,-1.774902343750000000e-01,4.020385742187500000e-01,-1.020507812500000000e-01,8.923950195312500000e-01
0.000000000000000000e+00,0.000000000000000000e+00,-2.800000000000000000e+01,3.600000000000000000e+01,5.000000000000000000e+00,-5.000000000000000000e+00,5.000000000000000000e+00,-2.000000000000000000e+00,-1.774902343750000000e-01,4.020385742187500000e-01,-1.020507812500000000e-01,8.923950195312500000e-01
-7.000000000000000000e+00,-1.000000000000000000e+00,-6.000000000000000000e+00,-3.200000000000000000e+01,-1.100000000000000000e+01,0.000000000000000000e+00,1.000000000000000000e+01,-3.000000000000000000e+00,-1.774902343750000000e-01,4.020385742187500000e-01,-1.020507812500000000e-01,8.923950195312500000e-01
7.000000000000000000e+00,-3.000000000000000000e+00,3.000000000000000000e+00,3.700000000000000000e+01,1.200000000000000000e+01,1.300000000000000000e+01,6.000000000000000000e+00,1.000000000000000000e+00,-1.774902343750000000e-01,4.022216796875000000e-01,-1.025390625000000000e-01,8.922729492187500000e-01
1.000000000000000000e+00,3.000000000000000000e+00,1.900000000000000000e+01,-9.200000000000000000e+01,-1.900000000000000000e+01,-1.700000000000000000e+01,-1.900000000000000000e+01,-3.000000000000000000e+00,-1.774902343750000000e-01,4.022216796875000000e-01,-1.025390625000000000e-01,8.922729492187500000e-01
-1.000000000000000000e+00,-1.100000000000000000e+01,-2.900000000000000000e+01,1.900000000000000000e+01,2.000000000000000000e+00,8.000000000000000000e+00,1.000000000000000000e+00,0.000000000000000000e+00,-1.774902343750000000e-01,4.022216796875000000e-01,-1.025390625000000000e-01,8.922729492187500000e-01
-7.000000000000000000e+00,-6.000000000000000000e+00,-1.600000000000000000e+01,7.700000000000000000e+01,9.000000000000000000e+00,-7.000000000000000000e+00,-7.000000000000000000e+00,-2.000000000000000000e+00,-1.774902343750000000e-01,4.022216796875000000e-01,-1.025390625000000000e-01,8.922729492187500000e-01
1.000000000000000000e+00,4.000000000000000000e+00,-6.000000000000000000e+00,3.800000000000000000e+01,1.000000000000000000e+01,-5.000000000000000000e+00,-4.000000000000000000e+00,0.000000000000000000e+00,-1.776123046875000000e-01,4.024047851562500000e-01,-1.029052734375000000e-01,8.921508789062500000e-01
4.000000000000000000e+00,3.000000000000000000e+00,-1.300000000000000000e+01,-6.900000000000000000e+01,-1.100000000000000000e+01,4.000000000000000000e+00,4.000000000000000000e+00,0.000000000000000000e+00,-1.776123046875000000e-01,4.024047851562500000e-01,-1.029052734375000000e-01,8.921508789062500000e-01
3.000000000000000000e+00,6.000000000000000000e+00,6.100000000000000000e+01,1.000000000000000000e+00,0.000000000000000000e+00,0.000000000000000000e+00,0.000000000000000000e+00,1.000000000000000000e+00,-1.776123046875000000e-01,4.024047851562500000e-01,-1.029052734375000000e-01,8.921508789062500000e-01
3.000000000000000000e+00,6.000000000000000000e+00,7.000000000000000000e+00,2.900000000000000000e+01,1.000000000000000000e+01,4.000000000000000000e+00,5.000000000000000000e+00,0.000000000000000000e+00,-1.776123046875000000e-01,4.024047851562500000e-01,-1.029052734375000000e-01,8.921508789062500000e-01
-4.000000000000000000e+00,-1.100000000000000000e+01,-3.800000000000000000e+01,1.000000000000000000e+01,-5.000000000000000000e+00,2.000000000000000000e+00,2.000000000000000000e+00,-3.000000000000000000e+00,-1.777954101562500000e-01,4.025878906250000000e-01,-1.030273437500000000e-01,8.919677734375000000e-01
-4.000000000000000000e+00,-1.000000000000000000e+00,-1.500000000000000000e+01,-6.200000000000000000e+01,-5.000000000000000000e+00,-1.000000000000000000e+01,-1.200000000000000000e+01,-1.000000000000000000e+00,-1.777954101562500000e-01,4.025878906250000000e-01,-1.030273437500000000e-01,8.919677734375000000e-01
-2.000000000000000000e+00,-1.000000000000000000e+00,3.600000000000000000e+01,-1.600000000000000000e+01,-8.000000000000000000e+00,-3.000000000000000000e+00,-4.000000000000000000e+00,-1.000000000000000000e+00,-1.777954101562500000e-01,4.025878906250000000e-01,-1.030273437500000000e-01,8.919677734375000000e-01
-1.000000000000000000e+00,-4.000000000000000000e+00,-1.000000000000000000e+01,0.000000000000000000e+00,-2.000000000000000000e+00,-1.000000000000000000e+00,7.000000000000000000e+00,-1.000000000000000000e+00,-1.777954101562500000e-01,4.025878906250000000e-01,-1.030273437500000000e-01,8.919677734375000000e-01
-7.000000000000000000e+00,-2.000000000000000000e+00,-4.000000000000000000e+00,-1.100000000000000000e+01,-2.000000000000000000e+00,-7.000000000000000000e+00,-1.100000000000000000e+01,-3.000000000000000000e+00,-1.780395507812500000e-01,4.028320312500000000e-01,-1.029663085937500000e-01,8.918457031250000000e-01
-2.000000000000000000e+00,3.000000000000000000e+00,0.000000000000000000e+00,4.000000000000000000e+00,-9.000000000000000000e+00,-7.000000000000000000e+00,-2.000000000000000000e+00,-3.000000000000000000e+00,-1.780395507812500000e-01,4.028320312500000000e-01,-1.029663085937500000e-01,8.918457031250000000e-01
-4.000000000000000000e+00,-8.000000000000000000e+00,-4.000000000000000000e+01,-8.300000000000000000e+01,-1.000000000000000000e+01,2.000000000000000000e+00,5.000000000000000000e+00,-2.000000000000000000e+00,-1.780395507812500000e-01,4.028320312500000000e-01,-1.029663085937500000e-01,8.918457031250000000e-01
3.000000000000000000e+00,8.000000000000000000e+00,3.600000000000000000e+01,6.700000000000000000e+01,1.300000000000000000e+01,1.700000000000000000e+01,1.500000000000000000e+01,2.000000000000000000e+00,-1.780395507812500000e-01,4.028320312500000000e-01,-1.029663085937500000e-01,8.918457031250000000e-01
-6.000000000000000000e+00,-5.000000000000000000e+00,-5.000000000000000000e+00,-2.400000000000000000e+01,-4.000000000000000000e+00,-1.200000000000000000e+01,-1.700000000000000000e+01,-2.000000000000000000e+00,-1.782226562500000000e-01,4.028320312500000000e-01,-1.033325195312500000e-01,8.917846679687500000e-01
1.400000000000000000e+01,-3.000000000000000000e+00,-7.000000000000000000e+00,6.200000000000000000e+01,6.000000000000000000e+00,1.400000000000000000e+01,8.000000000000000000e+00,4.000000000000000000e+00,-1.782226562500000000e-01,4.028320312500000000e-01,-1.033325195312500000e-01,8.917846679687500000e-01
-1.200000000000000000e+01,-5.000000000000000000e+00,7.000000000000000000e+00,-3.600000000000000000e+01,-4.000000000000000000e+00,-8.000000000000000000e+00,-1.200000000000000000e+01,-5.000000000000000000e+00,-1.782226562500000000e-01,4.028320312500000000e-01,-1.033325195312500000e-01,8.917846679687500000e-01
-2.000000000000000000e+00,1.000000000000000000e+00,0.000000000000000000e+00,1.100000000000000000e+01,-1.000000000000000000e+00,6.000000000000000000e+00,8.000000000000000000e+00,0.000000000000000000e+00,-1.782226562500000000e-01,4.028320312500000000e-01,-1.033325195312500000e-01,8.917846679687500000e-01
-3.000000000000000000e+00,1.000000000000000000e+00,3.000000000000000000e+00,-5.200000000000000000e+01,-5.000000000000000000e+00,-8.000000000000000000e+00,5.000000000000000000e+00,0.000000000000000000e+00,-1.781616210937500000e-01,4.029541015625000000e-01,-1.035156250000000000e-01,8.916625976562500000e-01
2.000000000000000000e+00,0.000000000000000000e+00,4.000000000000000000e+00,2.300000000000000000e+01,9.000000000000000000e+00,-9.000000000000000000e+00,-1.000000000000000000e+01,1.000000000000000000e+00,-1.781616210937500000e-01,4.029541015625000000e-01,-1.035156250000000000e-01,8.916625976562500000e-01
2.000000000000000000e+00,3.000000000000000000e+00,7.000000000000000000e+00,3.000000000000000000e+01,1.000000000000000000e+00,1.300000000000000000e+01,1.200000000000000000e+01,0.000000000000000000e+00,-1.781616210937500000e-01,4.029541015625000000e-01,-1.035156250000000000e-01,8.916625976562500000e-01
0.000000000000000000e+00,-6.000000000000000000e+00,-1.300000000000000000e+01,-2.000000000000000000e+01,-1.000000000000000000e+00,-3.000000000000000000e+00,-1.000000000000000000e+01,-2.000000000000000000e+00,-1.781616210937500000e-01,4.029541015625000000e-01,-1.035156250000000000e-01,8.916625976562500000e-01
1.000000000000000000e+00,1.100000000000000000e+01,5.500000000000000000e+01,1.100000000000000000e+01,-3.000000000000000000e+00,4.000000000000000000e+00,5.000000000000000000e+00,0.000000000000000000e+00,-1.777343750000000000e-01,4.035034179687500000e-01,-1.036987304687500000e-01,8.915405273437500000e-01
-5.000000000000000000e+00,-9.000000000000000000e+00,-4.200000000000000000e+01,4.400000000000000000e+01,1.000000000000000000e+01,-7.000000000000000000e+00,-1.000000000000000000e+01,-2.000000000000000000e+00,-1.777343750000000000e-01,4.035034179687500000e-01,-1.036987304687500000e-01,8.915405273437500000e-01
1.000000000000000000e+00,-3.000000000000000000e+00,1.000000000000000000e+00,-4.600000000000000000e+01,-5.000000000000000000e+00,-9.000000000000000000e+00,-9.000000000000000000e+00,-2.000000000000000000e+00,-1.777343750000000000e-01,4.035034179687500000e-01,-1.036987304687500000e-01,8.915405273437500000e-01
-1.000000000000000000e+00,8.000000000000000000e+00,-1.300000000000000000e+01,-4.100000000000000000e+01,-1.400000000000000000e+01,-1.000000000000000000e+00,1.000000000000000000e+00,-1.000000000000000000e+00,-1.777343750000000000e-01,4.035034179687500000e-01,-1.036987304687500000e-01,8.915405273437500000e-01
7.000000000000000000e+00,1.000000000000000000e+00,1.100000000000000000e+01,-3.000000000000000000e+00,3.000000000000000000e+00,1.500000000000000000e+01,1.400000000000000000e+01,3.000000000000000000e+00,-1.773681640625000000e-01,4.037475585937500000e-01,-1.036376953125000000e-01,8.914794921875000000e-01
0.000000000000000000e+00,3.000000000000000000e+00,3.000000000000000000e+01,5.800000000000000000e+01,3.000000000000000000e+00,-3.000000000000000000e+00,0.000000000000000000e+00,0.000000000000000000e+00,-1.773681640625000000e-01,4.037475585937500000e-01,-1.036376953125000000e-01,8.914794921875000000e-01
-5.000000000000000000e+00,-1.100000000000000000e+01,-6.300000000000000000e+01,-1.800000000000000000e+01,-1.000000000000000000e+01,-1.100000000000000000e+01,-1.300000000000000000e+01,-4.000000000000000000e+00,-1.773681640625000000e-01,4.037475585937500000e-01,-1.036376953125000000e-01,8.914794921875000000e-01
5.000000000000000000e+00,6.000000000000000000e+00,4.800000000000000000e+01,-2.000000000000000000e+00,-2.000000000000000000e+00,-4.000000000000000000e+00,-9.000000000000000000e+00,0.000000000000000000e+00,-1.773681640625000000e-01,4.037475585937500000e-01,-1.036376953125000000e-01,8.914794921875000000e-01
-3.000000000000000000e+00,-2.000000000000000000e+00,-1.700000000000000000e+01,-2.000000000000000000e+00,-2.000000000000000000e+00,-1.000000000000000000e+00,8.000000000000000000e+00,-2.000000000000000000e+00,-1.771240234375000000e-01,4.041748046875000000e-01,-1.031494140625000000e-01,8.914184570312500000e-01
3.000000000000000000e+00,-2.000000000000000000e+00,-1.000000000000000000e+01,5.000000000000000000e+00,4.000000000000000000e+00,1.000000000000000000e+00,3.000000000000000000e+00,-2.000000000000000000e+00,-1.771240234375000000e-01,4.041748046875000000e-01,-1.031494140625000000e-01,8.914184570312500000e-01
-3.000000000000000000e+00,-1.000000000000000000e+00,4.400000000000000000e+01,3.100000000000000000e+01,8.000000000000000000e+00,1.000000000000000000e+00,-7.000000000000000000e+00,0.000000000000000000e+00,-1.771240234375000000e-01,4.041748046875000000e-01,-1.031494140625000000e-01,8.914184570312500000e-01
-6.000000000000000000e+00,-1.200000000000000000e+01,-2.600000000000000000e+01,2.000000000000000000e+00,7.000000000000000000e+00,-7.000000000000000000e+00,-1.400000000000000000e+01,0.000000000000000000e+00,-1.771240234375000000e-01,4.041748046875000000e-01,-1.031494140625000000e-01,8.914184570312500000e-01
4.000000000000000000e+00,-1.000000000000000000e+00,7.000000000000000000e+00,-1.600000000000000000e+01,-1.500000000000000000e+01,3.000000000000000000e+00,9.000000000000000000e+00,-1.000000000000000000e+00,-1.770019531250000000e-01,4.047241210937500000e-01,-1.027832031250000000e-01,8.911743164062500000e-01
-1.000000000000000000e+01,-2.000000000000000000e+00,-2.200000000000000000e+01,2.900000000000000000e+01,7.000000000000000000e+00,3.000000000000000000e+00,0.000000000000000000e+00,0.000000000000000000e+00,-1.770019531250000000e-01,4.047241210937500000e-01,-1.027832031250000000e-01,8.911743164062500000e-01
0.000000000000000000e+00,-2.000000000000000000e+00,-1.000000000000000000e+00,-4.400000000000000000e+01,-1.100000000000000000e+01,-9.000000000000000000e+00,0.000000000000000000e+00,-5.000000000000000000e+00,-1.770019531250000000e-01,4.047241210937500000e-01,-1.027832031250000000e-01,8.911743164062500000e-01
3.000000000000000000e+00,1.000000000000000000e+00,1.400000000000000000e+01,-8.000000000000000000e+00,0.000000000000000000e+00,2.000000000000000000e+00,3.000000000000000000e+00,2.000000000000000000e+00,-1.770019531250000000e-01,4.047241210937500000e-01,-1.027832031250000000e-01,8.911743164062500000e-01
1.000000000000000000e+00,-1.000000000000000000e+00,-1.200000000000000000e+01,1.500000000000000000e+01,-1.000000000000000000e+00,-8.000000000000000000e+00,-1.800000000000000000e+01,-2.000000000000000000e+00,-1.773681640625000000e-01,4.052734375000000000e-01,-1.025390625000000000e-01,8.909301757812500000e-01
-4.000000000000000000e+00,-4.000000000000000000e+00,5.000000000000000000e+00,-4.700000000000000000e+01,-4.000000000000000000e+00,-1.000000000000000000e+00,1.000000000000000000e+00,-2.000000000000000000e+00,-1.773681640625000000e-01,4.052734375000000000e-01,-1.025390625000000000e-01,8.909301757812500000e-01
-3.000000000000000000e+00,-1.000000000000000000e+01,5.000000000000000000e+00,4.800000000000000000e+01,1.100000000000000000e+01,-1.000000000000000000e+00,4.000000000000000000e+00,-1.000000000000000000e+00,-1.773681640625000000e-01,4.052734375000000000e-01,-1.025390625000000000e-01,8.909301757812500000e-01
-2.000000000000000000e+00,2.000000000000000000e+00,-2.800000000000000000e+01,-5.000000000000000000e+01,-9.000000000000000000e+00,4.000000000000000000e+00,1.100000000000000000e+01,0.000000000000000000e+00,-1.773681640625000000e-01,4.052734375000000000e-01,-1.025390625000000000e-01,8.909301757812500000e-01
-3.000000000000000000e+00,-2.000000000000000000e+00,3.000000000000000000e+00,1.700000000000000000e+01,1.000000000000000000e+00,0.000000000000000000e+00,-8.000000000000000000e+00,-1.000000000000000000e+00,-1.766967773437500000e-01,4.060058593750000000e-01,-1.026611328125000000e-01,8.906860351562500000e-01
-1.000000000000000000e+00,-3.000000000000000000e+00,-3.200000000000000000e+01,-7.300000000000000000e+01,-1.100000000000000000e+01,-3.000000000000000000e+00,0.000000000000000000e+00,-2.000000000000000000e+00,-1.766967773437500000e-01,4.060058593750000000e-01,-1.026611328125000000e-01,8.906860351562500000e-01
4.000000000000000000e+00,1.400000000000000000e+01,4.400000000000000000e+01,5.200000000000000000e+01,6.000000000000000000e+00,7.000000000000000000e+00,5.000000000000000000e+00,4.000000000000000000e+00,-1.766967773437500000e-01,4.060058593750000000e-01,-1.026611328125000000e-01,8.906860351562500000e-01
-2.000000000000000000e+00,-8.000000000000000000e+00,-5.000000000000000000e+01,-1.500000000000000000e+01,1.000000000000000000e+00,-7.000000000000000000e+00,-7.000000000000000000e+00,-2.000000000000000000e+00,-1.766967773437500000e-01,4.060058593750000000e-01,-1.026611328125000000e-01,8.906860351562500000e-01
-1.000000000000000000e+00,-3.000000000000000000e+00,1.000000000000000000e+01,1.100000000000000000e+01,-2.000000000000000000e+00,1.000000000000000000e+00,7.000000000000000000e+00,0.000000000000000000e+00,-1.759643554687500000e-01,4.063720703125000000e-01,-1.021118164062500000e-01,8.907470703125000000e-01
-3.000000000000000000e+00,0.000000000000000000e+00,-1.600000000000000000e+01,2.300000000000000000e+01,3.000000000000000000e+00,-2.000000000000000000e+00,-8.000000000000000000e+00,-1.000000000000000000e+00,-1.759643554687500000e-01,4.063720703125000000e-01,-1.021118164062500000e-01,8.907470703125000000e-01
-2.000000000000000000e+00,3.000000000000000000e+00,8.000000000000000000e+00,4.400000000000000000e+01,7.000000000000000000e+00,3.000000000000000000e+00,0.000000000000000000e+00,0.000000000000000000e+00,-1.759643554687500000e-01,4.063720703125000000e-01,-1.021118164062500000e-01,8.907470703125000000e-01
0.000000000000000000e+00,-6.000000000000000000e+00,2.400000000000000000e+01,-5.500000000000000000e+01,-1.800000000000000000e+01,0.000000000000000000e+00,6.000000000000000000e+00,-3.000000000000000000e+00,-1.759643554687500000e-01,4.063720703125000000e-01,-1.021118164062500000e-01,8.907470703125000000e-01
-1.000000000000000000e+00,1.000000000000000000e+00,-3.000000000000000000e+00,-2.300000000000000000e+01,-2.000000000000000000e+00,-3.000000000000000000e+00,-5.000000000000000000e+00,0.000000000000000000e+00,-1.755981445312500000e-01,4.065551757812500000e-01,-1.016235351562500000e-01,8.907470703125000000e-01
6.000000000000000000e+00,6.000000000000000000e+00,1.800000000000000000e+01,6.000000000000000000e+00,3.000000000000000000e+00,9.000000000000000000e+00,8.000000000000000000e+00,-1.000000000000000000e+00,-1.755981445312500000e-01,4.065551757812500000e-01,-1.016235351562500000e-01,8.907470703125000000e-01
-1.400000000000000000e+01,-8.000000000000000000e+00,-8.000000000000000000e+00,1.300000000000000000e+01,-1.000000000000000000e+00,-5.000000000000000000e+00,2.000000000000000000e+00,2.000000000000000000e+00,-1.755981445312500000e-01,4.065551757812500000e-01,-1.016235351562500000e-01,8.907470703125000000e-01
3.000000000000000000e+00,3.000000000000000000e+00,-3.700000000000000000e+01,2.100000000000000000e+01,4.000000000000000000e+00,4.000000000000000000e+00,-3.000000000000000000e+00,-3.000000000000000000e+00,-1.755981445312500000e-01,4.065551757812500000e-01,-1.016235351562500000e-01,8.907470703125000000e-01
-3.000000000000000000e+00,-2.000000000000000000e+00,-8.000000000000000000e+00,-5.200000000000000000e+01,-1.700000000000000000e+01,-6.000000000000000000e+00,-3.000000000000000000e+00,1.000000000000000000e+00,-1.749267578125000000e-01,4.064331054687500000e-01,-1.012573242187500000e-01,8.909912109375000000e-01
1.000000000000000000e+00,3.000000000000000000e+00,2.700000000000000000e+01,-9.000000000000000000e+00,-5.000000000000000000e+00,-1.100000000000000000e+01,-8.000000000000000000e+00,-1.000000000000000000e+00,-1.749267578125000000e-01,4.064331054687500000e-01,-1.012573242187500000e-01,8.909912109375000000e-01
-1.000000000000000000e+00,-4.000000000000000000e+00,-1.200000000000000000e+01,-1.600000000000000000e+01,1.000000000000000000e+00,2.000000000000000000e+00,-1.000000000000000000e+00,-2.000000000000000000e+00,-1.749267578125000000e-01,4.064331054687500000e-01,-1.012573242187500000e-01,8.909912109375000000e-01
-1.000000000000000000e+00,1.000000000000000000e+00,-1.000000000000000000e+00,4.600000000000000000e+01,7.000000000000000000e+00,-4.000000000000000000e+00,-6.000000000000000000e+00,1.000000000000000000e+00,-1.749267578125000000e-01,4.064331054687500000e-01,-1.012573242187500000e-01,8.909912109375000000e-01
-6.000000000000000000e+00,-1.600000000000000000e+01,5.000000000000000000e+00,4.200000000000000000e+01,6.000000000000000000e+00,-1.000000000000000000e+00,-1.000000000000000000e+00,-3.000000000000000000e+00,-1.752929687500000000e-01,4.066162109375000000e-01,-1.005859375000000000e-01,8.909301757812500000e-01
3.000000000000000000e+00,1.800000000000000000e+01,1.600000000000000000e+01,-1.700000000000000000e+01,-7.000000000000000000e+00,-3.000000000000000000e+00,-3.000000000000000000e+00,-2.000000000000000000e+00,-1.752929687500000000e-01,4.066162109375000000e-01,-1.005859375000000000e-01,8.909301757812500000e-01
5.000000000000000000e+00,4.000000000000000000e+00,8.000000000000000000e+00,-9.000000000000000000e+00,-3.000000000000000000e+00,3.000000000000000000e+00,2.000000000000000000e+00,-1.000000000000000000e+00,-1.752929687500000000e-01,4.066162109375000000e-01,-1.005859375000000000e-01,8.909301757812500000e-01
-2.000000000000000000e+00,0.000000000000000000e+00,2.500000000000000000e+01,1.500000000000000000e+01,1.000000000000000000e+00,-1.000000000000000000e+00,-1.000000000000000000e+00,0.000000000000000000e+00,-1.752929687500000000e-01,4.066162109375000000e-01,-1.005859375000000000e-01,8.909301757812500000e-01
-3.000000000000000000e+00,-4.000000000000000000e+00,-2.000000000000000000e+01,9.000000000000000000e+00,5.000000000000000000e+00,-1.000000000000000000e+00,-2.000000000000000000e+00,-3.000000000000000000e+00,-1.753540039062500000e-01,4.066772460937500000e-01,-1.006469726562500000e-01,8.908691406250000000e-01
-2.000000000000000000e+00,-7.000000000000000000e+00,-4.900000000000000000e+01,-1.900000000000000000e+01,-2.000000000000000000e+00,2.000000000000000000e+00,4.000000000000000000e+00,4.000000000000000000e+00,-1.753540039062500000e-01,4.066772460937500000e-01,-1.006469726562500000e-01,8.908691406250000000e-01
1.000000000000000000e+00,-2.000000000000000000e+00,-8.000000000000000000e+00,4.400000000000000000e+01,8.000000000000000000e+00,-1.000000000000000000e+00,-2.000000000000000000e+00,-4.000000000000000000e+00,-1.753540039062500000e-01,4.066772460937500000e-01,-1.006469726562500000e-01,8.908691406250000000e-01
-2.000000000000000000e+00,9.000000000000000000e+00,2.300000000000000000e+01,-4.500000000000000000e+01,-1.500000000000000000e+01,-1.000000000000000000e+01,-1.200000000000000000e+01,-1.000000000000000000e+00,-1.753540039062500000e-01,4.066772460937500000e-01,-1.006469726562500000e-01,8.908691406250000000e-01
-1.000000000000000000e+00,-1.000000000000000000e+00,-1.000000000000000000e+00,2.700000000000000000e+01,5.000000000000000000e+00,6.000000000000000000e+00,8.000000000000000000e+00,-4.000000000000000000e+00,-1.746826171875000000e-01,4.063110351562500000e-01,-1.011962890625000000e-01,8.911132812500000000e-01
1.000000000000000000e+00,2.000000000000000000e+00,9.000000000000000000e+00,4.000000000000000000e+01,3.000000000000000000e+00,0.000000000000000000e+00,-9.000000000000000000e+00,1.000000000000000000e+00,-1.746826171875000000e-01,4.063110351562500000e-01,-1.011962890625000000e-01,8.911132812500000000e-01
-7.000000000000000000e+00,-1.000000000000000000e+01,-1.900000000000000000e+01,-7.100000000000000000e+01,-1.400000000000000000e+01,-4.000000000000000000e+00,2.000000000000000000e+00,-8.000000000000000000e+00,-1.746826171875000000e-01,4.063110351562500000e-01,-1.011962890625000000e-01,8.911132812500000000e-01
1.000000000000000000e+00,-4.000000000000000000e+00,-2.100000000000000000e+01,1.100000000000000000e+01,3.000000000000000000e+00,-8.000000000000000000e+00,2.000000000000000000e+00,2.000000000000000000e+00,-1.746826171875000000e-01,4.063110351562500000e-01,-1.011962890625000000e-01,8.911132812500000000e-01
3.000000000000000000e+00,1.000000000000000000e+00,7.000000000000000000e+00,-3.000000000000000000e+00,-1.000000000000000000e+00,3.000000000000000000e+00,0.000000000000000000e+00,-1.000000000000000000e+00,-1.748046875000000000e-01,4.054565429687500000e-01,-1.013793945312500000e-01,8.914794921875000000e-01
-3.000000000000000000e+00,-2.000000000000000000e+00,4.000000000000000000e+00,-1.600000000000000000e+01,-4.000000000000000000e+00,-1.000000000000000000e+00,8.000000000000000000e+00,1.000000000000000000e+00,-1.748046875000000000e-01,4.054565429687500000e-01,-1.013793945312500000e-01,8.914794921875000000e-01
3.000000000000000000e+00,1.000000000000000000e+00,-4.000000000000000000e+00,1.100000000000000000e+01,2.000000000000000000e+00,-5.000000000000000000e+00,-1.400000000000000000e+01,0.000000000000000000e+00,-1.748046875000000000e-01,4.054565429687500000e-01,-1.013793945312500000e-01,8.914794921875000000e-01
-6.000000000000000000e+00,-2.000000000000000000e+00,1.800000000000000000e+01,1.700000000000000000e+01,-4.000000000000000000e+00,-8.000000000000000000e+00,-1.200000000000000000e+01,-4.000000000000000000e+00,-1.748046875000000000e-01,4.054565429687500000e-01,-1.013793945312500000e-01,8.914794921875000000e-01
3.000000000000000000e+00,5.000000000000000000e+00,-4.000000000000000000e+00,-1.600000000000000000e+01,2.000000000000000000e+00,2.100000000000000000e+01,2.200000000000000000e+01,4.000000000000000000e+00,-1.741943359375000000e-01,4.043579101562500000e-01,-1.017456054687500000e-01,8.920288085937500000e-01
0.000000000000000000e+00,2.000000000000000000e+00,2.400000000000000000e+01,1.000000000000000000e+01,0.000000000000000000e+00,-5.000000000000000000e+00,3.000000000000000000e+00,-1.000000000000000000e+00,-1.741943359375000000e-01,4.043579101562500000e-01,-1.017456054687500000e-01,8.920288085937500000e-01
3.000000000000000000e+00,2.000000000000000000e+00,6.000000000000000000e+00,1.800000000000000000e+01,3.000000000000000000e+00,6.000000000000000000e+00,0.000000000000000000e+00,2.000000000000000000e+00,-1.741943359375000000e-01,4.043579101562500000e-01,-1.017456054687500000e-01,8.920288085937500000e-01
-1.000000000000000000e+00,-3.000000000000000000e+00,1.100000000000000000e+01,-1.300000000000000000e+01,-5.000000000000000000e+00,2.000000000000000000e+00,3.000000000000000000e+00,-3.000000000000000000e+00,-1.741943359375000000e-01,4.043579101562500000e-01,-1.017456054687500000e-01,8.920288085937500000e-01
-1.000000000000000000e+00,9.000000000000000000e+00,-2.200000000000000000e+01,-2.700000000000000000e+01,-5.000000000000000000e+00,-1.100000000000000000e+01,-1.100000000000000000e+01,0.000000000000000000e+00,-1.736450195312500000e-01,4.037475585937500000e-01,-1.018676757812500000e-01,8.923950195312500000e-01
-5.000000000000000000e+00,-1.100000000000000000e+01,-1.000000000000000000e+01,5.400000000000000000e+01,1.200000000000000000e+01,3.000000000000000000e+00,-2.000000000000000000e+00,-3.000000000000000000e+00,-1.736450195312500000e-01,4.037475585937500000e-01,-1.018676757812500000e-01,8.923950195312500000e-01
2.000000000000000000e+00,3.000000000000000000e+00,1.900000000000000000e+01,4.200000000000000000e+01,-6.000000000000000000e+00,-6.000000000000000000e+00,0.000000000000000000e+00,-1.000000000000000000e+00,-1.736450195312500000e-01,4.037475585937500000e-01,-1.018676757812500000e-01,8.923950195312500000e-01
-4.000000000000000000e+00,-1.100000000000000000e+01,-2.900000000000000000e+01,-4.800000000000000000e+01,-4.000000000000000000e+00,1.000000000000000000e+00,4.000000000000000000e+00,-1.000000000000000000e+00,-1.736450195312500000e-01,4.037475585937500000e-01,-1.018676757812500000e-01,8.923950195312500000e-01
-1.000000000000000000e+00,0.000000000000000000e+00,1.100000000000000000e+01,-3.700000000000000000e+01,-7.000000000000000000e+00,-2.000000000000000000e+00,-2.000000000000000000e+00,-2.000000000000000000e+00,-1.731567382812500000e-01,4.037475585937500000e-01,-1.019287109375000000e-01,8.924560546875000000e-01
-3.000000000000000000e+00,0.000000000000000000e+00,2.200000000000000000e+01,-3.300000000000000000e+01,-9.000000000000000000e+00,0.000000000000000000e+00,-2.000000000000000000e+00,-2.000000000000000000e+00,-1.731567382812500000e-01,4.037475585937500000e-01,-1.019287109375000000e-01,8.924560546875000000e-01
-4.000000000000000000e+00,-9.000000000000000000e+00,-2.600000000000000000e+01,-5.000000000000000000e+00,3.000000000000000000e+00,-1.000000000000000000e+00,0.000000000000000000e+00,0.000000000000000000e+00,-1.731567382812500000e-01,4.037475585937500000e-01,-1.019287109375000000e-01,8.924560546875000000e-01
-1.000000000000000000e+00,-4.000000000000000000e+00,3.000000000000000000e+00,1.300000000000000000e+01,4.000000000000000000e+00,3.000000000000000000e+00,0.000000000000000000e+00,-1.000000000000000000e+00,-1.731567382812500000e-01,4.037475585937500000e-01,-1.019287109375000000e-01,8.924560546875000000e-01
-3.000000000000000000e+00,-3.000000000000000000e+00,-1.200000000000000000e+01,2.500000000000000000e+01,-2.000000000000000000e+00,-1.500000000000000000e+01,-1.100000000000000000e+01,-1.000000000000000000e+00,-1.729736328125000000e-01,4.039916992187500000e-01,-1.019897460937500000e-01,8.923950195312500000e-01
-1.000000000000000000e+00,2.000000000000000000e+00,1.400000000000000000e+01,-1.600000000000000000e+01,-6.000000000000000000e+00,1.100000000000000000e+01,1.700000000000000000e+01,0.000000000000000000e+00,-1.729736328125000000e-01,4.039916992187500000e-01,-1.019897460937500000e-01,8.923950195312500000e-01
1.000000000000000000e+00,2.000000000000000000e+00,-1.600000000000000000e+01,-2.400000000000000000e+01,0.000000000000000000e+00,1.000000000000000000e+01,0.000000000000000000e+00,-1.000000000000000000e+00,-1.729736328125000000e-01,4.039916992187500000e-01,-1.019897460937500000e-01,8.923950195312500000e-01
-5.000000000000000000e+00,-2.000000000000000000e+00,-7.000000000000000000e+00,1.500000000000000000e+01,4.000000000000000000e+00,7.000000000000000000e+00,8.000000000000000000e+00,2.000000000000000000e+00,-1.729736328125000000e-01,4.039916992187500000e-01,-1.019897460937500000e-01,8.923950195312500000e-01
7.000000000000000000e+00,-7.000000000000000000e+00,-8.000000000000000000e+00,3.900000000000000000e+01,1.300000000000000000e+01,1.000000000000000000e+00,0.000000000000000000e+00,0.000000000000000000e+00,-1.732788085937500000e-01,4.040527343750000000e-01,-1.021118164062500000e-01,8.923339843750000000e-01
1.000000000000000000e+00,8.000000000000000000e+00,3.200000000000000000e+01,-5.300000000000000000e+01,-1.800000000000000000e+01,-1.400000000000000000e+01,-1.500000000000000000e+01,2.000000000000000000e+00,-1.732788085937500000e-01,4.040527343750000000e-01,-1.021118164062500000e-01,8.923339843750000000e-01
3.000000000000000000e+00,0.000000000000000000e+00,1.000000000000000000e+00,1.500000000000000000e+01,2.000000000000000000e+00,0.000000000000000000e+00,1.000000000000000000e+01,1.000000000000000000e+00,-1.732788085937500000e-01,4.040527343750000000e-01,-1.021118164062500000e-01,8.923339843750000000e-01
-4.000000000000000000e+00,1.000000000000000000e+00,9.000000000000000000e+00,-1.100000000000000000e+01,-1.000000000000000000e+00,2.000000000000000000e+00,-5.000000000000000000e+00,-1.000000000000000000e+00,-1.732788085937500000e-01,4.040527343750000000e-01,-1.021118164062500000e-01,8.923339843750000000e-01
-4.000000000000000000e+00,-1.000000000000000000e+00,-2.900000000000000000e+01,0.000000000000000000e+00,2.000000000000000000e+00,-5.000000000000000000e+00,-6.000000000000000000e+00,-3.000000000000000000e+00,-1.735839843750000000e-01,4.041748046875000000e-01,-1.024169921875000000e-01,8.921508789062500000e-01
-1.000000000000000000e+00,-2.000000000000000000e+00,-2.000000000000000000e+01,1.500000000000000000e+01,-2.000000000000000000e+00,-7.000000000000000000e+00,-1.000000000000000000e+01,-3.000000000000000000e+00,-1.735839843750000000e-01,4.041748046875000000e-01,-1.024169921875000000e-01,8.921508789062500000e-01
0.000000000000000000e+00,2.000000000000000000e+00,8.000000000000000000e+00,-1.700000000000000000e+01,-5.000000000000000000e+00,1.000000000000000000e+00,0.000000000000000000e+00,-1.000000000000000000e+00,-1.735839843750000000e-01,4.041748046875000000e-01,-1.024169921875000000e-01,8.921508789062500000e-01
2.000000000000000000e+00,-3.000000000000000000e+00,-1.100000000000000000e+01,1.100000000000000000e+01,0.000000000000000000e+00,0.000000000000000000e+00,-2.000000000000000000e+00,-2.000000000000000000e+00,-1.735839843750000000e-01,4.041748046875000000e-01,-1.024169921875000000e-01,8.921508789062500000e-01
-3.000000000000000000e+00,-7.000000000000000000e+00,2.100000000000000000e+01,2.200000000000000000e+01,-3.000000000000000000e+00,-1.000000000000000000e+00,-1.000000000000000000e+00,-2.000000000000000000e+00,-1.735229492187500000e-01,4.044799804687500000e-01,-1.027221679687500000e-01,8.920288085937500000e-01
-2.000000000000000000e+00,-1.000000000000000000e+00,5.000000000000000000e+00,-2.700000000000000000e+01,-6.000000000000000000e+00,0.000000000000000000e+00,-1.000000000000000000e+00,0.000000000000000000e+00,-1.735229492187500000e-01,4.044799804687500000e-01,-1.027221679687500000e-01,8.920288085937500000e-01
4.000000000000000000e+00,6.000000000000000000e+00,3.000000000000000000e+01,1.200000000000000000e+01,-2.000000000000000000e+00,-1.000000000000000000e+01,-6.000000000000000000e+00,1.000000000000000000e+00,-1.735229492187500000e-01,4.044799804687500000e-01,-1.027221679687500000e-01,8.920288085937500000e-01
-2.000000000000000000e+00,-1.000000000000000000e+01,-5.100000000000000000e+01,-3.500000000000000000e+01,4.000000000000000000e+00,2.000000000000000000e+00,3.000000000000000000e+00,-1.000000000000000000e+00,-1.735229492187500000e-01,4.044799804687500000e-01,-1.027221679687500000e-01,8.920288085937500000e-01
4.000000000000000000e+00,9.000000000000000000e+00,4.000000000000000000e+01,1.600000000000000000e+01,-4.000000000000000000e+00,2.000000000000000000e+00,2.000000000000000000e+00,2.000000000000000000e+00,-1.733398437500000000e-01,4.047851562500000000e-01,-1.029052734375000000e-01,8.918457031250000000e-01
-4.000000000000000000e+00,-1.100000000000000000e+01,-1.600000000000000000e+01,2.900000000000000000e+01,1.100000000000000000e+01,-1.000000000000000000e+00,-3.000000000000000000e+00,-2.000000000000000000e+00,-1.733398437500000000e-01,4.047851562500000000e-01,-1.029052734375000000e-01,8.918457031250000000e-01
-1.000000000000000000e+00,-3.000000000000000000e+00,9.000000000000000000e+00,-4.400000000000000000e+01,-1.400000000000000000e+01,-1.000000000000000000e+01,-4.000000000000000000e+00,-2.000000000000000000e+00,-1.733398437500000000e-01,4.047851562500000000e-01,-1.029052734375000000e-01,8.918457031250000000e-01
3.000000000000000000e+00,4.000000000000000000e+00,1.300000000000000000e+01,2.300000000000000000e+01,1.000000000000000000e+00,-7.000000000000000000e+00,-9.000000000000000000e+00,1.000000000000000000e+00,-1.733398437500000000e-01,4.047851562500000000e-01,-1.029052734375000000e-01,8.918457031250000000e-01
-3.000000000000000000e+00,-1.000000000000000000e+00,-1.200000000000000000e+01,-4.000000000000000000e+00,1.000000000000000000e+00,7.000000000000000000e+00,6.000000000000000000e+00,-2.000000000000000000e+00,-1.729125976562500000e-01,4.049682617187500000e-01,-1.031494140625000000e-01,8.918457031250000000e-01
0.000000000000000000e+00,0.000000000000000000e+00,-1.900000000000000000e+01,-1.700000000000000000e+01,4.000000000000000000e+00,5.000000000000000000e+00,0.000000000000000000e+00,2.000000000000000000e+00,-1.729125976562500000e-01,4.049682617187500000e-01,-1.031494140625000000e-01,8.918457031250000000e-01
-5.000000000000000000e+00,-3.000000000000000000e+00,0.000000000000000000e+00,3.400000000000000000e+01,0.000000000000000000e+00,-6.000000000000000000e+00,1.000000000000000000e+00,-3.000000000000000000e+00,-1.729125976562500000e-01,4.049682617187500000e-01,-1.031494140625000000e-01,8.918457031250000000e-01
2.000000000000000000e+00,6.000000000000000000e+00,2.700000000000000000e+01,1.900000000000000000e+01,0.000000000000000000e+00,2.000000000000000000e+00,8.000000000000000000e+00,1.000000000000000000e+00,-1.729125976562500000e-01,4.049682617187500000e-01,-1.031494140625000000e-01,8.918457031250000000e-01
-4.000000000000000000e+00,-6.000000000000000000e+00,0.000000000000000000e+00,9.000000000000000000e+00,4.000000000000000000e+00,9.000000000000000000e+00,5.000000000000000000e+00,0.000000000000000000e+00,-1.728515625000000000e-01,4.050292968750000000e-01,-1.031494140625000000e-01,8.918457031250000000e-01
0.000000000000000000e+00,-1.000000000000000000e+00,3.000000000000000000e+00,-1.700000000000000000e+01,-6.000000000000000000e+00,-5.000000000000000000e+00,-1.200000000000000000e+01,-2.000000000000000000e+00,-1.728515625000000000e-01,4.050292968750000000e-01,-1.031494140625000000e-01,8.918457031250000000e-01
0.000000000000000000e+00,4.000000000000000000e+00,-1.200000000000000000e+01,2.000000000000000000e+00,4.000000000000000000e+00,-1.000000000000000000e+00,4.000000000000000000e+00,0.000000000000000000e+00,-1.728515625000000000e-01,4.050292968750000000e-01,-1.031494140625000000e-01,8.918457031250000000e-01
-1.000000000000000000e+00,-6.000000000000000000e+00,-2.700000000000000000e+01,5.100000000000000000e+01,-3.000000000000000000e+00,-6.000000000000000000e+00,-5.000000000000000000e+00,-3.000000000000000000e+00,-1.728515625000000000e-01,4.050292968750000000e-01,-1.031494140625000000e-01,8.918457031250000000e-01
-2.000000000000000000e+00,0.000000000000000000e+00,2.200000000000000000e+01,-4.000000000000000000e+00,1.000000000000000000e+00,-6.000000000000000000e+00,-2.000000000000000000e+00,0.000000000000000000e+00,-1.731567382812500000e-01,4.053344726562500000e-01,-1.026611328125000000e-01,8.916625976562500000e-01
1.000000000000000000e+00,-3.000000000000000000e+00,6.000000000000000000e+00,2.400000000000000000e+01,-3.000000000000000000e+00,-2.000000000000000000e+00,-3.000000000000000000e+00,-2.000000000000000000e+00,-1.731567382812500000e-01,4.053344726562500000e-01,-1.026611328125000000e-01,8.916625976562500000e-01
2.000000000000000000e+00,5.000000000000000000e+00,1.000000000000000000e+01,4.900000000000000000e+01,1.500000000000000000e+01,8.000000000000000000e+00,2.000000000000000000e+00,0.000000000000000000e+00,-1.738891601562500000e-01,4.059448242187500000e-01,-1.024169921875000000e-01,8.912963867187500000e-01
0.000000000000000000e+00,-2.000000000000000000e+00,1.600000000000000000e+01,-2.300000000000000000e+01,-1.100000000000000000e+01,-3.000000000000000000e+00,-3.000000000000000000e+00,-4.000000000000000000e+00,-1.738891601562500000e-01,4.059448242187500000e-01,-1.024169921875000000e-01,8.912963867187500000e-01
0.000000000000000000e+00,0.000000000000000000e+00,-3.500000000000000000e+01,-7.700000000000000000e+01,-1.500000000000000000e+01,-5.000000000000000000e+00,0.000000000000000000e+00,2.000000000000000000e+00,-1.738891601562500000e-01,4.059448242187500000e-01,-1.024169921875000000e-01,8.912963867187500000e-01
-3.000000000000000000e+00,-7.000000000000000000e+00,-1.500000000000000000e+01,1.400000000000000000e+01,1.000000000000000000e+00,-6.000000000000000000e+00,-9.000000000000000000e+00,-2.000000000000000000e+00,-1.738891601562500000e-01,4.059448242187500000e-01,-1.024169921875000000e-01,8.912963867187500000e-01
-4.000000000000000000e+00,-1.000000000000000000e+00,-1.800000000000000000e+01,-4.500000000000000000e+01,-8.000000000000000000e+00,-2.000000000000000000e+00,-5.000000000000000000e+00,-2.000000000000000000e+00,-1.743774414062500000e-01,4.066772460937500000e-01,-1.024169921875000000e-01,8.908691406250000000e-01
1.000000000000000000e+00,-5.000000000000000000e+00,-2.000000000000000000e+00,3.300000000000000000e+01,1.000000000000000000e+01,-2.000000000000000000e+00,-3.000000000000000000e+00,-3.000000000000000000e+00,-1.743774414062500000e-01,4.066772460937500000e-01,-1.024169921875000000e-01,8.908691406250000000e-01
-1.000000000000000000e+00,5.000000000000000000e+00,2.300000000000000000e+01,3.700000000000000000e+01,7.000000000000000000e+00,1.300000000000000000e+01,1.600000000000000000e+01,2.000000000000000000e+00,-1.743774414062500000e-01,4.066772460937500000e-01,-1.024169921875000000e-01,8.908691406250000000e-01
5.000000000000000000e+00,7.000000000000000000e+00,1.200000000000000000e+01,-3.800000000000000000e+01,-8.000000000000000000e+00,1.000000000000000000e+00,0.000000000000000000e+00,4.000000000000000000e+00,-1.743774414062500000e-01,4.066772460937500000e-01,-1.024169921875000000e-01,8.908691406250000000e-01
3.000000000000000000e+00,-1.000000000000000000e+00,7.000000000000000000e+00,2.000000000000000000e+00,2.000000000000000000e+00,-3.000000000000000000e+00,7.000000000000000000e+00,1.000000000000000000e+00,-1.745605468750000000e-01,4.071655273437500000e-01,-1.026611328125000000e-01,8.906250000000000000e-01
-3.000000000000000000e+00,-6.000000000000000000e+00,0.000000000000000000e+00,3.100000000000000000e+01,5.000000000000000000e+00,-6.000000000000000000e+00,-1.200000000000000000e+01,-2.000000000000000000e+00,-1.745605468750000000e-01,4.071655273437500000e-01,-1.026611328125000000e-01,8.906250000000000000e-01
5.000000000000000000e+00,-6.000000000000000000e+00,-1.200000000000000000e+01,-7.400000000000000000e+01,-1.000000000000000000e+01,0.000000000000000000e+00,0.000000000000000000e+00,-1.000000000000000000e+00,-1.745605468750000000e-01,4.071655273437500000e-01,-1.026611328125000000e-01,8.906250000000000000e-01
-8.000000000000000000e+00,-1.000000000000000000e+00,1.200000000000000000e+01,1.700000000000000000e+01,0.000000000000000000e+00,0.000000000000000000e+00,2.000000000000000000e+00,-1.000000000000000000e+00,-1.745605468750000000e-01,4.071655273437500000e-01,-1.026611328125000000e-01,8.906250000000000000e-01
-1.000000000000000000e+00,0.000000000000000000e+00,1.000000000000000000e+01,1.000000000000000000e+01,8.000000000000000000e+00,1.000000000000000000e+01,2.000000000000000000e+00,1.000000000000000000e+00,-1.749267578125000000e-01,4.071655273437500000e-01,-1.029663085937500000e-01,8.904418945312500000e-01
2.000000000000000000e+00,3.000000000000000000e+00,-1.500000000000000000e+01,-6.000000000000000000e+00,-1.000000000000000000e+00,-2.000000000000000000e+00,-4.000000000000000000e+00,0.000000000000000000e+00,-1.749267578125000000e-01,4.071655273437500000e-01,-1.029663085937500000e-01,8.904418945312500000e-01
-1.000000000000000000e+00,1.000000000000000000e+00,2.600000000000000000e+01,-1.700000000000000000e+01,-1.000000000000000000e+01,-6.000000000000000000e+00,-5.000000000000000000e+00,-4.000000000000000000e+00,-1.749267578125000000e-01,4.071655273437500000e-01,-1.029663085937500000e-01,8.904418945312500000e-01
1.000000000000000000e+00,-2.000000000000000000e+00,-2.100000000000000000e+01,-4.700000000000000000e+01,-2.000000000000000000e+00,2.000000000000000000e+00,6.000000000000000000e+00,-1.000000000000000000e+00,-1.749267578125000000e-01,4.071655273437500000e-01,-1.029663085937500000e-01,8.904418945312500000e-01
2.000000000000000000e+00,-1.000000000000000000e+00,3.000000000000000000e+00,-6.000000000000000000e+00,-8.000000000000000000e+00,-3.000000000000000000e+00,-5.000000000000000000e+00,0.000000000000000000e+00,-1.754760742187500000e-01,4.072265625000000000e-01,-1.027832031250000000e-01,8.903808593750000000e-01
-2.000000000000000000e+00,3.000000000000000000e+00,-3.000000000000000000e+00,-2.300000000000000000e+01,2.000000000000000000e+00,2.000000000000000000e+00,7.000000000000000000e+00,1.000000000000000000e+00,-1.754760742187500000e-01,4.072265625000000000e-01,-1.027832031250000000e-01,8.903808593750000000e-01
-8.000000000000000000e+00,-1.000000000000000000e+01,-1.100000000000000000e+01,4.000000000000000000e+01,8.000000000000000000e+00,-1.000000000000000000e+01,-1.100000000000000000e+01,-5.000000000000000000e+00,-1.754760742187500000e-01,4.072265625000000000e-01,-1.027832031250000000e-01,8.903808593750000000e-01
5.000000000000000000e+00,5.000000000000000000e+00,8.000000000000000000e+00,-6.100000000000000000e+01,-2.000000000000000000e+01,-1.000000000000000000e+00,2.000000000000000000e+00,3.000000000000000000e+00,-1.754760742187500000e-01,4.072265625000000000e-01,-1.027832031250000000e-01,8.903808593750000000e-01
-5.000000000000000000e+00,-3.000000000000000000e+00,-3.000000000000000000e+01,-7.100000000000000000e+01,-1.100000000000000000e+01,-3.000000000000000000e+00,-3.000000000000000000e+00,-2.000000000000000000e+00,-1.762695312500000000e-01,4.074707031250000000e-01,-1.023559570312500000e-01,8.901367187500000000e-01
-2.000000000000000000e+00,-2.000000000000000000e+00,2.700000000000000000e+01,4.600000000000000000e+01,-8.000000000000000000e+00,-3.000000000000000000e+00,-2.000000000000000000e+00,-4.000000000000000000e+00,-1.762695312500000000e-01,4.074707031250000000e-01,-1.023559570312500000e-01,8.901367187500000000e-01
-4.000000000000000000e+00,-4.000000000000000000e+00,6.000000000000000000e+00,7.000000000000000000e+00,1.100000000000000000e+01,0.000000000000000000e+00,-2.000000000000000000e+00,-2.000000000000000000e+00,-1.762695312500000000e-01,4.074707031250000000e-01,-1.023559570312500000e-01,8.901367187500000000e-01
-3.000000000000000000e+00,0.000000000000000000e+00,-3.100000000000000000e+01,3.300000000000000000e+01,0.000000000000000000e+00,-2.000000000000000000e+00,-1.000000000000000000e+00,-3.000000000000000000e+00,-1.762695312500000000e-01,4.074707031250000000e-01,-1.023559570312500000e-01,8.901367187500000000e-01
2.000000000000000000e+00,-2.000000000000000000e+00,2.000000000000000000e+00,2.300000000000000000e+01,1.100000000000000000e+01,1.000000000000000000e+00,-4.000000000000000000e+00,-1.000000000000000000e+00,-1.767578125000000000e-01,4.071655273437500000e-01,-1.023559570312500000e-01,8.901977539062500000e-01
1.000000000000000000e+00,4.000000000000000000e+00,6.000000000000000000e+00,-6.000000000000000000e+00,-1.200000000000000000e+01,-2.000000000000000000e+00,6.000000000000000000e+00,2.000000000000000000e+00,-1.767578125000000000e-01,4.071655273437500000e-01,-1.023559570312500000e-01,8.901977539062500000e-01
-1.000000000000000000e+00,-1.000000000000000000e+00,0.000000000000000000e+00,4.000000000000000000e+00,-8.000000000000000000e+00,-9.000000000000000000e+00,-1.300000000000000000e+01,-5.000000000000000000e+00,-1.767578125000000000e-01,4.071655273437500000e-01,-1.023559570312500000e-01,8.901977539062500000e-01
-2.000000000000000000e+00,-8.000000000000000000e+00,-1.800000000000000000e+01,-7.000000000000000000e+00,5.000000000000000000e+00,-9.000000000000000000e+00,-6.000000000000000000e+00,-3.000000000000000000e+00,-1.767578125000000000e-01,4.071655273437500000e-01,-1.023559570312500000e-01,8.901977539062500000e-01
0.000000000000000000e+00,-4.000000000000000000e+00,4.000000000000000000e+00,-4.800000000000000000e+01,-1.100000000000000000e+01,2.000000000000000000e+00,2.000000000000000000e+00,-3.000000000000000000e+00,-1.768798828125000000e-01,4.065551757812500000e-01,-1.021728515625000000e-01,8.904418945312500000e-01
-4.000000000000000000e+00,2.000000000000000000e+00,2.000000000000000000e+00,-2.100000000000000000e+01,1.000000000000000000e+00,1.500000000000000000e+01,1.200000000000000000e+01,2.000000000000000000e+00,-1.768798828125000000e-01,4.065551757812500000e-01,-1.021728515625000000e-01,8.904418945312500000e-01
7.000000000000000000e+00,0.000000000000000000e+00,-1.300000000000000000e+01,2.100000000000000000e+01,3.000000000000000000e+00,0.000000000000000000e+00,6.000000000000000000e+00,2.000000000000000000e+00,-1.768798828125000000e-01,4.065551757812500000e-01,-1.021728515625000000e-01,8.904418945312500000e-01
0.000000000000000000e+00,0.000000000000000000e+00,1.200000000000000000e+01,1.300000000000000000e+01,2.000000000000000000e+00,-1.000000000000000000e+00,-4.000000000000000000e+00,-3.000000000000000000e+00,-1.768798828125000000e-01,4.065551757812500000e-01,-1.021728515625000000e-01,8.904418945312500000e-01
-1.000000000000000000e+00,-1.000000000000000000e+00,-1.000000000000000000e+01,2.500000000000000000e+01,-6.000000000000000000e+00,-7.000000000000000000e+00,-6.000000000000000000e+00,2.000000000000000000e+00,-1.770629882812500000e-01,4.060058593750000000e-01,-1.015014648437500000e-01,8.907470703125000000e-01
-2.000000000000000000e+00,-1.000000000000000000e+00,-1.000000000000000000e+00,-5.700000000000000000e+01,-1.000000000000000000e+00,-4.000000000000000000e+00,-6.000000000000000000e+00,-2.000000000000000000e+00,-1.770629882812500000e-01,4.060058593750000000e-01,-1.015014648437500000e-01,8.907470703125000000e-01
-2.000000000000000000e+00,1.000000000000000000e+00,1.100000000000000000e+01,1.900000000000000000e+01,-2.000000000000000000e+00,-1.000000000000000000e+00,-2.000000000000000000e+00,1.000000000000000000e+00,-1.770629882812500000e-01,4.060058593750000000e-01,-1.015014648437500000e-01,8.907470703125000000e-01
-6.000000000000000000e+00,-8.000000000000000000e+00,-1.500000000000000000e+01,1.000000000000000000e+01,2.000000000000000000e+00,-5.000000000000000000e+00,-3.000000000000000000e+00,-4.000000000000000000e+00,-1.770629882812500000e-01,4.060058593750000000e-01,-1.015014648437500000e-01,8.907470703125000000e-01
-2.000000000000000000e+00,2.000000000000000000e+00,1.800000000000000000e+01,7.500000000000000000e+01,2.300000000000000000e+01,3.000000000000000000e+00,-3.000000000000000000e+00,-3.000000000000000000e+00,-1.779174804687500000e-01,4.058227539062500000e-01,-1.005859375000000000e-01,8.907470703125000000e-01
3.000000000000000000e+00,-6.000000000000000000e+00,1.000000000000000000e+00,-9.400000000000000000e+01,-2.000000000000000000e+01,0.000000000000000000e+00,3.000000000000000000e+00,2.000000000000000000e+00,-1.779174804687500000e-01,4.058227539062500000e-01,-1.005859375000000000e-01,8.907470703125000000e-01
2.000000000000000000e+00,1.800000000000000000e+01,5.600000000000000000e+01,5.800000000000000000e+01,-2.000000000000000000e+00,1.000000000000000000e+00,-1.000000000000000000e+00,2.000000000000000000e+00,-1.779174804687500000e-01,4.058227539062500000e-01,-1.005859375000000000e-01,8.907470703125000000e-01
-4.000000000000000000e+00,-9.000000000000000000e+00,-1.200000000000000000e+01,2.900000000000000000e+01,8.000000000000000000e+00,3.000000000000000000e+00,3.000000000000000000e+00,-1.000000000000000000e+00,-1.779174804687500000e-01,4.058227539062500000e-01,-1.005859375000000000e-01,8.907470703125000000e-01
-4.000000000000000000e+00,1.000000000000000000e+00,1.400000000000000000e+01,4.000000000000000000e+00,-6.000000000000000000e+00,-4.000000000000000000e+00,-3.000000000000000000e+00,-2.000000000000000000e+00,-1.785278320312500000e-01,4.056396484375000000e-01,-9.985351562500000000e-02,8.908081054687500000e-01
0.000000000000000000e+00,-2.000000000000000000e+00,-2.700000000000000000e+01,-4.000000000000000000e+00,8.000000000000000000e+00,3.000000000000000000e+00,1.000000000000000000e+00,1.000000000000000000e+00,-1.785278320312500000e-01,4.056396484375000000e-01,-9.985351562500000000e-02,8.908081054687500000e-01
-4.000000000000000000e+00,-1.000000000000000000e+01,-3.800000000000000000e+01,-7.200000000000000000e+01,-1.600000000000000000e+01,-1.000000000000000000e+01,-7.000000000000000000e+00,-5.000000000000000000e+00,-1.785278320312500000e-01,4.056396484375000000e-01,-9.985351562500000000e-02,8.908081054687500000e-01
4.000000000000000000e+00,1.000000000000000000e+01,2.300000000000000000e+01,4.000000000000000000e+00,-5.000000000000000000e+00,2.000000000000000000e+00,3.000000000000000000e+00,3.000000000000000000e+00,-1.785278320312500000e-01,4.056396484375000000e-01,-9.985351562500000000e-02,8.908081054687500000e-01
-3.000000000000000000e+00,-7.000000000000000000e+00,-2.300000000000000000e+01,-1.000000000000000000e+01,1.000000000000000000e+00,1.000000000000000000e+00,-2.000000000000000000e+00,-3.000000000000000000e+00,-1.785278320312500000e-01,4.048461914062500000e-01,-9.948730468750000000e-02,8.912353515625000000e-01
3.000000000000000000e+00,1.000000000000000000e+01,1.300000000000000000e+01,5.400000000000000000e+01,9.000000000000000000e+00,-2.000000000000000000e+00,-1.000000000000000000e+00,-3.000000000000000000e+00,-1.785278320312500000e-01,4.048461914062500000e-01,-9.948730468750000000e-02,8.912353515625000000e-01
-7.000000000000000000e+00,-1.000000000000000000e+01,-3.300000000000000000e+01,1.200000000000000000e+01,2.000000000000000000e+00,-2.000000000000000000e+00,-6.000000000000000000e+00,-2.000000000000000000e+00,-1.785278320312500000e-01,4.048461914062500000e-01,-9.948730468750000000e-02,8.912353515625000000e-01
-3.000000000000000000e+00,-3.000000000000000000e+00,5.000000000000000000e+00,2.400000000000000000e+01,7.000000000000000000e+00,0.000000000000000000e+00,0.000000000000000000e+00,-2.000000000000000000e+00,-1.785278320312500000e-01,4.048461914062500000e-01,-9.948730468750000000e-02,8.912353515625000000e-01
0.000000000000000000e+00,-6.000000000000000000e+00,-2.400000000000000000e+01,-4.000000000000000000e+01,-2.000000000000000000e+00,-1.000000000000000000e+00,1.000000000000000000e+00,0.000000000000000000e+00,-1.781005859375000000e-01,4.036254882812500000e-01,-9.875488281250000000e-02,8.919067382812500000e-01
4.000000000000000000e+00,7.000000000000000000e+00,1.700000000000000000e+01,8.000000000000000000e+00,1.100000000000000000e+01,0.000000000000000000e+00,1.000000000000000000e+00,3.000000000000000000e+00,-1.781005859375000000e-01,4.036254882812500000e-01,-9.875488281250000000e-02,8.919067382812500000e-01
2.000000000000000000e+00,9.000000000000000000e+00,4.600000000000000000e+01,-1.700000000000000000e+01,-3.000000000000000000e+00,4.000000000000000000e+00,4.000000000000000000e+00,0.000000000000000000e+00,-1.781005859375000000e-01,4.036254882812500000e-01,-9.875488281250000000e-02,8.919067382812500000e-01
-1.000000000000000000e+00,0.000000000000000000e+00,-8.000000000000000000e+00,-2.000000000000000000e+01,-8.000000000000000000e+00,2.000000000000000000e+00,1.000000000000000000e+00,3.000000000000000000e+00,-1.781005859375000000e-01,4.036254882812500000e-01,-9.875488281250000000e-02,8.919067382812500000e-01
-2.000000000000000000e+00,-4.000000000000000000e+00,-2.300000000000000000e+01,2.500000000000000000e+01,8.000000000000000000e+00,-2.000000000000000000e+00,-5.000000000000000000e+00,-2.000000000000000000e+00,-1.776123046875000000e-01,4.028930664062500000e-01,-9.753417968750000000e-02,8.925170898437500000e-01
-4.000000000000000000e+00,-3.000000000000000000e+00,1.000000000000000000e+01,3.100000000000000000e+01,2.000000000000000000e+00,-5.000000000000000000e+00,-5.000000000000000000e+00,-5.000000000000000000e+00,-1.776123046875000000e-01,4.028930664062500000e-01,-9.753417968750000000e-02,8.925170898437500000e-01
3.000000000000000000e+00,7.000000000000000000e+00,1.500000000000000000e+01,-5.300000000000000000e+01,-1.100000000000000000e+01,0.000000000000000000e+00,2.000000000000000000e+00,2.000000000000000000e+00,-1.776123046875000000e-01,4.028930664062500000e-01,-9.753417968750000000e-02,8.925170898437500000e-01
-2.000000000000000000e+00,-5.000000000000000000e+00,1.400000000000000000e+01,3.100000000000000000e+01,1.200000000000000000e+01,2.000000000000000000e+00,0.000000000000000000e+00,-2.000000000000000000e+00,-1.776123046875000000e-01,4.028930664062500000e-01,-9.753417968750000000e-02,8.925170898437500000e-01
0.000000000000000000e+00,-3.000000000000000000e+00,7.000000000000000000e+00,-8.100000000000000000e+01,-2.800000000000000000e+01,-7.000000000000000000e+00,-1.000000000000000000e+00,-1.000000000000000000e+00,-1.774902343750000000e-01,4.024047851562500000e-01,-9.619140625000000000e-02,8.928833007812500000e-01
-7.000000000000000000e+00,-2.000000000000000000e+00,-2.000000000000000000e+00,-4.000000000000000000e+00,-4.000000000000000000e+00,-4.000000000000000000e+00,-5.000000000000000000e+00,-1.000000000000000000e+00,-1.774902343750000000e-01,4.024047851562500000e-01,-9.619140625000000000e-02,8.928833007812500000e-01
3.000000000000000000e+00,1.000000000000000000e+00,-2.400000000000000000e+01,-3.000000000000000000e+01,-5.000000000000000000e+00,-3.000000000000000000e+00,-2.000000000000000000e+00,-1.000000000000000000e+00,-1.774902343750000000e-01,4.024047851562500000e-01,-9.619140625000000000e-02,8.928833007812500000e-01
-1.000000000000000000e+00,-3.000000000000000000e+00,-4.000000000000000000e+00,2.000000000000000000e+01,0.000000000000000000e+00,-1.000000000000000000e+00,-2.000000000000000000e+00,-4.000000000000000000e+00,-1.774902343750000000e-01,4.024047851562500000e-01,-9.619140625000000000e-02,8.928833007812500000e-01
-3.000000000000000000e+00,-6.000000000000000000e+00,4.000000000000000000e+00,5.000000000000000000e+00,3.000000000000000000e+00,0.000000000000000000e+00,-1.000000000000000000e+00,1.000000000000000000e+00,-1.769409179687500000e-01,4.020385742187500000e-01,-9.527587890625000000e-02,8.932495117187500000e-01
1.000000000000000000e+00,2.000000000000000000e+00,6.000000000000000000e+00,-1.600000000000000000e+01,-3.000000000000000000e+00,-2.000000000000000000e+00,-3.000000000000000000e+00,-1.000000000000000000e+00,-1.769409179687500000e-01,4.020385742187500000e-01,-9.527587890625000000e-02,8.932495117187500000e-01
-1.000000000000000000e+00,-5.000000000000000000e+00,-9.000000000000000000e+00,-7.000000000000000000e+00,-1.000000000000000000e+00,-5.000000000000000000e+00,-6.000000000000000000e+00,1.000000000000000000e+00,-1.769409179687500000e-01,4.020385742187500000e-01,-9.527587890625000000e-02,8.932495117187500000e-01
-3.000000000000000000e+00,-4.000000000000000000e+00,-2.700000000000000000e+01,-2.500000000000000000e+01,4.000000000000000000e+00,8.000000000000000000e+00,9.000000000000000000e+00,-2.000000000000000000e+00,-1.769409179687500000e-01,4.020385742187500000e-01,-9.527587890625000000e-02,8.932495117187500000e-01
0.000000000000000000e+00,-1.000000000000000000e+00,1.300000000000000000e+01,-9.000000000000000000e+00,-1.200000000000000000e+01,-1.600000000000000000e+01,-1.000000000000000000e+01,-2.000000000000000000e+00,-1.755981445312500000e-01,4.018554687500000000e-01,-9.442138671875000000e-02,8.936767578125000000e-01
-2.000000000000000000e+00,-5.000000000000000000e+00,-2.100000000000000000e+01,2.500000000000000000e+01,1.700000000000000000e+01,9.000000000000000000e+00,1.400000000000000000e+01,1.000000000000000000e+00,-1.755981445312500000e-01,4.018554687500000000e-01,-9.442138671875000000e-02,8.936767578125000000e-01
0.000000000000000000e+00,6.000000000000000000e+00,-2.000000000000000000e+01,-2.300000000000000000e+01,-5.000000000000000000e+00,1.000000000000000000e+01,2.000000000000000000e+01,2.000000000000000000e+00,-1.755981445312500000e-01,4.018554687500000000e-01,-9.442138671875000000e-02,8.936767578125000000e-01
4.000000000000000000e+00,-1.000000000000000000e+00,2.600000000000000000e+01,0.000000000000000000e+00,-1.700000000000000000e+01,7.000000000000000000e+00,7.000000000000000000e+00,1.000000000000000000e+00,-1.755981445312500000e-01,4.018554687500000000e-01,-9.442138671875000000e-02,8.936767578125000000e-01
0.000000000000000000e+00,-2.000000000000000000e+00,1.300000000000000000e+01,7.000000000000000000e+00,6.000000000000000000e+00,0.000000000000000000e+00,-4.000000000000000000e+00,0.000000000000000000e+00,-1.752929687500000000e-01,4.016723632812500000e-01,-9.320068359375000000e-02,8.939819335937500000e-01
-2.000000000000000000e+00,1.000000000000000000e+00,5.000000000000000000e+00,-1.100000000000000000e+01,-1.200000000000000000e+01,-1.200000000000000000e+01,-1.500000000000000000e+01,-5.000000000000000000e+00,-1.752929687500000000e-01,4.016723632812500000e-01,-9.320068359375000000e-02,8.939819335937500000e-01
-7.000000000000000000e+00,-7.000000000000000000e+00,1.500000000000000000e+01,2.700000000000000000e+01,5.000000000000000000e+00,-1.100000000000000000e+01,-5.000000000000000000e+00,-3.000000000000000000e+00,-1.752929687500000000e-01,4.016723632812500000e-01,-9.320068359375000000e-02,8.939819335937500000e-01
-2.000000000000000000e+00,-3.000000000000000000e+00,-2.700000000000000000e+01,-4.000000000000000000e+00,3.000000000000000000e+00,3.000000000000000000e+00,3.000000000000000000e+00,-1.000000000000000000e+00,-1.752929687500000000e-01,4.016723632812500000e-01,-9.320068359375000000e-02,8.939819335937500000e-01
1.000000000000000000e+00,2.000000000000000000e+00,-9.000000000000000000e+00,6.300000000000000000e+01,2.000000000000000000e+00,4.000000000000000000e+00,9.000000000000000000e+00,0.000000000000000000e+00,-1.750488281250000000e-01,4.016113281250000000e-01,-9.204101562500000000e-02,8.941650390625000000e-01
-1.000000000000000000e+00,-7.000000000000000000e+00,1.000000000000000000e+01,-3.500000000000000000e+01,-5.000000000000000000e+00,-4.000000000000000000e+00,-8.000000000000000000e+00,-1.000000000000000000e+00,-1.750488281250000000e-01,4.016113281250000000e-01,-9.204101562500000000e-02,8.941650390625000000e-01
-4.000000000000000000e+00,-7.000000000000000000e+00,2.000000000000000000e+00,3.500000000000000000e+01,4.000000000000000000e+00,-5.000000000000000000e+00,-1.000000000000000000e+01,-5.000000000000000000e+00,-1.750488281250000000e-01,4.016113281250000000e-01,-9.204101562500000000e-02,8.941650390625000000e-01
5.000000000000000000e+00,9.000000000000000000e+00,2.800000000000000000e+01,-1.800000000000000000e+01,-6.000000000000000000e+00,-4.000000000000000000e+00,-4.000000000000000000e+00,2.000000000000000000e+00,-1.750488281250000000e-01,4.016113281250000000e-01,-9.204101562500000000e-02,8.941650390625000000e-01
-4.000000000000000000e+00,-2.000000000000000000e+00,2.000000000000000000e+00,1.500000000000000000e+01,9.000000000000000000e+00,5.000000000000000000e+00,-2.000000000000000000e+00,-1.000000000000000000e+00,-1.743774414062500000e-01,4.016113281250000000e-01,-9.143066406250000000e-02,8.943481445312500000e-01
-2.000000000000000000e+00,0.000000000000000000e+00,2.000000000000000000e+00,-4.700000000000000000e+01,-1.700000000000000000e+01,0.000000000000000000e+00,1.000000000000000000e+00,0.000000000000000000e+00,-1.743774414062500000e-01,4.016113281250000000e-01,-9.143066406250000000e-02,8.943481445312500000e-01
-3.000000000000000000e+00,-9.000000000000000000e+00,-6.200000000000000000e+01,5.000000000000000000e+00,5.000000000000000000e+00,-1.000000000000000000e+00,-3.000000000000000000e+00,-1.000000000000000000e+00,-1.743774414062500000e-01,4.016113281250000000e-01,-9.143066406250000000e-02,8.943481445312500000e-01
0.000000000000000000e+00,0.000000000000000000e+00,1.000000000000000000e+01,3.000000000000000000e+01,6.000000000000000000e+00,-2.000000000000000000e+00,-1.000000000000000000e+00,-1.000000000000000000e+00,-1.743774414062500000e-01,4.016113281250000000e-01,-9.143066406250000000e-02,8.943481445312500000e-01
-1.000000000000000000e+00,1.000000000000000000e+00,-1.200000000000000000e+01,-1.900000000000000000e+01,-1.000000000000000000e+00,4.000000000000000000e+00,2.000000000000000000e+00,0.000000000000000000e+00,-1.737670898437500000e-01,4.014282226562500000e-01,-9.100341796875000000e-02,8.945922851562500000e-01
-5.000000000000000000e+00,-1.200000000000000000e+01,-2.300000000000000000e+01,2.100000000000000000e+01,3.000000000000000000e+00,-3.000000000000000000e+00,-2.000000000000000000e+00,-6.000000000000000000e+00,-1.737670898437500000e-01,4.014282226562500000e-01,-9.100341796875000000e-02,8.945922851562500000e-01
8.000000000000000000e+00,1.300000000000000000e+01,2.400000000000000000e+01,-2.000000000000000000e+01,-8.000000000000000000e+00,1.000000000000000000e+00,1.000000000000000000e+00,2.000000000000000000e+00,-1.737670898437500000e-01,4.014282226562500000e-01,-9.100341796875000000e-02,8.945922851562500000e-01
-3.000000000000000000e+00,-3.000000000000000000e+00,5.000000000000000000e+00,5.000000000000000000e+01,4.000000000000000000e+00,-1.100000000000000000e+01,-1.000000000000000000e+01,-4.000000000000000000e+00,-1.737670898437500000e-01,4.014282226562500000e-01,-9.100341796875000000e-02,8.945922851562500000e-01
-1.000000000000000000e+00,2.000000000000000000e+00,-2.000000000000000000e+01,-9.000000000000000000e+00,-7.000000000000000000e+00,-8.000000000000000000e+00,-6.000000000000000000e+00,0.000000000000000000e+00,-1.733398437500000000e-01,4.014282226562500000e-01,-9.075927734375000000e-02,8.947143554687500000e-01
1.000000000000000000e+00,2.000000000000000000e+00,7.000000000000000000e+00,2.100000000000000000e+01,3.000000000000000000e+00,1.300000000000000000e+01,1.700000000000000000e+01,3.000000000000000000e+00,-1.733398437500000000e-01,4.014282226562500000e-01,-9.075927734375000000e-02,8.947143554687500000e-01
-2.000000000000000000e+00,-5.000000000000000000e+00,-4.000000000000000000e+00,1.800000000000000000e+01,3.000000000000000000e+00,2.000000000000000000e+00,-2.000000000000000000e+00,-2.000000000000000000e+00,-1.733398437500000000e-01,4.014282226562500000e-01,-9.075927734375000000e-02,8.947143554687500000e-01
-5.000000000000000000e+00,2.000000000000000000e+00,4.000000000000000000e+00,1.000000000000000000e+01,1.000000000000000000e+00,-4.000000000000000000e+00,-1.100000000000000000e+01,-1.000000000000000000e+00,-1.733398437500000000e-01,4.014282226562500000e-01,-9.075927734375000000e-02,8.947143554687500000e-01
3.000000000000000000e+00,-5.000000000000000000e+00,-1.900000000000000000e+01,-4.000000000000000000e+00,7.000000000000000000e+00,5.000000000000000000e+00,8.000000000000000000e+00,-2.000000000000000000e+00,-1.732788085937500000e-01,4.013671875000000000e-01,-9.057617187500000000e-02,8.947753906250000000e-01
3.000000000000000000e+00,1.000000000000000000e+00,3.200000000000000000e+01,2.400000000000000000e+01,-6.000000000000000000e+00,-5.000000000000000000e+00,3.000000000000000000e+00,2.000000000000000000e+00,-1.732788085937500000e-01,4.013671875000000000e-01,-9.057617187500000000e-02,8.947753906250000000e-01
-1.000000000000000000e+00,-1.000000000000000000e+00,2.200000000000000000e+01,1.800000000000000000e+01,9.000000000000000000e+00,9.000000000000000000e+00,6.000000000000000000e+00,1.000000000000000000e+00,-1.732788085937500000e-01,4.013671875000000000e-01,-9.057617187500000000e-02,8.947753906250000000e-01
4.000000000000000000e+00,6.000000000000000000e+00,1.100000000000000000e+01,-4.700000000000000000e+01,-1.500000000000000000e+01,-3.000000000000000000e+00,-2.000000000000000000e+00,2.000000000000000000e+00,-1.732788085937500000e-01,4.013671875000000000e-01,-9.057617187500000000e-02,8.947753906250000000e-01
-4.000000000000000000e+00,-5.000000000000000000e+00,-2.200000000000000000e+01,2.000000000000000000e+00,0.000000000000000000e+00,-3.000000000000000000e+00,-6.000000000000000000e+00,0.000000000000000000e+00,-1.738891601562500000e-01,4.012451171875000000e-01,-9.045410156250000000e-02,8.947143554687500000e-01
1.000000000000000000e+00,-1.000000000000000000e+00,-1.300000000000000000e+01,4.400000000000000000e+01,7.000000000000000000e+00,-2.000000000000000000e+00,-3.000000000000000000e+00,0.000000000000000000e+00,-1.738891601562500000e-01,4.012451171875000000e-01,-9.045410156250000000e-02,8.947143554687500000e-01
-3.000000000000000000e+00,-4.000000000000000000e+00,-2.000000000000000000e+01,-4.400000000000000000e+01,-4.000000000000000000e+00,-3.000000000000000000e+00,-4.000000000000000000e+00,-4.000000000000000000e+00,-1.738891601562500000e-01,4.012451171875000000e-01,-9.045410156250000000e-02,8.947143554687500000e-01
0.000000000000000000e+00,1.000000000000000000e+00,-2.000000000000000000e+00,-1.700000000000000000e+01,-3.000000000000000000e+00,-4.000000000000000000e+00,0.000000000000000000e+00,-2.000000000000000000e+00,-1.738891601562500000e-01,4.012451171875000000e-01,-9.045410156250000000e-02,8.947143554687500000e-01
0.000000000000000000e+00,-1.000000000000000000e+00,-5.000000000000000000e+00,2.700000000000000000e+01,6.000000000000000000e+00,3.000000000000000000e+00,1.000000000000000000e+00,1.000000000000000000e+00,-1.742553710937500000e-01,4.013061523437500000e-01,-9.082031250000000000e-02,8.945922851562500000e-01
-2.000000000000000000e+00,-1.000000000000000000e+00,1.600000000000000000e+01,-6.000000000000000000e+00,-2.000000000000000000e+00,-5.000000000000000000e+00,-2.000000000000000000e+00,0.000000000000000000e+00,-1.742553710937500000e-01,4.013061523437500000e-01,-9.082031250000000000e-02,8.945922851562500000e-01
-6.000000000000000000e+00,-9.000000000000000000e+00,-3.000000000000000000e+00,8.000000000000000000e+00,-1.500000000000000000e+01,-1.700000000000000000e+01,-2.100000000000000000e+01,-5.000000000000000000e+00,-1.742553710937500000e-01,4.013061523437500000e-01,-9.082031250000000000e-02,8.945922851562500000e-01
3.000000000000000000e+00,1.000000000000000000e+00,-7.000000000000000000e+00,-1.000000000000000000e+01,3.000000000000000000e+00,1.400000000000000000e+01,1.500000000000000000e+01,1.000000000000000000e+00,-1.742553710937500000e-01,4.013061523437500000e-01,-9.082031250000000000e-02,8.945922851562500000e-01
-3.000000000000000000e+00,0.000000000000000000e+00,2.000000000000000000e+01,2.500000000000000000e+01,6.000000000000000000e+00,9.000000000000000000e+00,3.000000000000000000e+00,-4.000000000000000000e+00,-1.750488281250000000e-01,4.014892578125000000e-01,-9.161376953125000000e-02,8.942260742187500000e-01
0.000000000000000000e+00,0.000000000000000000e+00,-9.000000000000000000e+00,-3.700000000000000000e+01,-1.100000000000000000e+01,2.000000000000000000e+00,-1.000000000000000000e+00,1.000000000000000000e+00,-1.750488281250000000e-01,4.014892578125000000e-01,-9.161376953125000000e-02,8.942260742187500000e-01
-2.000000000000000000e+00,-6.000000000000000000e+00,-2.700000000000000000e+01,-9.000000000000000000e+00,4.000000000000000000e+00,-4.000000000000000000e+00,0.000000000000000000e+00,-1.000000000000000000e+00,-1.750488281250000000e-01,4.014892578125000000e-01,-9.161376953125000000e-02,8.942260742187500000e-01
-4.000000000000000000e+00,1.000000000000000000e+00,2.400000000000000000e+01,1.300000000000000000e+01,-3.000000000000000000e+00,-7.000000000000000000e+00,-8.000000000000000000e+00,-3.000000000000000000e+00,-1.750488281250000000e-01,4.014892578125000000e-01,-9.161376953125000000e-02,8.942260742187500000e-01
-2.000000000000000000e+00,0.000000000000000000e+00,6.000000000000000000e+00,4.800000000000000000e+01,0.000000000000000000e+00,0.000000000000000000e+00,0.000000000000000000e+00,-2.000000000000000000e+00,-1.749267578125000000e-01,4.016113281250000000e-01,-9.246826171875000000e-02,8.941650390625000000e-01
-3.000000000000000000e+00,-3.000000000000000000e+00,-4.000000000000000000e+00,-4.500000000000000000e+01,-8.000000000000000000e+00,-1.100000000000000000e+01,-1.700000000000000000e+01,-3.000000000000000000e+00,-1.749267578125000000e-01,4.016113281250000000e-01,-9.246826171875000000e-02,8.941650390625000000e-01
4.000000000000000000e+00,5.000000000000000000e+00,1.800000000000000000e+01,2.000000000000000000e+01,-2.000000000000000000e+00,-4.000000000000000000e+00,-7.000000000000000000e+00,1.000000000000000000e+00,-1.749267578125000000e-01,4.016113281250000000e-01,-9.246826171875000000e-02,8.941650390625000000e-01
-1.000000000000000000e+01,-9.000000000000000000e+00,-2.300000000000000000e+01,-4.000000000000000000e+01,6.000000000000000000e+00,1.700000000000000000e+01,1.700000000000000000e+01,-3.000000000000000000e+00,-1.749267578125000000e-01,4.016113281250000000e-01,-9.246826171875000000e-02,8.941650390625000000e-01
1.000000000000000000e+01,3.000000000000000000e+00,1.500000000000000000e+01,-3.000000000000000000e+01,-9.000000000000000000e+00,3.000000000000000000e+00,0.000000000000000000e+00,6.000000000000000000e+00,-1.750488281250000000e-01,4.017333984375000000e-01,-9.301757812500000000e-02,8.940429687500000000e-01
-2.000000000000000000e+00,-4.000000000000000000e+00,-7.000000000000000000e+00,3.000000000000000000e+00,1.000000000000000000e+00,-3.000000000000000000e+00,5.000000000000000000e+00,-2.000000000000000000e+00,-1.750488281250000000e-01,4.017333984375000000e-01,-9.301757812500000000e-02,8.940429687500000000e-01
2.000000000000000000e+00,3.000000000000000000e+00,8.000000000000000000e+00,-6.000000000000000000e+00,-2.000000000000000000e+00,-6.000000000000000000e+00,-5.000000000000000000e+00,0.000000000000000000e+00,-1.750488281250000000e-01,4.017333984375000000e-01,-9.301757812500000000e-02,8.940429687500000000e-01
-6.000000000000000000e+00,-9.000000000000000000e+00,-8.000000000000000000e+00,6.900000000000000000e+01,9.000000000000000000e+00,-6.000000000000000000e+00,1.000000000000000000e+00,-2.000000000000000000e+00,-1.750488281250000000e-01,4.017333984375000000e-01,-9.301757812500000000e-02,8.940429687500000000e-01
-4.000000000000000000e+00,-3.000000000000000000e+00,7.000000000000000000e+00,-4.200000000000000000e+01,-9.000000000000000000e+00,-3.000000000000000000e+00,-1.000000000000000000e+00,-3.000000000000000000e+00,-1.754760742187500000e-01,4.017333984375000000e-01,-9.326171875000000000e-02,8.939208984375000000e-01
4.000000000000000000e+00,5.000000000000000000e+00,-7.000000000000000000e+00,-1.600000000000000000e+01,-2.000000000000000000e+00,5.000000000000000000e+00,0.000000000000000000e+00,2.000000000000000000e+00,-1.754760742187500000e-01,4.017333984375000000e-01,-9.326171875000000000e-02,8.939208984375000000e-01
-5.000000000000000000e+00,-5.000000000000000000e+00,9.000000000000000000e+00,6.000000000000000000e+01,5.000000000000000000e+00,2.000000000000000000e+00,3.000000000000000000e+00,-2.000000000000000000e+00,-1.754760742187500000e-01,4.017333984375000000e-01,-9.326171875000000000e-02,8.939208984375000000e-01
2.000000000000000000e+00,1.000000000000000000e+00,1.100000000000000000e+01,-2.400000000000000000e+01,3.000000000000000000e+00,-4.000000000000000000e+00,-6.000000000000000000e+00,-2.000000000000000000e+00,-1.754760742187500000e-01,4.017333984375000000e-01,-9.326171875000000000e-02,8.939208984375000000e-01
-2.000000000000000000e+00,0.000000000000000000e+00,-2.000000000000000000e+01,-5.300000000000000000e+01,-1.400000000000000000e+01,-5.000000000000000000e+00,-1.000000000000000000e+00,-2.000000000000000000e+00,-1.757812500000000000e-01,4.019165039062500000e-01,-9.362792968750000000e-02,8.937377929687500000e-01
1.000000000000000000e+00,-2.000000000000000000e+00,-3.800000000000000000e+01,2.700000000000000000e+01,7.000000000000000000e+00,-2.000000000000000000e+00,-6.000000000000000000e+00,-1.000000000000000000e+00,-1.757812500000000000e-01,4.019165039062500000e-01,-9.362792968750000000e-02,8.937377929687500000e-01
-4.000000000000000000e+00,3.000000000000000000e+00,1.500000000000000000e+01,-1.800000000000000000e+01,-2.000000000000000000e+00,2.000000000000000000e+00,6.000000000000000000e+00,-1.000000000000000000e+00,-1.757812500000000000e-01,4.019165039062500000e-01,-9.362792968750000000e-02,8.937377929687500000e-01
0.000000000000000000e+00,-4.000000000000000000e+00,-1.900000000000000000e+01,1.800000000000000000e+01,-1.000000000000000000e+00,-6.000000000000000000e+00,-7.000000000000000000e+00,1.000000000000000000e+00,-1.757812500000000000e-01,4.019165039062500000e-01,-9.362792968750000000e-02,8.937377929687500000e-01
2.000000000000000000e+00,-1.000000000000000000e+00,1.500000000000000000e+01,3.700000000000000000e+01,6.000000000000000000e+00,7.000000000000000000e+00,2.000000000000000000e+00,2.000000000000000000e+00,-1.754150390625000000e-01,4.019165039062500000e-01,-9.417724609375000000e-02,8.937377929687500000e-01
-3.000000000000000000e+00,4.000000000000000000e+00,3.000000000000000000e+01,-7.100000000000000000e+01,-2.000000000000000000e+01,0.000000000000000000e+00,-8.000000000000000000e+00,-7.000000000000000000e+00,-1.754150390625000000e-01,4.019165039062500000e-01,-9.417724609375000000e-02,8.937377929687500000e-01
0.000000000000000000e+00,-3.000000000000000000e+00,-4.900000000000000000e+01,-3.000000000000000000e+00,4.000000000000000000e+00,1.000000000000000000e+01,1.300000000000000000e+01,0.000000000000000000e+00,-1.754150390625000000e-01,4.019165039062500000e-01,-9.417724609375000000e-02,8.937377929687500000e-01
1.000000000000000000e+00,-1.000000000000000000e+00,6.000000000000000000e+00,-1.800000000000000000e+01,-6.000000000000000000e+00,-5.000000000000000000e+00,-5.000000000000000000e+00,-1.000000000000000000e+00,-1.754150390625000000e-01,4.019165039062500000e-01,-9.417724609375000000e-02,8.937377929687500000e-01
