0.000000000000000000e+00,5.000000000000000000e+00,2.700000000000000000e+01,-3.500000000000000000e+01,-1.400000000000000000e+01,-4.000000000000000000e+00,-3.000000000000000000e+00,0.000000000000000000e+00,7.080078125000000000e-03,5.213012695312500000e-01,-1.116943359375000000e-01,8.459472656250000000e-01
-2.000000000000000000e+00,-1.200000000000000000e+01,-6.500000000000000000e+01,6.000000000000000000e+01,2.300000000000000000e+01,5.000000000000000000e+00,7.000000000000000000e+00,-1.000000000000000000e+00,7.080078125000000000e-03,5.213012695312500000e-01,-1.116943359375000000e-01,8.459472656250000000e-01
1.000000000000000000e+00,2.000000000000000000e+00,1.000000000000000000e+01,1.100000000000000000e+01,-1.000000000000000000e+00,3.000000000000000000e+00,1.000000000000000000e+00,0.000000000000000000e+00,7.080078125000000000e-03,5.213012695312500000e-01,-1.116943359375000000e-01,8.459472656250000000e-01
1.000000000000000000e+00,3.000000000000000000e+00,-3.200000000000000000e+01,-1.400000000000000000e+01,3.000000000000000000e+00,0.000000000000000000e+00,2.000000000000000000e+00,0.000000000000000000e+00,7.080078125000000000e-03,5.213012695312500000e-01,-1.116943359375000000e-01,8.459472656250000000e-01
-3.000000000000000000e+00,-3.000000000000000000e+00,1.400000000000000000e+01,-1.200000000000000000e+01,-3.000000000000000000e+00,-3.000000000000000000e+00,-2.000000000000000000e+00,-3.000000000000000000e+00,5.920410156250000000e-03,5.218505859375000000e-01,-1.116333007812500000e-01,8.456420898437500000e-01
-2.000000000000000000e+00,-2.000000000000000000e+00,-1.000000000000000000e+00,4.000000000000000000e+00,-1.600000000000000000e+01,-7.000000000000000000e+00,-1.000000000000000000e+00,0.000000000000000000e+00,5.920410156250000000e-03,5.218505859375000000e-01,-1.116333007812500000e-01,8.456420898437500000e-01
6.000000000000000000e+00,1.000000000000000000e+00,8.000000000000000000e+00,4.000000000000000000e+00,1.000000000000000000e+01,4.000000000000000000e+00,5.000000000000000000e+00,7.000000000000000000e+00,5.920410156250000000e-03,5.218505859375000000e-01,-1.116333007812500000e-01,8.456420898437500000e-01
-2.000000000000000000e+00,0.000000000000000000e+00,4.000000000000000000e+00,1.700000000000000000e+01,2.000000000000000000e+00,2.000000000000000000e+00,-1.000000000000000000e+00,-3.000000000000000000e+00,5.920410156250000000e-03,5.218505859375000000e-01,-1.116333007812500000e-01,8.456420898437500000e-01
-1.000000000000000000e+00,-3.000000000000000000e+00,-2.300000000000000000e+01,-6.000000000000000000e+00,-2.000000000000000000e+00,-2.000000000000000000e+00,-6.000000000000000000e+00,-3.000000000000000000e+00,5.065917968750000000e-03,5.224609375000000000e-01,-1.113891601562500000e-01,8.452758789062500000e-01
-2.000000000000000000e+00,-1.000000000000000000e+00,1.000000000000000000e+01,-2.300000000000000000e+01,-1.500000000000000000e+01,-5.000000000000000000e+00,-2.000000000000000000e+00,-4.000000000000000000e+00,5.065917968750000000e-03,5.224609375000000000e-01,-1.113891601562500000e-01,8.452758789062500000e-01
-5.000000000000000000e+00,-5.000000000000000000e+00,-1.600000000000000000e+01,-1.300000000000000000e+01,-9.000000000000000000e+00,-3.000000000000000000e+00,-6.000000000000000000e+00,-3.000000000000000000e+00,5.065917968750000000e-03,5.224609375000000000e-01,-1.113891601562500000e-01,8.452758789062500000e-01
5.000000000000000000e+00,4.000000000000000000e+00,2.900000000000000000e+01,2.100000000000000000e+01,2.800000000000000000e+01,8.000000000000000000e+00,7.000000000000000000e+00,5.000000000000000000e+00,5.065917968750000000e-03,5.224609375000000000e-01,-1.113891601562500000e-01,8.452758789062500000e-01
-1.000000000000000000e+00,-1.000000000000000000e+00,-3.500000000000000000e+01,-3.000000000000000000e+00,-3.000000000000000000e+00,-3.000000000000000000e+00,2.000000000000000000e+00,0.000000000000000000e+00,4.211425781250000000e-03,5.231933593750000000e-01,-1.110839843750000000e-01,8.449096679687500000e-01
-1.000000000000000000e+00,-3.000000000000000000e+00,3.000000000000000000e+00,1.000000000000000000e+00,8.000000000000000000e+00,-1.000000000000000000e+00,-6.000000000000000000e+00,-3.000000000000000000e+00,4.211425781250000000e-03,5.231933593750000000e-01,-1.110839843750000000e-01,8.449096679687500000e-01
-6.000000000000000000e+00,-4.000000000000000000e+00,6.000000000000000000e+00,-3.000000000000000000e+00,0.000000000000000000e+00,-3.000000000000000000e+00,-6.000000000000000000e+00,-3.000000000000000000e+00,4.211425781250000000e-03,5.231933593750000000e-01,-1.110839843750000000e-01,8.449096679687500000e-01
-3.000000000000000000e+00,-2.000000000000000000e+00,1.000000000000000000e+01,1.600000000000000000e+01,-1.200000000000000000e+01,-3.000000000000000000e+00,1.000000000000000000e+00,-1.000000000000000000e+00,4.211425781250000000e-03,5.231933593750000000e-01,-1.110839843750000000e-01,8.449096679687500000e-01
-2.000000000000000000e+00,0.000000000000000000e+00,-1.000000000000000000e+01,-5.000000000000000000e+00,1.000000000000000000e+00,1.000000000000000000e+00,-5.000000000000000000e+00,-2.000000000000000000e+00,3.295898437500000000e-03,5.239868164062500000e-01,-1.106567382812500000e-01,8.444824218750000000e-01
2.000000000000000000e+00,-1.000000000000000000e+00,-3.000000000000000000e+01,-1.000000000000000000e+00,0.000000000000000000e+00,-1.000000000000000000e+00,-1.000000000000000000e+00,2.000000000000000000e+00,3.295898437500000000e-03,5.239868164062500000e-01,-1.106567382812500000e-01,8.444824218750000000e-01
-2.000000000000000000e+00,-2.000000000000000000e+00,9.000000000000000000e+00,2.000000000000000000e+00,-8.000000000000000000e+00,-2.000000000000000000e+00,3.000000000000000000e+00,-1.000000000000000000e+00,3.295898437500000000e-03,5.239868164062500000e-01,-1.106567382812500000e-01,8.444824218750000000e-01
1.000000000000000000e+00,3.000000000000000000e+00,4.000000000000000000e+00,-1.900000000000000000e+01,-4.000000000000000000e+00,-4.000000000000000000e+00,1.000000000000000000e+00,2.000000000000000000e+00,3.295898437500000000e-03,5.239868164062500000e-01,-1.106567382812500000e-01,8.444824218750000000e-01
0.000000000000000000e+00,-3.000000000000000000e+00,7.000000000000000000e+00,2.600000000000000000e+01,1.800000000000000000e+01,3.000000000000000000e+00,-4.000000000000000000e+00,-3.000000000000000000e+00,2.075195312500000000e-03,5.247192382812500000e-01,-1.105957031250000000e-01,8.440551757812500000e-01
-3.000000000000000000e+00,3.000000000000000000e+00,1.700000000000000000e+01,-2.000000000000000000e+01,-1.500000000000000000e+01,-2.000000000000000000e+00,-3.000000000000000000e+00,-4.000000000000000000e+00,2.075195312500000000e-03,5.247192382812500000e-01,-1.105957031250000000e-01,8.440551757812500000e-01
0.000000000000000000e+00,-3.000000000000000000e+00,-8.000000000000000000e+00,-1.900000000000000000e+01,-7.000000000000000000e+00,0.000000000000000000e+00,6.000000000000000000e+00,2.000000000000000000e+00,2.075195312500000000e-03,5.247192382812500000e-01,-1.105957031250000000e-01,8.440551757812500000e-01
2.000000000000000000e+00,0.000000000000000000e+00,0.000000000000000000e+00,1.000000000000000000e+01,1.900000000000000000e+01,4.000000000000000000e+00,1.000000000000000000e+00,2.000000000000000000e+00,2.075195312500000000e-03,5.247192382812500000e-01,-1.105957031250000000e-01,8.440551757812500000e-01
0.000000000000000000e+00,0.000000000000000000e+00,1.400000000000000000e+01,2.800000000000000000e+01,-6.000000000000000000e+00,-6.000000000000000000e+00,-1.500000000000000000e+01,-4.000000000000000000e+00,1.342773437500000000e-03,5.253295898437500000e-01,-1.107177734375000000e-01,8.436279296875000000e-01
-3.000000000000000000e+00,-5.000000000000000000e+00,-1.600000000000000000e+01,-1.900000000000000000e+01,-3.000000000000000000e+00,-3.000000000000000000e+00,8.000000000000000000e+00,0.000000000000000000e+00,1.342773437500000000e-03,5.253295898437500000e-01,-1.107177734375000000e-01,8.436279296875000000e-01
3.000000000000000000e+00,3.000000000000000000e+00,7.000000000000000000e+00,1.100000000000000000e+01,1.200000000000000000e+01,4.000000000000000000e+00,-1.000000000000000000e+00,2.000000000000000000e+00,1.342773437500000000e-03,5.253295898437500000e-01,-1.107177734375000000e-01,8.436279296875000000e-01
1.000000000000000000e+00,-1.000000000000000000e+00,-6.000000000000000000e+00,-9.000000000000000000e+00,-2.100000000000000000e+01,-4.000000000000000000e+00,2.000000000000000000e+00,-2.000000000000000000e+00,1.342773437500000000e-03,5.253295898437500000e-01,-1.107177734375000000e-01,8.436279296875000000e-01
0.000000000000000000e+00,1.000000000000000000e+00,-1.000000000000000000e+00,6.000000000000000000e+00,2.000000000000000000e+01,3.000000000000000000e+00,0.000000000000000000e+00,2.000000000000000000e+00,-6.103515625000000000e-05,5.258178710937500000e-01,-1.106567382812500000e-01,8.433227539062500000e-01
-1.000000000000000000e+00,1.000000000000000000e+00,2.700000000000000000e+01,-1.100000000000000000e+01,-1.200000000000000000e+01,-3.000000000000000000e+00,-5.000000000000000000e+00,1.000000000000000000e+00,-6.103515625000000000e-05,5.258178710937500000e-01,-1.106567382812500000e-01,8.433227539062500000e-01
-4.000000000000000000e+00,-1.000000000000000000e+00,5.000000000000000000e+00,6.000000000000000000e+00,-4.000000000000000000e+00,-5.000000000000000000e+00,-6.000000000000000000e+00,-3.000000000000000000e+00,-6.103515625000000000e-05,5.258178710937500000e-01,-1.106567382812500000e-01,8.433227539062500000e-01
-4.000000000000000000e+00,-4.000000000000000000e+00,-1.600000000000000000e+01,-2.600000000000000000e+01,-1.100000000000000000e+01,0.000000000000000000e+00,-1.000000000000000000e+00,-3.000000000000000000e+00,-6.103515625000000000e-05,5.258178710937500000e-01,-1.106567382812500000e-01,8.433227539062500000e-01
1.000000000000000000e+00,2.000000000000000000e+00,1.000000000000000000e+00,-2.000000000000000000e+00,-6.000000000000000000e+00,3.000000000000000000e+00,3.000000000000000000e+00,0.000000000000000000e+00,-1.647949218750000000e-03,5.260009765625000000e-01,-1.104736328125000000e-01,8.432006835937500000e-01
-1.000000000000000000e+00,0.000000000000000000e+00,1.500000000000000000e+01,2.000000000000000000e+01,1.200000000000000000e+01,0.000000000000000000e+00,-1.000000000000000000e+00,-1.000000000000000000e+00,-1.647949218750000000e-03,5.260009765625000000e-01,-1.104736328125000000e-01,8.432006835937500000e-01
2.000000000000000000e+00,2.000000000000000000e+00,1.300000000000000000e+01,1.000000000000000000e+00,7.000000000000000000e+00,3.000000000000000000e+00,3.000000000000000000e+00,0.000000000000000000e+00,-1.647949218750000000e-03,5.260009765625000000e-01,-1.104736328125000000e-01,8.432006835937500000e-01
1.000000000000000000e+00,-2.000000000000000000e+00,-2.100000000000000000e+01,-1.300000000000000000e+01,-1.200000000000000000e+01,-4.000000000000000000e+00,5.000000000000000000e+00,1.000000000000000000e+00,-1.647949218750000000e-03,5.260009765625000000e-01,-1.104736328125000000e-01,8.432006835937500000e-01
-3.000000000000000000e+00,-4.000000000000000000e+00,-5.000000000000000000e+00,1.000000000000000000e+00,5.000000000000000000e+00,0.000000000000000000e+00,-7.000000000000000000e+00,-4.000000000000000000e+00,-3.112792968750000000e-03,5.257568359375000000e-01,-1.106567382812500000e-01,8.433837890625000000e-01
-1.000000000000000000e+00,3.000000000000000000e+00,2.300000000000000000e+01,1.100000000000000000e+01,-8.000000000000000000e+00,-4.000000000000000000e+00,3.000000000000000000e+00,0.000000000000000000e+00,-3.112792968750000000e-03,5.257568359375000000e-01,-1.106567382812500000e-01,8.433837890625000000e-01
0.000000000000000000e+00,-3.000000000000000000e+00,-1.900000000000000000e+01,-4.000000000000000000e+00,-8.000000000000000000e+00,-2.000000000000000000e+00,-7.000000000000000000e+00,-3.000000000000000000e+00,-3.112792968750000000e-03,5.257568359375000000e-01,-1.106567382812500000e-01,8.433837890625000000e-01
-3.000000000000000000e+00,-2.000000000000000000e+00,2.000000000000000000e+00,-1.000000000000000000e+00,-1.000000000000000000e+00,-2.000000000000000000e+00,-7.000000000000000000e+00,-3.000000000000000000e+00,-3.112792968750000000e-03,5.257568359375000000e-01,-1.106567382812500000e-01,8.433837890625000000e-01
0.000000000000000000e+00,3.000000000000000000e+00,4.000000000000000000e+00,-4.200000000000000000e+01,-2.600000000000000000e+01,-7.000000000000000000e+00,6.000000000000000000e+00,0.000000000000000000e+00,-4.577636718750000000e-03,5.253295898437500000e-01,-1.109008789062500000e-01,8.435668945312500000e-01
-1.000000000000000000e+00,-5.000000000000000000e+00,-2.800000000000000000e+01,1.800000000000000000e+01,2.800000000000000000e+01,4.000000000000000000e+00,-4.000000000000000000e+00,0.000000000000000000e+00,-4.577636718750000000e-03,5.253295898437500000e-01,-1.109008789062500000e-01,8.435668945312500000e-01
-2.000000000000000000e+00,-2.000000000000000000e+00,-6.000000000000000000e+00,1.000000000000000000e+01,6.000000000000000000e+00,0.000000000000000000e+00,0.000000000000000000e+00,-1.000000000000000000e+00,-4.577636718750000000e-03,5.253295898437500000e-01,-1.109008789062500000e-01,8.435668945312500000e-01
-1.000000000000000000e+00,-1.000000000000000000e+00,1.400000000000000000e+01,-1.000000000000000000e+01,-3.000000000000000000e+00,0.000000000000000000e+00,-1.000000000000000000e+00,-1.000000000000000000e+00,-4.577636718750000000e-03,5.253295898437500000e-01,-1.109008789062500000e-01,8.435668945312500000e-01
-3.000000000000000000e+00,-3.000000000000000000e+00,-2.100000000000000000e+01,-6.300000000000000000e+01,-2.500000000000000000e+01,-3.000000000000000000e+00,1.000000000000000000e+00,-1.000000000000000000e+00,-5.187988281250000000e-03,5.245361328125000000e-01,-1.112060546875000000e-01,8.440551757812500000e-01
0.000000000000000000e+00,1.000000000000000000e+00,1.600000000000000000e+01,6.600000000000000000e+01,3.900000000000000000e+01,9.000000000000000000e+00,-2.000000000000000000e+00,2.000000000000000000e+00,-5.187988281250000000e-03,5.245361328125000000e-01,-1.112060546875000000e-01,8.440551757812500000e-01
-2.000000000000000000e+00,-1.000000000000000000e+00,-1.400000000000000000e+01,-2.200000000000000000e+01,-1.500000000000000000e+01,-4.000000000000000000e+00,1.000000000000000000e+00,-3.000000000000000000e+00,-5.187988281250000000e-03,5.245361328125000000e-01,-1.112060546875000000e-01,8.440551757812500000e-01
2.000000000000000000e+00,3.000000000000000000e+00,1.400000000000000000e+01,1.800000000000000000e+01,1.500000000000000000e+01,2.000000000000000000e+00,1.000000000000000000e+00,2.000000000000000000e+00,-5.187988281250000000e-03,5.245361328125000000e-01,-1.112060546875000000e-01,8.440551757812500000e-01
1.000000000000000000e+00,-3.000000000000000000e+00,4.000000000000000000e+00,1.000000000000000000e+01,-1.000000000000000000e+00,-3.000000000000000000e+00,2.000000000000000000e+00,3.000000000000000000e+00,-5.371093750000000000e-03,5.231323242187500000e-01,-1.112060546875000000e-01,8.449096679687500000e-01
-2.000000000000000000e+00,-1.000000000000000000e+00,-1.000000000000000000e+00,-2.800000000000000000e+01,-1.700000000000000000e+01,-3.000000000000000000e+00,-3.000000000000000000e+00,-7.000000000000000000e+00,-5.371093750000000000e-03,5.231323242187500000e-01,-1.112060546875000000e-01,8.449096679687500000e-01
-3.000000000000000000e+00,-1.000000000000000000e+00,-7.000000000000000000e+00,1.000000000000000000e+01,4.000000000000000000e+00,0.000000000000000000e+00,-5.000000000000000000e+00,-2.000000000000000000e+00,-5.371093750000000000e-03,5.231323242187500000e-01,-1.112060546875000000e-01,8.449096679687500000e-01
-1.000000000000000000e+00,4.000000000000000000e+00,1.100000000000000000e+01,-2.400000000000000000e+01,-1.000000000000000000e+01,-3.000000000000000000e+00,-4.000000000000000000e+00,-4.000000000000000000e+00,-5.371093750000000000e-03,5.231323242187500000e-01,-1.112060546875000000e-01,8.449096679687500000e-01
0.000000000000000000e+00,-3.000000000000000000e+00,-1.900000000000000000e+01,3.500000000000000000e+01,1.500000000000000000e+01,5.000000000000000000e+00,1.300000000000000000e+01,2.000000000000000000e+00,-6.103515625000000000e-03,5.215454101562500000e-01,-1.109008789062500000e-01,8.459472656250000000e-01
-2.000000000000000000e+00,-6.000000000000000000e+00,-2.400000000000000000e+01,-2.100000000000000000e+01,-1.000000000000000000e+01,-1.000000000000000000e+00,-5.000000000000000000e+00,0.000000000000000000e+00,-6.103515625000000000e-03,5.215454101562500000e-01,-1.109008789062500000e-01,8.459472656250000000e-01
-1.000000000000000000e+00,-1.000000000000000000e+00,1.500000000000000000e+01,-6.000000000000000000e+00,-2.000000000000000000e+00,-1.000000000000000000e+00,-1.000000000000000000e+00,-2.000000000000000000e+00,-6.103515625000000000e-03,5.215454101562500000e-01,-1.109008789062500000e-01,8.459472656250000000e-01
-4.000000000000000000e+00,-1.000000000000000000e+00,-1.300000000000000000e+01,8.000000000000000000e+00,8.000000000000000000e+00,1.000000000000000000e+00,-8.000000000000000000e+00,-5.000000000000000000e+00,-6.103515625000000000e-03,5.215454101562500000e-01,-1.109008789062500000e-01,8.459472656250000000e-01
-1.000000000000000000e+00,0.000000000000000000e+00,-4.000000000000000000e+00,-3.000000000000000000e+00,0.000000000000000000e+00,-2.000000000000000000e+00,5.000000000000000000e+00,3.000000000000000000e+00,-6.530761718750000000e-03,5.198364257812500000e-01,-1.107788085937500000e-01,8.469848632812500000e-01
-1.000000000000000000e+00,1.000000000000000000e+00,1.300000000000000000e+01,-7.000000000000000000e+00,-1.100000000000000000e+01,-2.000000000000000000e+00,-1.000000000000000000e+00,0.000000000000000000e+00,-6.530761718750000000e-03,5.198364257812500000e-01,-1.107788085937500000e-01,8.469848632812500000e-01
1.000000000000000000e+00,2.000000000000000000e+00,3.000000000000000000e+00,3.000000000000000000e+00,6.000000000000000000e+00,0.000000000000000000e+00,2.000000000000000000e+00,0.000000000000000000e+00,-6.530761718750000000e-03,5.198364257812500000e-01,-1.107788085937500000e-01,8.469848632812500000e-01
-2.000000000000000000e+00,-1.000000000000000000e+00,-4.000000000000000000e+00,2.000000000000000000e+00,-9.000000000000000000e+00,-6.000000000000000000e+00,-3.000000000000000000e+00,-1.000000000000000000e+00,-6.530761718750000000e-03,5.198364257812500000e-01,-1.107788085937500000e-01,8.469848632812500000e-01
-3.000000000000000000e+00,-3.000000000000000000e+00,4.000000000000000000e+00,2.900000000000000000e+01,1.900000000000000000e+01,2.000000000000000000e+00,-6.000000000000000000e+00,-6.000000000000000000e+00,-5.920410156250000000e-03,5.181884765625000000e-01,-1.108398437500000000e-01,8.479614257812500000e-01
-1.000000000000000000e+00,-3.000000000000000000e+00,-3.000000000000000000e+00,3.000000000000000000e+00,-1.300000000000000000e+01,-4.000000000000000000e+00,1.000000000000000000e+00,1.000000000000000000e+00,-5.920410156250000000e-03,5.181884765625000000e-01,-1.108398437500000000e-01,8.479614257812500000e-01
-1.000000000000000000e+00,-3.000000000000000000e+00,7.000000000000000000e+00,-3.400000000000000000e+01,-1.300000000000000000e+01,-5.000000000000000000e+00,-2.000000000000000000e+00,-2.000000000000000000e+00,-5.920410156250000000e-03,5.181884765625000000e-01,-1.108398437500000000e-01,8.479614257812500000e-01
1.000000000000000000e+00,-1.000000000000000000e+00,-7.000000000000000000e+00,4.600000000000000000e+01,6.000000000000000000e+00,-1.000000000000000000e+00,-2.000000000000000000e+00,0.000000000000000000e+00,-5.920410156250000000e-03,5.181884765625000000e-01,-1.108398437500000000e-01,8.479614257812500000e-01
-2.000000000000000000e+00,-3.000000000000000000e+00,4.000000000000000000e+00,-3.000000000000000000e+00,-3.000000000000000000e+00,1.000000000000000000e+00,-3.000000000000000000e+00,-2.000000000000000000e+00,-5.004882812500000000e-03,5.166015625000000000e-01,-1.105957031250000000e-01,8.489990234375000000e-01
-3.000000000000000000e+00,0.000000000000000000e+00,0.000000000000000000e+00,-3.400000000000000000e+01,-1.500000000000000000e+01,-5.000000000000000000e+00,8.000000000000000000e+00,2.000000000000000000e+00,-5.004882812500000000e-03,5.166015625000000000e-01,-1.105957031250000000e-01,8.489990234375000000e-01
-1.000000000000000000e+00,-3.000000000000000000e+00,-1.800000000000000000e+01,-1.500000000000000000e+01,0.000000000000000000e+00,1.000000000000000000e+00,1.000000000000000000e+00,1.000000000000000000e+00,-5.004882812500000000e-03,5.166015625000000000e-01,-1.105957031250000000e-01,8.489990234375000000e-01
2.000000000000000000e+00,2.000000000000000000e+00,-1.400000000000000000e+01,2.000000000000000000e+00,1.000000000000000000e+00,0.000000000000000000e+00,-2.000000000000000000e+00,-2.000000000000000000e+00,-5.004882812500000000e-03,5.166015625000000000e-01,-1.105957031250000000e-01,8.489990234375000000e-01
1.000000000000000000e+00,3.000000000000000000e+00,3.400000000000000000e+01,1.500000000000000000e+01,1.000000000000000000e+01,1.000000000000000000e+00,5.000000000000000000e+00,3.000000000000000000e+00,-4.394531250000000000e-03,5.151367187500000000e-01,-1.099853515625000000e-01,8.499755859375000000e-01
-2.000000000000000000e+00,0.000000000000000000e+00,-1.000000000000000000e+01,2.000000000000000000e+00,-1.000000000000000000e+00,0.000000000000000000e+00,-6.000000000000000000e+00,-2.000000000000000000e+00,-4.394531250000000000e-03,5.151367187500000000e-01,-1.099853515625000000e-01,8.499755859375000000e-01
1.000000000000000000e+00,1.000000000000000000e+00,2.600000000000000000e+01,9.000000000000000000e+00,3.000000000000000000e+00,3.000000000000000000e+00,6.000000000000000000e+00,2.000000000000000000e+00,-4.394531250000000000e-03,5.151367187500000000e-01,-1.099853515625000000e-01,8.499755859375000000e-01
-3.000000000000000000e+00,-8.000000000000000000e+00,-3.200000000000000000e+01,-1.100000000000000000e+01,-1.200000000000000000e+01,-5.000000000000000000e+00,0.000000000000000000e+00,-2.000000000000000000e+00,-4.394531250000000000e-03,5.151367187500000000e-01,-1.099853515625000000e-01,8.499755859375000000e-01
-1.000000000000000000e+00,1.000000000000000000e+00,1.800000000000000000e+01,1.400000000000000000e+01,2.000000000000000000e+00,-2.000000000000000000e+00,-7.000000000000000000e+00,-6.000000000000000000e+00,-3.723144531250000000e-03,5.142211914062500000e-01,-1.093750000000000000e-01,8.505859375000000000e-01
0.000000000000000000e+00,-1.000000000000000000e+00,3.000000000000000000e+00,-2.500000000000000000e+01,-8.000000000000000000e+00,-4.000000000000000000e+00,-5.000000000000000000e+00,-1.000000000000000000e+00,-3.723144531250000000e-03,5.142211914062500000e-01,-1.093750000000000000e-01,8.505859375000000000e-01
0.000000000000000000e+00,0.000000000000000000e+00,-1.200000000000000000e+01,-1.900000000000000000e+01,-7.000000000000000000e+00,-6.000000000000000000e+00,-1.000000000000000000e+00,1.000000000000000000e+00,-3.723144531250000000e-03,5.142211914062500000e-01,-1.093750000000000000e-01,8.505859375000000000e-01
1.000000000000000000e+00,-1.000000000000000000e+00,7.000000000000000000e+00,2.800000000000000000e+01,-4.000000000000000000e+00,0.000000000000000000e+00,-2.000000000000000000e+00,1.000000000000000000e+00,-3.723144531250000000e-03,5.142211914062500000e-01,-1.093750000000000000e-01,8.505859375000000000e-01
-1.000000000000000000e+00,-2.000000000000000000e+00,1.000000000000000000e+01,1.500000000000000000e+01,1.300000000000000000e+01,4.000000000000000000e+00,4.000000000000000000e+00,2.000000000000000000e+00,-3.417968750000000000e-03,5.138549804687500000e-01,-1.088867187500000000e-01,8.508911132812500000e-01
-4.000000000000000000e+00,-3.000000000000000000e+00,-1.400000000000000000e+01,-2.700000000000000000e+01,-1.600000000000000000e+01,-6.000000000000000000e+00,-1.000000000000000000e+01,-6.000000000000000000e+00,-3.417968750000000000e-03,5.138549804687500000e-01,-1.088867187500000000e-01,8.508911132812500000e-01
1.000000000000000000e+00,0.000000000000000000e+00,1.000000000000000000e+00,2.800000000000000000e+01,1.600000000000000000e+01,5.000000000000000000e+00,6.000000000000000000e+00,5.000000000000000000e+00,-3.417968750000000000e-03,5.138549804687500000e-01,-1.088867187500000000e-01,8.508911132812500000e-01
-4.000000000000000000e+00,-5.000000000000000000e+00,-9.000000000000000000e+00,-3.800000000000000000e+01,-1.900000000000000000e+01,-7.000000000000000000e+00,-3.000000000000000000e+00,-3.000000000000000000e+00,-3.417968750000000000e-03,5.138549804687500000e-01,-1.088867187500000000e-01,8.508911132812500000e-01
-4.000000000000000000e+00,-5.000000000000000000e+00,-9.000000000000000000e+00,2.600000000000000000e+01,7.000000000000000000e+00,1.000000000000000000e+00,-7.000000000000000000e+00,-4.000000000000000000e+00,-3.234863281250000000e-03,5.137939453125000000e-01,-1.086425781250000000e-01,8.509521484375000000e-01
7.000000000000000000e+00,7.000000000000000000e+00,2.400000000000000000e+01,1.700000000000000000e+01,1.900000000000000000e+01,6.000000000000000000e+00,1.000000000000000000e+01,6.000000000000000000e+00,-3.234863281250000000e-03,5.137939453125000000e-01,-1.086425781250000000e-01,8.509521484375000000e-01
-6.000000000000000000e+00,-1.100000000000000000e+01,-5.200000000000000000e+01,-1.300000000000000000e+01,-1.000000000000000000e+01,-5.000000000000000000e+00,-1.600000000000000000e+01,-9.000000000000000000e+00,-3.234863281250000000e-03,5.137939453125000000e-01,-1.086425781250000000e-01,8.509521484375000000e-01
-1.000000000000000000e+00,1.000000000000000000e+00,8.000000000000000000e+00,-1.900000000000000000e+01,7.000000000000000000e+00,3.000000000000000000e+00,1.500000000000000000e+01,2.000000000000000000e+00,-3.234863281250000000e-03,5.137939453125000000e-01,-1.086425781250000000e-01,8.509521484375000000e-01
1.000000000000000000e+00,1.000000000000000000e+00,-1.800000000000000000e+01,-6.000000000000000000e+00,-4.000000000000000000e+00,-2.000000000000000000e+00,1.000000000000000000e+00,3.000000000000000000e+00,-2.624511718750000000e-03,5.139770507812500000e-01,-1.082153320312500000e-01,8.508911132812500000e-01
-4.000000000000000000e+00,-4.000000000000000000e+00,3.000000000000000000e+00,-7.000000000000000000e+00,-4.000000000000000000e+00,-5.000000000000000000e+00,-7.000000000000000000e+00,-7.000000000000000000e+00,-2.624511718750000000e-03,5.139770507812500000e-01,-1.082153320312500000e-01,8.508911132812500000e-01
2.000000000000000000e+00,1.000000000000000000e+00,5.000000000000000000e+00,8.000000000000000000e+00,1.000000000000000000e+00,0.000000000000000000e+00,2.000000000000000000e+00,1.000000000000000000e+00,-2.624511718750000000e-03,5.139770507812500000e-01,-1.082153320312500000e-01,8.508911132812500000e-01
0.000000000000000000e+00,-3.000000000000000000e+00,7.000000000000000000e+00,-1.100000000000000000e+01,-1.000000000000000000e+00,-3.000000000000000000e+00,-1.200000000000000000e+01,-2.000000000000000000e+00,-2.624511718750000000e-03,5.139770507812500000e-01,-1.082153320312500000e-01,8.508911132812500000e-01
0.000000000000000000e+00,-1.000000000000000000e+00,7.000000000000000000e+00,0.000000000000000000e+00,-1.200000000000000000e+01,-2.000000000000000000e+00,0.000000000000000000e+00,-1.000000000000000000e+00,-2.746582031250000000e-03,5.143432617187500000e-01,-1.077880859375000000e-01,8.507690429687500000e-01
-1.000000000000000000e+00,-3.000000000000000000e+00,-2.700000000000000000e+01,-1.000000000000000000e+00,1.300000000000000000e+01,-3.000000000000000000e+00,-1.300000000000000000e+01,-7.000000000000000000e+00,-2.746582031250000000e-03,5.143432617187500000e-01,-1.077880859375000000e-01,8.507690429687500000e-01
-5.000000000000000000e+00,-2.000000000000000000e+00,-5.000000000000000000e+00,-3.900000000000000000e+01,-1.700000000000000000e+01,-5.000000000000000000e+00,1.700000000000000000e+01,3.000000000000000000e+00,-2.746582031250000000e-03,5.143432617187500000e-01,-1.077880859375000000e-01,8.507690429687500000e-01
-1.000000000000000000e+00,-3.000000000000000000e+00,1.000000000000000000e+00,2.600000000000000000e+01,5.000000000000000000e+00,-1.000000000000000000e+00,-1.500000000000000000e+01,-5.000000000000000000e+00,-2.746582031250000000e-03,5.143432617187500000e-01,-1.077880859375000000e-01,8.507690429687500000e-01
1.000000000000000000e+00,1.000000000000000000e+00,-5.000000000000000000e+00,1.000000000000000000e+01,1.000000000000000000e+01,2.000000000000000000e+00,1.700000000000000000e+01,4.000000000000000000e+00,-3.173828125000000000e-03,5.148925781250000000e-01,-1.072998046875000000e-01,8.504638671875000000e-01
5.000000000000000000e+00,3.000000000000000000e+00,-3.000000000000000000e+00,-3.000000000000000000e+00,-2.000000000000000000e+00,3.000000000000000000e+00,1.000000000000000000e+01,1.200000000000000000e+01,-3.173828125000000000e-03,5.148925781250000000e-01,-1.072998046875000000e-01,8.504638671875000000e-01
-2.000000000000000000e+00,0.000000000000000000e+00,-1.000000000000000000e+00,-1.400000000000000000e+01,-1.000000000000000000e+01,-3.000000000000000000e+00,-9.000000000000000000e+00,-8.000000000000000000e+00,-3.173828125000000000e-03,5.148925781250000000e-01,-1.072998046875000000e-01,8.504638671875000000e-01
-2.000000000000000000e+00,-2.000000000000000000e+00,5.000000000000000000e+00,1.000000000000000000e+00,-6.000000000000000000e+00,1.000000000000000000e+00,7.000000000000000000e+00,-1.000000000000000000e+00,-3.173828125000000000e-03,5.148925781250000000e-01,-1.072998046875000000e-01,8.504638671875000000e-01
0.000000000000000000e+00,2.000000000000000000e+00,2.200000000000000000e+01,-6.000000000000000000e+00,2.000000000000000000e+00,-4.000000000000000000e+00,-1.200000000000000000e+01,-5.000000000000000000e+00,-3.417968750000000000e-03,5.155639648437500000e-01,-1.070556640625000000e-01,8.500976562500000000e-01
-2.000000000000000000e+00,-4.000000000000000000e+00,-4.500000000000000000e+01,-3.500000000000000000e+01,-2.100000000000000000e+01,-6.000000000000000000e+00,-4.000000000000000000e+00,-7.000000000000000000e+00,-3.417968750000000000e-03,5.155639648437500000e-01,-1.070556640625000000e-01,8.500976562500000000e-01
0.000000000000000000e+00,-4.000000000000000000e+00,-3.700000000000000000e+01,2.000000000000000000e+00,3.000000000000000000e+00,-3.000000000000000000e+00,-1.000000000000000000e+01,-1.000000000000000000e+00,-3.417968750000000000e-03,5.155639648437500000e-01,-1.070556640625000000e-01,8.500976562500000000e-01
0.000000000000000000e+00,0.000000000000000000e+00,2.000000000000000000e+00,3.300000000000000000e+01,2.600000000000000000e+01,5.000000000000000000e+00,9.000000000000000000e+00,3.000000000000000000e+00,-3.417968750000000000e-03,5.155639648437500000e-01,-1.070556640625000000e-01,8.500976562500000000e-01
-2.000000000000000000e+00,-1.000000000000000000e+00,2.500000000000000000e+01,2.500000000000000000e+01,-6.000000000000000000e+00,-3.000000000000000000e+00,-7.000000000000000000e+00,-4.000000000000000000e+00,-3.784179687500000000e-03,5.162353515625000000e-01,-1.068115234375000000e-01,8.497314453125000000e-01
-5.000000000000000000e+00,2.000000000000000000e+00,2.600000000000000000e+01,9.000000000000000000e+00,3.000000000000000000e+00,3.000000000000000000e+00,-2.000000000000000000e+00,-2.000000000000000000e+00,-3.784179687500000000e-03,5.162353515625000000e-01,-1.068115234375000000e-01,8.497314453125000000e-01
2.000000000000000000e+00,2.000000000000000000e+00,2.100000000000000000e+01,-5.000000000000000000e+00,-1.200000000000000000e+01,0.000000000000000000e+00,5.000000000000000000e+00,4.000000000000000000e+00,-3.784179687500000000e-03,5.162353515625000000e-01,-1.068115234375000000e-01,8.497314453125000000e-01
-2.000000000000000000e+00,0.000000000000000000e+00,-9.000000000000000000e+00,-1.400000000000000000e+01,1.000000000000000000e+00,-2.000000000000000000e+00,-1.200000000000000000e+01,-7.000000000000000000e+00,-3.784179687500000000e-03,5.162353515625000000e-01,-1.068115234375000000e-01,8.497314453125000000e-01
2.000000000000000000e+00,1.000000000000000000e+00,-1.100000000000000000e+01,-2.500000000000000000e+01,-1.000000000000000000e+01,0.000000000000000000e+00,9.000000000000000000e+00,5.000000000000000000e+00,-4.211425781250000000e-03,5.167846679687500000e-01,-1.068725585937500000e-01,8.493652343750000000e-01
0.000000000000000000e+00,-1.000000000000000000e+00,2.000000000000000000e+00,2.200000000000000000e+01,8.000000000000000000e+00,-1.000000000000000000e+00,-1.000000000000000000e+00,-2.000000000000000000e+00,-4.211425781250000000e-03,5.167846679687500000e-01,-1.068725585937500000e-01,8.493652343750000000e-01
-5.000000000000000000e+00,-1.000000000000000000e+00,5.000000000000000000e+00,5.000000000000000000e+00,-5.000000000000000000e+00,-3.000000000000000000e+00,-1.200000000000000000e+01,-7.000000000000000000e+00,-4.211425781250000000e-03,5.167846679687500000e-01,-1.068725585937500000e-01,8.493652343750000000e-01
-2.000000000000000000e+00,-1.000000000000000000e+00,4.000000000000000000e+00,-6.000000000000000000e+00,9.000000000000000000e+00,5.000000000000000000e+00,1.000000000000000000e+01,5.000000000000000000e+00,-4.211425781250000000e-03,5.167846679687500000e-01,-1.068725585937500000e-01,8.493652343750000000e-01
-2.000000000000000000e+00,-2.000000000000000000e+00,-1.000000000000000000e+00,-6.000000000000000000e+00,8.000000000000000000e+00,-2.000000000000000000e+00,-8.000000000000000000e+00,-1.000000000000000000e+00,-4.272460937500000000e-03,5.173339843750000000e-01,-1.071777343750000000e-01,8.489990234375000000e-01
-1.000000000000000000e+00,-1.000000000000000000e+00,-9.000000000000000000e+00,-2.000000000000000000e+00,-1.500000000000000000e+01,-3.000000000000000000e+00,-3.000000000000000000e+00,-4.000000000000000000e+00,-4.272460937500000000e-03,5.173339843750000000e-01,-1.071777343750000000e-01,8.489990234375000000e-01
2.000000000000000000e+00,3.000000000000000000e+00,1.400000000000000000e+01,1.400000000000000000e+01,1.200000000000000000e+01,3.000000000000000000e+00,8.000000000000000000e+00,3.000000000000000000e+00,-4.272460937500000000e-03,5.173339843750000000e-01,-1.071777343750000000e-01,8.489990234375000000e-01
-1.000000000000000000e+00,0.000000000000000000e+00,1.000000000000000000e+00,-5.300000000000000000e+01,-1.800000000000000000e+01,-3.000000000000000000e+00,0.000000000000000000e+00,0.000000000000000000e+00,-4.272460937500000000e-03,5.173339843750000000e-01,-1.071777343750000000e-01,8.489990234375000000e-01
0.000000000000000000e+00,1.000000000000000000e+00,-9.000000000000000000e+00,4.600000000000000000e+01,2.500000000000000000e+01,3.000000000000000000e+00,-1.300000000000000000e+01,-5.000000000000000000e+00,-4.699707031250000000e-03,5.177612304687500000e-01,-1.070556640625000000e-01,8.487548828125000000e-01
-1.000000000000000000e+00,-2.000000000000000000e+00,2.400000000000000000e+01,-8.000000000000000000e+00,1.000000000000000000e+00,0.000000000000000000e+00,4.000000000000000000e+00,-2.000000000000000000e+00,-4.699707031250000000e-03,5.177612304687500000e-01,-1.070556640625000000e-01,8.487548828125000000e-01
0.000000000000000000e+00,1.000000000000000000e+00,-7.000000000000000000e+00,5.300000000000000000e+01,2.600000000000000000e+01,7.000000000000000000e+00,8.000000000000000000e+00,3.000000000000000000e+00,-4.699707031250000000e-03,5.177612304687500000e-01,-1.070556640625000000e-01,8.487548828125000000e-01
0.000000000000000000e+00,-1.000000000000000000e+00,1.600000000000000000e+01,-2.100000000000000000e+01,-7.000000000000000000e+00,-4.000000000000000000e+00,-1.100000000000000000e+01,-3.000000000000000000e+00,-4.699707031250000000e-03,5.177612304687500000e-01,-1.070556640625000000e-01,8.487548828125000000e-01
-1.000000000000000000e+00,0.000000000000000000e+00,-1.600000000000000000e+01,-1.700000000000000000e+01,-1.800000000000000000e+01,-4.000000000000000000e+00,4.000000000000000000e+00,-1.000000000000000000e+00,-5.371093750000000000e-03,5.181274414062500000e-01,-1.066284179687500000e-01,8.485717773437500000e-01
0.000000000000000000e+00,-1.000000000000000000e+00,2.500000000000000000e+01,1.100000000000000000e+01,-4.000000000000000000e+00,0.000000000000000000e+00,0.000000000000000000e+00,3.000000000000000000e+00,-5.371093750000000000e-03,5.181274414062500000e-01,-1.066284179687500000e-01,8.485717773437500000e-01
0.000000000000000000e+00,-2.000000000000000000e+00,-2.000000000000000000e+00,-1.800000000000000000e+01,-8.000000000000000000e+00,-4.000000000000000000e+00,-6.000000000000000000e+00,-4.000000000000000000e+00,-5.371093750000000000e-03,5.181274414062500000e-01,-1.066284179687500000e-01,8.485717773437500000e-01
-3.000000000000000000e+00,-4.000000000000000000e+00,-2.700000000000000000e+01,1.000000000000000000e+00,2.000000000000000000e+00,1.000000000000000000e+00,-4.000000000000000000e+00,-1.000000000000000000e+00,-5.371093750000000000e-03,5.181274414062500000e-01,-1.066284179687500000e-01,8.485717773437500000e-01
-3.000000000000000000e+00,-2.000000000000000000e+00,4.000000000000000000e+00,-2.500000000000000000e+01,-1.700000000000000000e+01,-5.000000000000000000e+00,-2.000000000000000000e+00,-3.000000000000000000e+00,-6.103515625000000000e-03,5.184936523437500000e-01,-1.061401367187500000e-01,8.483886718750000000e-01
1.000000000000000000e+00,2.000000000000000000e+00,6.000000000000000000e+00,1.000000000000000000e+01,1.500000000000000000e+01,4.000000000000000000e+00,3.000000000000000000e+00,2.000000000000000000e+00,-6.103515625000000000e-03,5.184936523437500000e-01,-1.061401367187500000e-01,8.483886718750000000e-01
-2.000000000000000000e+00,-5.000000000000000000e+00,-2.400000000000000000e+01,-3.800000000000000000e+01,-2.700000000000000000e+01,-6.000000000000000000e+00,4.000000000000000000e+00,3.000000000000000000e+00,-6.103515625000000000e-03,5.184936523437500000e-01,-1.061401367187500000e-01,8.483886718750000000e-01
1.000000000000000000e+00,2.000000000000000000e+00,4.100000000000000000e+01,3.900000000000000000e+01,2.000000000000000000e+01,2.000000000000000000e+00,0.000000000000000000e+00,-1.000000000000000000e+00,-6.103515625000000000e-03,5.184936523437500000e-01,-1.061401367187500000e-01,8.483886718750000000e-01
-2.000000000000000000e+00,2.000000000000000000e+00,5.000000000000000000e+00,-2.000000000000000000e+00,-1.000000000000000000e+00,0.000000000000000000e+00,-2.000000000000000000e+00,0.000000000000000000e+00,-6.286621093750000000e-03,5.188598632812500000e-01,-1.060180664062500000e-01,8.482055664062500000e-01
-3.000000000000000000e+00,-7.000000000000000000e+00,-5.500000000000000000e+01,-1.700000000000000000e+01,-9.000000000000000000e+00,-4.000000000000000000e+00,1.000000000000000000e+00,-1.000000000000000000e+00,-6.286621093750000000e-03,5.188598632812500000e-01,-1.060180664062500000e-01,8.482055664062500000e-01
0.000000000000000000e+00,2.000000000000000000e+00,3.400000000000000000e+01,-6.000000000000000000e+00,-2.000000000000000000e+00,-1.000000000000000000e+00,-5.000000000000000000e+00,-2.000000000000000000e+00,-6.286621093750000000e-03,5.188598632812500000e-01,-1.060180664062500000e-01,8.482055664062500000e-01
-1.000000000000000000e+00,2.000000000000000000e+00,-6.200000000000000000e+01,-2.000000000000000000e+00,-6.000000000000000000e+00,-6.000000000000000000e+00,-6.000000000000000000e+00,-2.000000000000000000e+00,-6.286621093750000000e-03,5.188598632812500000e-01,-1.060180664062500000e-01,8.482055664062500000e-01
0.000000000000000000e+00,-4.000000000000000000e+00,1.900000000000000000e+01,-2.000000000000000000e+00,-2.000000000000000000e+00,-1.000000000000000000e+00,4.000000000000000000e+00,0.000000000000000000e+00,-6.286621093750000000e-03,5.188598632812500000e-01,-1.060180664062500000e-01,8.482055664062500000e-01
-1.000000000000000000e+00,4.000000000000000000e+00,2.900000000000000000e+01,6.000000000000000000e+00,-2.000000000000000000e+00,0.000000000000000000e+00,4.000000000000000000e+00,1.000000000000000000e+00,-6.286621093750000000e-03,5.188598632812500000e-01,-1.060180664062500000e-01,8.482055664062500000e-01
-2.000000000000000000e+00,-4.000000000000000000e+00,-9.000000000000000000e+00,-2.000000000000000000e+00,0.000000000000000000e+00,-1.000000000000000000e+00,-7.000000000000000000e+00,-2.000000000000000000e+00,-6.286621093750000000e-03,5.188598632812500000e-01,-1.060180664062500000e-01,8.482055664062500000e-01
1.000000000000000000e+00,-2.000000000000000000e+00,-1.200000000000000000e+01,1.000000000000000000e+01,3.000000000000000000e+00,1.000000000000000000e+00,5.000000000000000000e+00,2.000000000000000000e+00,-6.286621093750000000e-03,5.188598632812500000e-01,-1.060180664062500000e-01,8.482055664062500000e-01
-2.000000000000000000e+00,-4.000000000000000000e+00,-1.900000000000000000e+01,-1.200000000000000000e+01,4.000000000000000000e+00,1.000000000000000000e+00,-1.000000000000000000e+00,-2.000000000000000000e+00,-6.225585937500000000e-03,5.189208984375000000e-01,-1.060180664062500000e-01,8.481445312500000000e-01
1.000000000000000000e+00,1.000000000000000000e+00,-3.000000000000000000e+00,8.000000000000000000e+00,0.000000000000000000e+00,-5.000000000000000000e+00,-1.300000000000000000e+01,-5.000000000000000000e+00,-6.225585937500000000e-03,5.189208984375000000e-01,-1.060180664062500000e-01,8.481445312500000000e-01
1.000000000000000000e+00,-4.000000000000000000e+00,1.700000000000000000e+01,2.500000000000000000e+01,-8.000000000000000000e+00,-4.000000000000000000e+00,4.000000000000000000e+00,0.000000000000000000e+00,-6.225585937500000000e-03,5.189208984375000000e-01,-1.060180664062500000e-01,8.481445312500000000e-01
1.000000000000000000e+00,0.000000000000000000e+00,7.000000000000000000e+00,-1.000000000000000000e+00,6.000000000000000000e+00,6.000000000000000000e+00,7.000000000000000000e+00,3.000000000000000000e+00,-6.225585937500000000e-03,5.189208984375000000e-01,-1.060180664062500000e-01,8.481445312500000000e-01
-2.000000000000000000e+00,-1.000000000000000000e+00,1.200000000000000000e+01,1.800000000000000000e+01,-1.200000000000000000e+01,-7.000000000000000000e+00,1.000000000000000000e+00,1.000000000000000000e+00,-5.554199218750000000e-03,5.194091796875000000e-01,-1.060791015625000000e-01,8.478393554687500000e-01
0.000000000000000000e+00,1.000000000000000000e+00,-3.600000000000000000e+01,-2.500000000000000000e+01,-4.000000000000000000e+00,-3.000000000000000000e+00,-5.000000000000000000e+00,-2.000000000000000000e+00,-5.554199218750000000e-03,5.194091796875000000e-01,-1.060791015625000000e-01,8.478393554687500000e-01
-3.000000000000000000e+00,0.000000000000000000e+00,-8.000000000000000000e+00,-4.000000000000000000e+00,9.000000000000000000e+00,-1.000000000000000000e+00,-5.000000000000000000e+00,-5.000000000000000000e+00,-5.554199218750000000e-03,5.194091796875000000e-01,-1.060791015625000000e-01,8.478393554687500000e-01
2.000000000000000000e+00,2.000000000000000000e+00,1.900000000000000000e+01,4.000000000000000000e+00,-8.000000000000000000e+00,-7.000000000000000000e+00,-9.000000000000000000e+00,0.000000000000000000e+00,-5.554199218750000000e-03,5.194091796875000000e-01,-1.060791015625000000e-01,8.478393554687500000e-01
-2.000000000000000000e+00,-8.000000000000000000e+00,-3.000000000000000000e+01,-6.000000000000000000e+00,-1.600000000000000000e+01,3.000000000000000000e+00,7.000000000000000000e+00,-2.000000000000000000e+00,-4.638671875000000000e-03,5.193481445312500000e-01,-1.061401367187500000e-01,8.479003906250000000e-01
-3.000000000000000000e+00,1.000000000000000000e+00,2.700000000000000000e+01,9.000000000000000000e+00,9.000000000000000000e+00,0.000000000000000000e+00,7.000000000000000000e+00,2.000000000000000000e+00,-4.638671875000000000e-03,5.193481445312500000e-01,-1.061401367187500000e-01,8.479003906250000000e-01
0.000000000000000000e+00,2.000000000000000000e+00,2.700000000000000000e+01,9.000000000000000000e+00,4.000000000000000000e+00,2.000000000000000000e+00,-1.000000000000000000e+00,1.000000000000000000e+00,-4.638671875000000000e-03,5.193481445312500000e-01,-1.061401367187500000e-01,8.479003906250000000e-01
-1.000000000000000000e+00,-3.000000000000000000e+00,-3.900000000000000000e+01,-1.200000000000000000e+01,-1.100000000000000000e+01,-3.000000000000000000e+00,-2.000000000000000000e+00,-3.000000000000000000e+00,-4.638671875000000000e-03,5.193481445312500000e-01,-1.061401367187500000e-01,8.479003906250000000e-01
2.000000000000000000e+00,3.000000000000000000e+00,6.000000000000000000e+00,-1.900000000000000000e+01,-5.000000000000000000e+00,1.000000000000000000e+00,0.000000000000000000e+00,0.000000000000000000e+00,-4.882812500000000000e-03,5.192871093750000000e-01,-1.058349609375000000e-01,8.479614257812500000e-01
0.000000000000000000e+00,-3.000000000000000000e+00,1.800000000000000000e+01,-5.000000000000000000e+00,-9.000000000000000000e+00,-1.000000000000000000e+00,2.000000000000000000e+00,0.000000000000000000e+00,-4.882812500000000000e-03,5.192871093750000000e-01,-1.058349609375000000e-01,8.479614257812500000e-01
-2.000000000000000000e+00,-1.000000000000000000e+00,-2.700000000000000000e+01,-2.000000000000000000e+00,6.000000000000000000e+00,2.000000000000000000e+00,-2.000000000000000000e+00,-1.000000000000000000e+00,-4.882812500000000000e-03,5.192871093750000000e-01,-1.058349609375000000e-01,8.479614257812500000e-01
-3.000000000000000000e+00,-1.000000000000000000e+00,3.000000000000000000e+01,-1.000000000000000000e+00,0.000000000000000000e+00,0.000000000000000000e+00,-8.000000000000000000e+00,-3.000000000000000000e+00,-4.882812500000000000e-03,5.192871093750000000e-01,-1.058349609375000000e-01,8.479614257812500000e-01
1.000000000000000000e+00,-4.000000000000000000e+00,-2.500000000000000000e+01,-2.300000000000000000e+01,-6.000000000000000000e+00,0.000000000000000000e+00,2.000000000000000000e+00,2.000000000000000000e+00,-5.737304687500000000e-03,5.194702148437500000e-01,-1.055297851562500000e-01,8.479003906250000000e-01
0.000000000000000000e+00,-1.000000000000000000e+00,0.000000000000000000e+00,2.600000000000000000e+01,4.000000000000000000e+00,0.000000000000000000e+00,-1.000000000000000000e+00,0.000000000000000000e+00,-5.737304687500000000e-03,5.194702148437500000e-01,-1.055297851562500000e-01,8.479003906250000000e-01
0.000000000000000000e+00,2.000000000000000000e+00,1.200000000000000000e+01,1.400000000000000000e+01,1.200000000000000000e+01,3.000000000000000000e+00,0.000000000000000000e+00,0.000000000000000000e+00,-5.737304687500000000e-03,5.194702148437500000e-01,-1.055297851562500000e-01,8.479003906250000000e-01
-2.000000000000000000e+00,-4.000000000000000000e+00,9.000000000000000000e+00,1.500000000000000000e+01,3.000000000000000000e+00,1.000000000000000000e+00,0.000000000000000000e+00,-2.000000000000000000e+00,-5.737304687500000000e-03,5.194702148437500000e-01,-1.055297851562500000e-01,8.479003906250000000e-01
-2.000000000000000000e+00,-1.000000000000000000e+00,1.500000000000000000e+01,1.100000000000000000e+01,2.400000000000000000e+01,6.000000000000000000e+00,-2.000000000000000000e+00,1.000000000000000000e+00,-6.225585937500000000e-03,5.194091796875000000e-01,-1.057739257812500000e-01,8.479003906250000000e-01
1.000000000000000000e+00,-1.000000000000000000e+00,-9.000000000000000000e+00,-1.600000000000000000e+01,-1.500000000000000000e+01,-2.000000000000000000e+00,0.000000000000000000e+00,-1.000000000000000000e+00,-6.225585937500000000e-03,5.194091796875000000e-01,-1.057739257812500000e-01,8.479003906250000000e-01
0.000000000000000000e+00,0.000000000000000000e+00,1.400000000000000000e+01,2.000000000000000000e+00,-7.000000000000000000e+00,-5.000000000000000000e+00,-5.000000000000000000e+00,-1.000000000000000000e+00,-6.225585937500000000e-03,5.194091796875000000e-01,-1.057739257812500000e-01,8.479003906250000000e-01
1.000000000000000000e+00,2.000000000000000000e+00,-1.900000000000000000e+01,0.000000000000000000e+00,8.000000000000000000e+00,4.000000000000000000e+00,6.000000000000000000e+00,1.000000000000000000e+00,-6.225585937500000000e-03,5.194091796875000000e-01,-1.057739257812500000e-01,8.479003906250000000e-01
-3.000000000000000000e+00,-8.000000000000000000e+00,-3.500000000000000000e+01,-7.000000000000000000e+00,-9.000000000000000000e+00,-5.000000000000000000e+00,-1.900000000000000000e+01,-7.000000000000000000e+00,-6.225585937500000000e-03,5.191650390625000000e-01,-1.060180664062500000e-01,8.480224609375000000e-01
-5.000000000000000000e+00,-5.000000000000000000e+00,3.900000000000000000e+01,2.000000000000000000e+00,-2.000000000000000000e+00,-3.000000000000000000e+00,7.000000000000000000e+00,0.000000000000000000e+00,-6.225585937500000000e-03,5.191650390625000000e-01,-1.060180664062500000e-01,8.480224609375000000e-01
3.000000000000000000e+00,0.000000000000000000e+00,-4.000000000000000000e+01,-3.000000000000000000e+00,1.000000000000000000e+00,3.000000000000000000e+00,0.000000000000000000e+00,4.000000000000000000e+00,-6.225585937500000000e-03,5.191650390625000000e-01,-1.060180664062500000e-01,8.480224609375000000e-01
-3.000000000000000000e+00,-1.000000000000000000e+00,1.800000000000000000e+01,3.000000000000000000e+00,3.000000000000000000e+00,-3.000000000000000000e+00,5.000000000000000000e+00,-1.000000000000000000e+00,-6.225585937500000000e-03,5.191650390625000000e-01,-1.060180664062500000e-01,8.480224609375000000e-01
0.000000000000000000e+00,0.000000000000000000e+00,1.000000000000000000e+00,-2.300000000000000000e+01,-1.200000000000000000e+01,-5.000000000000000000e+00,3.000000000000000000e+00,3.000000000000000000e+00,-6.530761718750000000e-03,5.190429687500000000e-01,-1.060180664062500000e-01,8.480834960937500000e-01
1.000000000000000000e+00,3.000000000000000000e+00,-6.000000000000000000e+00,7.000000000000000000e+00,1.300000000000000000e+01,4.000000000000000000e+00,2.000000000000000000e+00,-1.000000000000000000e+00,-6.530761718750000000e-03,5.190429687500000000e-01,-1.060180664062500000e-01,8.480834960937500000e-01
-6.000000000000000000e+00,-4.000000000000000000e+00,-1.000000000000000000e+01,-2.000000000000000000e+00,-6.000000000000000000e+00,-4.000000000000000000e+00,-4.000000000000000000e+00,-4.000000000000000000e+00,-6.530761718750000000e-03,5.190429687500000000e-01,-1.060180664062500000e-01,8.480834960937500000e-01
2.000000000000000000e+00,3.000000000000000000e+00,1.700000000000000000e+01,-1.700000000000000000e+01,-1.100000000000000000e+01,-2.000000000000000000e+00,3.000000000000000000e+00,3.000000000000000000e+00,-6.530761718750000000e-03,5.190429687500000000e-01,-1.060180664062500000e-01,8.480834960937500000e-01
-3.000000000000000000e+00,1.000000000000000000e+00,0.000000000000000000e+00,-3.900000000000000000e+01,-9.000000000000000000e+00,-3.000000000000000000e+00,-1.000000000000000000e+01,-4.000000000000000000e+00,-7.202148437500000000e-03,5.191040039062500000e-01,-1.056518554687500000e-01,8.480834960937500000e-01
-5.000000000000000000e+00,-6.000000000000000000e+00,-2.100000000000000000e+01,4.500000000000000000e+01,6.000000000000000000e+00,-3.000000000000000000e+00,-2.000000000000000000e+00,-3.000000000000000000e+00,-7.202148437500000000e-03,5.191040039062500000e-01,-1.056518554687500000e-01,8.480834960937500000e-01
0.000000000000000000e+00,2.000000000000000000e+00,2.300000000000000000e+01,-2.500000000000000000e+01,-3.000000000000000000e+00,0.000000000000000000e+00,1.000000000000000000e+00,-4.000000000000000000e+00,-7.202148437500000000e-03,5.191040039062500000e-01,-1.056518554687500000e-01,8.480834960937500000e-01
0.000000000000000000e+00,3.000000000000000000e+00,3.600000000000000000e+01,2.500000000000000000e+01,1.000000000000000000e+01,3.000000000000000000e+00,4.000000000000000000e+00,0.000000000000000000e+00,-7.202148437500000000e-03,5.191040039062500000e-01,-1.056518554687500000e-01,8.480834960937500000e-01
0.000000000000000000e+00,-4.000000000000000000e+00,-5.100000000000000000e+01,1.100000000000000000e+01,4.000000000000000000e+00,-1.000000000000000000e+00,6.000000000000000000e+00,1.000000000000000000e+00,-7.629394531250000000e-03,5.192260742187500000e-01,-1.053466796875000000e-01,8.480224609375000000e-01
-2.000000000000000000e+00,1.000000000000000000e+00,2.000000000000000000e+01,-1.700000000000000000e+01,-1.500000000000000000e+01,-6.000000000000000000e+00,-6.000000000000000000e+00,-2.000000000000000000e+00,-7.629394531250000000e-03,5.192260742187500000e-01,-1.053466796875000000e-01,8.480224609375000000e-01
-1.000000000000000000e+00,-1.000000000000000000e+00,1.000000000000000000e+00,-9.000000000000000000e+00,3.000000000000000000e+00,0.000000000000000000e+00,-4.000000000000000000e+00,0.000000000000000000e+00,-7.629394531250000000e-03,5.192260742187500000e-01,-1.053466796875000000e-01,8.480224609375000000e-01
-3.000000000000000000e+00,-5.000000000000000000e+00,-1.100000000000000000e+01,6.000000000000000000e+00,2.000000000000000000e+00,-3.000000000000000000e+00,-6.000000000000000000e+00,-4.000000000000000000e+00,-7.629394531250000000e-03,5.192260742187500000e-01,-1.053466796875000000e-01,8.480224609375000000e-01
2.000000000000000000e+00,6.000000000000000000e+00,2.100000000000000000e+01,-1.100000000000000000e+01,-5.000000000000000000e+00,-1.000000000000000000e+00,3.000000000000000000e+00,0.000000000000000000e+00,-7.629394531250000000e-03,5.192260742187500000e-01,-1.054077148437500000e-01,8.480224609375000000e-01
2.000000000000000000e+00,-1.000000000000000000e+00,-1.300000000000000000e+01,1.000000000000000000e+00,-1.000000000000000000e+00,1.000000000000000000e+00,-1.000000000000000000e+00,3.000000000000000000e+00,-7.629394531250000000e-03,5.192260742187500000e-01,-1.054077148437500000e-01,8.480224609375000000e-01
-2.000000000000000000e+00,-5.000000000000000000e+00,-1.100000000000000000e+01,1.000000000000000000e+01,9.000000000000000000e+00,2.000000000000000000e+00,-1.000000000000000000e+00,-2.000000000000000000e+00,-7.629394531250000000e-03,5.192260742187500000e-01,-1.054077148437500000e-01,8.480224609375000000e-01
0.000000000000000000e+00,2.000000000000000000e+00,-1.000000000000000000e+00,-1.700000000000000000e+01,-1.800000000000000000e+01,-4.000000000000000000e+00,-6.000000000000000000e+00,-3.000000000000000000e+00,-7.629394531250000000e-03,5.192260742187500000e-01,-1.054077148437500000e-01,8.480224609375000000e-01
-3.000000000000000000e+00,-4.000000000000000000e+00,1.100000000000000000e+01,1.700000000000000000e+01,1.000000000000000000e+01,1.000000000000000000e+00,0.000000000000000000e+00,-4.000000000000000000e+00,-7.324218750000000000e-03,5.189819335937500000e-01,-1.052246093750000000e-01,8.482055664062500000e-01
-1.000000000000000000e+00,0.000000000000000000e+00,2.000000000000000000e+00,-2.400000000000000000e+01,-1.500000000000000000e+01,-3.000000000000000000e+00,-1.000000000000000000e+01,-6.000000000000000000e+00,-7.324218750000000000e-03,5.189819335937500000e-01,-1.052246093750000000e-01,8.482055664062500000e-01
1.000000000000000000e+00,-1.000000000000000000e+00,-7.000000000000000000e+00,3.400000000000000000e+01,2.000000000000000000e+00,-1.000000000000000000e+00,9.000000000000000000e+00,6.000000000000000000e+00,-7.324218750000000000e-03,5.189819335937500000e-01,-1.052246093750000000e-01,8.482055664062500000e-01
-2.000000000000000000e+00,-5.000000000000000000e+00,-1.400000000000000000e+01,-1.300000000000000000e+01,-5.000000000000000000e+00,1.000000000000000000e+00,8.000000000000000000e+00,8.000000000000000000e+00,-7.324218750000000000e-03,5.189819335937500000e-01,-1.052246093750000000e-01,8.482055664062500000e-01
-2.000000000000000000e+00,-4.000000000000000000e+00,-1.800000000000000000e+01,6.000000000000000000e+00,3.000000000000000000e+00,-3.000000000000000000e+00,-7.000000000000000000e+00,-3.000000000000000000e+00,-7.080078125000000000e-03,5.187988281250000000e-01,-1.049804687500000000e-01,8.483276367187500000e-01
-4.000000000000000000e+00,-1.000000000000000000e+00,1.600000000000000000e+01,-1.500000000000000000e+01,-8.000000000000000000e+00,-4.000000000000000000e+00,-5.000000000000000000e+00,-5.000000000000000000e+00,-7.080078125000000000e-03,5.187988281250000000e-01,-1.049804687500000000e-01,8.483276367187500000e-01
-2.000000000000000000e+00,0.000000000000000000e+00,-1.400000000000000000e+01,-6.000000000000000000e+00,-8.000000000000000000e+00,-2.000000000000000000e+00,-1.800000000000000000e+01,-8.000000000000000000e+00,-7.080078125000000000e-03,5.187988281250000000e-01,-1.049804687500000000e-01,8.483276367187500000e-01
-1.000000000000000000e+00,1.000000000000000000e+00,1.100000000000000000e+01,6.000000000000000000e+00,9.000000000000000000e+00,2.000000000000000000e+00,7.000000000000000000e+00,-1.000000000000000000e+00,-7.080078125000000000e-03,5.187988281250000000e-01,-1.049804687500000000e-01,8.483276367187500000e-01
-3.000000000000000000e+00,-3.000000000000000000e+00,-2.000000000000000000e+01,3.400000000000000000e+01,3.000000000000000000e+00,-1.000000000000000000e+00,8.000000000000000000e+00,1.000000000000000000e+00,-7.507324218750000000e-03,5.188598632812500000e-01,-1.047363281250000000e-01,8.483886718750000000e-01
0.000000000000000000e+00,-7.000000000000000000e+00,-1.000000000000000000e+01,-2.300000000000000000e+01,-1.300000000000000000e+01,-1.000000000000000000e+00,0.000000000000000000e+00,0.000000000000000000e+00,-7.507324218750000000e-03,5.188598632812500000e-01,-1.047363281250000000e-01,8.483886718750000000e-01
2.000000000000000000e+00,-2.000000000000000000e+00,-1.800000000000000000e+01,-1.500000000000000000e+01,5.000000000000000000e+00,1.000000000000000000e+00,1.000000000000000000e+00,1.000000000000000000e+00,-7.507324218750000000e-03,5.188598632812500000e-01,-1.047363281250000000e-01,8.483886718750000000e-01
-1.000000000000000000e+00,-1.000000000000000000e+00,1.900000000000000000e+01,1.800000000000000000e+01,7.000000000000000000e+00,-1.000000000000000000e+00,-6.000000000000000000e+00,-5.000000000000000000e+00,-7.507324218750000000e-03,5.188598632812500000e-01,-1.047363281250000000e-01,8.483886718750000000e-01
1.000000000000000000e+00,0.000000000000000000e+00,1.200000000000000000e+01,-2.200000000000000000e+01,-6.000000000000000000e+00,-1.000000000000000000e+00,-5.000000000000000000e+00,-3.000000000000000000e+00,-7.873535156250000000e-03,5.186157226562500000e-01,-1.047363281250000000e-01,8.484497070312500000e-01
0.000000000000000000e+00,3.000000000000000000e+00,-7.000000000000000000e+00,-3.300000000000000000e+01,-9.000000000000000000e+00,-5.000000000000000000e+00,-8.000000000000000000e+00,-2.000000000000000000e+00,-7.873535156250000000e-03,5.186157226562500000e-01,-1.047363281250000000e-01,8.484497070312500000e-01
-1.000000000000000000e+00,2.000000000000000000e+00,3.600000000000000000e+01,5.700000000000000000e+01,2.600000000000000000e+01,6.000000000000000000e+00,6.000000000000000000e+00,0.000000000000000000e+00,-7.873535156250000000e-03,5.186157226562500000e-01,-1.047363281250000000e-01,8.484497070312500000e-01
-3.000000000000000000e+00,-2.000000000000000000e+00,-4.900000000000000000e+01,-2.200000000000000000e+01,-1.600000000000000000e+01,-3.000000000000000000e+00,-1.000000000000000000e+01,-4.000000000000000000e+00,-7.873535156250000000e-03,5.186157226562500000e-01,-1.047363281250000000e-01,8.484497070312500000e-01
-1.000000000000000000e+00,2.000000000000000000e+00,1.400000000000000000e+01,-7.000000000000000000e+00,-1.000000000000000000e+00,-3.000000000000000000e+00,6.000000000000000000e+00,0.000000000000000000e+00,-7.812500000000000000e-03,5.184326171875000000e-01,-1.052246093750000000e-01,8.485717773437500000e-01
0.000000000000000000e+00,1.000000000000000000e+00,-8.000000000000000000e+00,-1.000000000000000000e+00,-1.000000000000000000e+00,1.000000000000000000e+00,2.000000000000000000e+00,1.000000000000000000e+00,-7.812500000000000000e-03,5.184326171875000000e-01,-1.052246093750000000e-01,8.485717773437500000e-01
-3.000000000000000000e+00,-3.000000000000000000e+00,6.000000000000000000e+00,-2.400000000000000000e+01,-1.200000000000000000e+01,-5.000000000000000000e+00,-3.000000000000000000e+00,-1.000000000000000000e+00,-7.812500000000000000e-03,5.184326171875000000e-01,-1.052246093750000000e-01,8.485717773437500000e-01
0.000000000000000000e+00,-2.000000000000000000e+00,1.000000000000000000e+00,7.000000000000000000e+00,0.000000000000000000e+00,-1.000000000000000000e+00,-1.000000000000000000e+00,-3.000000000000000000e+00,-7.812500000000000000e-03,5.184326171875000000e-01,-1.052246093750000000e-01,8.485717773437500000e-01
-2.000000000000000000e+00,1.000000000000000000e+00,2.200000000000000000e+01,2.800000000000000000e+01,1.400000000000000000e+01,2.000000000000000000e+00,-6.000000000000000000e+00,-6.000000000000000000e+00,-7.934570312500000000e-03,5.181274414062500000e-01,-1.056518554687500000e-01,8.486938476562500000e-01
3.000000000000000000e+00,0.000000000000000000e+00,-1.000000000000000000e+01,0.000000000000000000e+00,3.000000000000000000e+00,-1.000000000000000000e+00,0.000000000000000000e+00,2.000000000000000000e+00,-7.934570312500000000e-03,5.181274414062500000e-01,-1.056518554687500000e-01,8.486938476562500000e-01
-2.000000000000000000e+00,-3.000000000000000000e+00,6.000000000000000000e+00,5.000000000000000000e+00,-6.000000000000000000e+00,-2.000000000000000000e+00,4.000000000000000000e+00,3.000000000000000000e+00,-7.934570312500000000e-03,5.181274414062500000e-01,-1.056518554687500000e-01,8.486938476562500000e-01
-1.000000000000000000e+00,-1.000000000000000000e+00,2.000000000000000000e+00,-1.500000000000000000e+01,-7.000000000000000000e+00,-1.000000000000000000e+00,1.000000000000000000e+00,2.000000000000000000e+00,-7.934570312500000000e-03,5.181274414062500000e-01,-1.056518554687500000e-01,8.486938476562500000e-01
-1.000000000000000000e+00,-1.000000000000000000e+00,-1.500000000000000000e+01,-5.000000000000000000e+00,-1.200000000000000000e+01,-5.000000000000000000e+00,-8.000000000000000000e+00,-2.000000000000000000e+00,-8.300781250000000000e-03,5.178833007812500000e-01,-1.057739257812500000e-01,8.488159179687500000e-01
-1.000000000000000000e+00,4.000000000000000000e+00,1.300000000000000000e+01,2.200000000000000000e+01,5.000000000000000000e+00,0.000000000000000000e+00,-1.000000000000000000e+00,-3.000000000000000000e+00,-8.300781250000000000e-03,5.178833007812500000e-01,-1.057739257812500000e-01,8.488159179687500000e-01
-2.000000000000000000e+00,2.000000000000000000e+00,2.500000000000000000e+01,-3.300000000000000000e+01,-3.000000000000000000e+00,-3.000000000000000000e+00,-2.400000000000000000e+01,-1.000000000000000000e+01,-8.300781250000000000e-03,5.178833007812500000e-01,-1.057739257812500000e-01,8.488159179687500000e-01
-2.000000000000000000e+00,-8.000000000000000000e+00,-3.000000000000000000e+01,3.000000000000000000e+01,2.000000000000000000e+00,-1.000000000000000000e+00,1.600000000000000000e+01,1.000000000000000000e+00,-8.300781250000000000e-03,5.178833007812500000e-01,-1.057739257812500000e-01,8.488159179687500000e-01
0.000000000000000000e+00,1.000000000000000000e+00,1.700000000000000000e+01,-7.000000000000000000e+00,-1.000000000000000000e+00,2.000000000000000000e+00,5.000000000000000000e+00,4.000000000000000000e+00,-8.728027343750000000e-03,5.177612304687500000e-01,-1.057128906250000000e-01,8.488769531250000000e-01
-2.000000000000000000e+00,-2.000000000000000000e+00,-8.000000000000000000e+00,-1.000000000000000000e+01,7.000000000000000000e+00,-2.000000000000000000e+00,1.000000000000000000e+00,1.000000000000000000e+00,-8.728027343750000000e-03,5.177612304687500000e-01,-1.057128906250000000e-01,8.488769531250000000e-01
1.000000000000000000e+00,0.000000000000000000e+00,1.400000000000000000e+01,3.000000000000000000e+00,-1.600000000000000000e+01,-4.000000000000000000e+00,1.000000000000000000e+00,0.000000000000000000e+00,-8.728027343750000000e-03,5.177612304687500000e-01,-1.057128906250000000e-01,8.488769531250000000e-01
0.000000000000000000e+00,0.000000000000000000e+00,5.000000000000000000e+00,-1.300000000000000000e+01,-5.000000000000000000e+00,-5.000000000000000000e+00,-1.100000000000000000e+01,-5.000000000000000000e+00,-8.728027343750000000e-03,5.177612304687500000e-01,-1.057128906250000000e-01,8.488769531250000000e-01
-1.000000000000000000e+00,-1.000000000000000000e+00,-1.600000000000000000e+01,6.000000000000000000e+00,2.000000000000000000e+00,0.000000000000000000e+00,-2.000000000000000000e+00,-1.000000000000000000e+00,-9.155273437500000000e-03,5.174560546875000000e-01,-1.056518554687500000e-01,8.490600585937500000e-01
0.000000000000000000e+00,2.000000000000000000e+00,2.900000000000000000e+01,1.000000000000000000e+01,3.000000000000000000e+00,4.000000000000000000e+00,6.000000000000000000e+00,2.000000000000000000e+00,-9.155273437500000000e-03,5.174560546875000000e-01,-1.056518554687500000e-01,8.490600585937500000e-01
-4.000000000000000000e+00,-8.000000000000000000e+00,-5.000000000000000000e+01,-5.000000000000000000e+00,-1.000000000000000000e+00,-2.000000000000000000e+00,-5.000000000000000000e+00,-3.000000000000000000e+00,-9.155273437500000000e-03,5.174560546875000000e-01,-1.056518554687500000e-01,8.490600585937500000e-01
-4.000000000000000000e+00,-1.000000000000000000e+00,1.600000000000000000e+01,-9.000000000000000000e+00,-4.000000000000000000e+00,-1.000000000000000000e+00,-1.600000000000000000e+01,-8.000000000000000000e+00,-9.155273437500000000e-03,5.174560546875000000e-01,-1.056518554687500000e-01,8.490600585937500000e-01
2.000000000000000000e+00,2.000000000000000000e+00,-6.000000000000000000e+00,-1.100000000000000000e+01,-3.000000000000000000e+00,-1.000000000000000000e+00,2.000000000000000000e+01,5.000000000000000000e+00,-8.728027343750000000e-03,5.173339843750000000e-01,-1.057739257812500000e-01,8.491210937500000000e-01
1.000000000000000000e+00,3.000000000000000000e+00,4.000000000000000000e+00,2.000000000000000000e+01,0.000000000000000000e+00,0.000000000000000000e+00,-2.000000000000000000e+00,0.000000000000000000e+00,-8.728027343750000000e-03,5.173339843750000000e-01,-1.057739257812500000e-01,8.491210937500000000e-01
-1.000000000000000000e+00,-3.000000000000000000e+00,-6.000000000000000000e+00,-2.100000000000000000e+01,-1.000000000000000000e+01,-3.000000000000000000e+00,4.000000000000000000e+00,1.000000000000000000e+00,-8.728027343750000000e-03,5.173339843750000000e-01,-1.057739257812500000e-01,8.491210937500000000e-01
-2.000000000000000000e+00,-2.000000000000000000e+00,-3.000000000000000000e+00,5.000000000000000000e+00,2.000000000000000000e+01,6.000000000000000000e+00,0.000000000000000000e+00,-1.000000000000000000e+00,-8.728027343750000000e-03,5.173339843750000000e-01,-1.057739257812500000e-01,8.491210937500000000e-01
-2.000000000000000000e+00,0.000000000000000000e+00,1.000000000000000000e+00,1.000000000000000000e+00,3.000000000000000000e+00,-2.000000000000000000e+00,-1.400000000000000000e+01,-5.000000000000000000e+00,-8.117675781250000000e-03,5.173950195312500000e-01,-1.057128906250000000e-01,8.491210937500000000e-01
3.000000000000000000e+00,1.000000000000000000e+00,-2.400000000000000000e+01,-1.100000000000000000e+01,-1.000000000000000000e+00,2.000000000000000000e+00,7.000000000000000000e+00,1.000000000000000000e+00,-8.117675781250000000e-03,5.173950195312500000e-01,-1.057128906250000000e-01,8.491210937500000000e-01
-2.000000000000000000e+00,1.000000000000000000e+00,1.800000000000000000e+01,2.600000000000000000e+01,-2.000000000000000000e+00,0.000000000000000000e+00,9.000000000000000000e+00,0.000000000000000000e+00,-8.117675781250000000e-03,5.173950195312500000e-01,-1.057128906250000000e-01,8.491210937500000000e-01
4.000000000000000000e+00,-1.000000000000000000e+00,-3.200000000000000000e+01,-1.900000000000000000e+01,-1.200000000000000000e+01,-4.000000000000000000e+00,2.000000000000000000e+00,4.000000000000000000e+00,-8.117675781250000000e-03,5.173950195312500000e-01,-1.057128906250000000e-01,8.491210937500000000e-01
-2.000000000000000000e+00,0.000000000000000000e+00,4.000000000000000000e+00,-7.000000000000000000e+00,-9.000000000000000000e+00,-3.000000000000000000e+00,-7.000000000000000000e+00,-3.000000000000000000e+00,-7.690429687500000000e-03,5.174560546875000000e-01,-1.054687500000000000e-01,8.491210937500000000e-01
-5.000000000000000000e+00,-4.000000000000000000e+00,6.000000000000000000e+00,2.500000000000000000e+01,2.600000000000000000e+01,4.000000000000000000e+00,0.000000000000000000e+00,-3.000000000000000000e+00,-7.690429687500000000e-03,5.174560546875000000e-01,-1.054687500000000000e-01,8.491210937500000000e-01
-1.000000000000000000e+00,2.000000000000000000e+00,-5.000000000000000000e+00,-1.000000000000000000e+00,-2.000000000000000000e+00,-2.000000000000000000e+00,-5.000000000000000000e+00,-2.000000000000000000e+00,-7.690429687500000000e-03,5.174560546875000000e-01,-1.054687500000000000e-01,8.491210937500000000e-01
2.000000000000000000e+00,4.000000000000000000e+00,1.900000000000000000e+01,-5.000000000000000000e+00,0.000000000000000000e+00,-1.000000000000000000e+00,5.000000000000000000e+00,7.000000000000000000e+00,-7.690429687500000000e-03,5.174560546875000000e-01,-1.054687500000000000e-01,8.491210937500000000e-01
0.000000000000000000e+00,1.000000000000000000e+00,1.100000000000000000e+01,-1.000000000000000000e+00,-1.000000000000000000e+00,-2.000000000000000000e+00,-2.000000000000000000e+00,0.000000000000000000e+00,-7.568359375000000000e-03,5.177612304687500000e-01,-1.050415039062500000e-01,8.489379882812500000e-01
-3.000000000000000000e+00,-7.000000000000000000e+00,-3.100000000000000000e+01,-1.000000000000000000e+01,-1.100000000000000000e+01,-7.000000000000000000e+00,-7.000000000000000000e+00,-5.000000000000000000e+00,-7.568359375000000000e-03,5.177612304687500000e-01,-1.050415039062500000e-01,8.489379882812500000e-01
-2.000000000000000000e+00,-2.000000000000000000e+00,-2.500000000000000000e+01,-1.400000000000000000e+01,-1.000000000000000000e+00,-1.000000000000000000e+00,6.000000000000000000e+00,-1.000000000000000000e+00,-7.568359375000000000e-03,5.177612304687500000e-01,-1.050415039062500000e-01,8.489379882812500000e-01
-2.000000000000000000e+00,-2.000000000000000000e+00,-3.000000000000000000e+00,6.000000000000000000e+00,2.000000000000000000e+00,-2.000000000000000000e+00,-2.000000000000000000e+00,-3.000000000000000000e+00,-7.568359375000000000e-03,5.177612304687500000e-01,-1.050415039062500000e-01,8.489379882812500000e-01
2.000000000000000000e+00,2.000000000000000000e+00,2.100000000000000000e+01,-3.000000000000000000e+00,-3.000000000000000000e+00,1.000000000000000000e+00,-9.000000000000000000e+00,-1.000000000000000000e+00,-7.812500000000000000e-03,5.179443359375000000e-01,-1.046142578125000000e-01,8.489379882812500000e-01
-1.000000000000000000e+00,-4.000000000000000000e+00,-2.900000000000000000e+01,3.000000000000000000e+00,1.200000000000000000e+01,4.000000000000000000e+00,1.300000000000000000e+01,4.000000000000000000e+00,-7.812500000000000000e-03,5.179443359375000000e-01,-1.046142578125000000e-01,8.489379882812500000e-01
-1.000000000000000000e+00,3.000000000000000000e+00,1.800000000000000000e+01,-1.700000000000000000e+01,-5.000000000000000000e+00,-2.000000000000000000e+00,-3.000000000000000000e+00,-2.000000000000000000e+00,-7.812500000000000000e-03,5.179443359375000000e-01,-1.046142578125000000e-01,8.489379882812500000e-01
-2.000000000000000000e+00,0.000000000000000000e+00,2.200000000000000000e+01,-9.000000000000000000e+00,-8.000000000000000000e+00,-4.000000000000000000e+00,-1.000000000000000000e+00,1.000000000000000000e+00,-7.812500000000000000e-03,5.179443359375000000e-01,-1.046142578125000000e-01,8.489379882812500000e-01
1.000000000000000000e+00,-2.000000000000000000e+00,-2.800000000000000000e+01,2.500000000000000000e+01,1.100000000000000000e+01,2.000000000000000000e+00,-2.000000000000000000e+00,0.000000000000000000e+00,-7.934570312500000000e-03,5.180664062500000000e-01,-1.044921875000000000e-01,8.488769531250000000e-01
-3.000000000000000000e+00,-1.000000000000000000e+00,1.900000000000000000e+01,-6.000000000000000000e+00,-7.000000000000000000e+00,-2.000000000000000000e+00,-1.200000000000000000e+01,-6.000000000000000000e+00,-7.934570312500000000e-03,5.180664062500000000e-01,-1.044921875000000000e-01,8.488769531250000000e-01
-2.000000000000000000e+00,-6.000000000000000000e+00,-1.100000000000000000e+01,-1.000000000000000000e+00,8.000000000000000000e+00,-2.000000000000000000e+00,0.000000000000000000e+00,-3.000000000000000000e+00,-7.934570312500000000e-03,5.180664062500000000e-01,-1.044921875000000000e-01,8.488769531250000000e-01
1.000000000000000000e+00,1.000000000000000000e+00,3.000000000000000000e+00,-2.000000000000000000e+01,-4.000000000000000000e+00,0.000000000000000000e+00,1.100000000000000000e+01,-1.000000000000000000e+00,-7.934570312500000000e-03,5.180664062500000000e-01,-1.044921875000000000e-01,8.488769531250000000e-01
3.000000000000000000e+00,3.000000000000000000e+00,1.300000000000000000e+01,1.600000000000000000e+01,-4.000000000000000000e+00,-1.000000000000000000e+00,3.000000000000000000e+00,3.000000000000000000e+00,-7.812500000000000000e-03,5.181884765625000000e-01,-1.046752929687500000e-01,8.487548828125000000e-01
4.000000000000000000e+00,5.000000000000000000e+00,-1.500000000000000000e+01,-1.000000000000000000e+00,2.000000000000000000e+01,6.000000000000000000e+00,-5.000000000000000000e+00,0.000000000000000000e+00,-7.812500000000000000e-03,5.181884765625000000e-01,-1.046752929687500000e-01,8.487548828125000000e-01
0.000000000000000000e+00,-2.000000000000000000e+00,2.000000000000000000e+00,7.000000000000000000e+00,1.000000000000000000e+00,-1.000000000000000000e+00,1.000000000000000000e+00,2.000000000000000000e+00,-7.812500000000000000e-03,5.181884765625000000e-01,-1.046752929687500000e-01,8.487548828125000000e-01
-2.000000000000000000e+00,-3.000000000000000000e+00,-1.700000000000000000e+01,1.300000000000000000e+01,2.000000000000000000e+00,-2.000000000000000000e+00,-8.000000000000000000e+00,-2.000000000000000000e+00,-7.812500000000000000e-03,5.181884765625000000e-01,-1.046752929687500000e-01,8.487548828125000000e-01
-1.000000000000000000e+00,-2.000000000000000000e+00,-1.000000000000000000e+00,0.000000000000000000e+00,-6.000000000000000000e+00,0.000000000000000000e+00,1.000000000000000000e+00,-1.000000000000000000e+00,-7.385253906250000000e-03,5.183105468750000000e-01,-1.050415039062500000e-01,8.486328125000000000e-01
-2.000000000000000000e+00,-2.000000000000000000e+00,-7.000000000000000000e+00,0.000000000000000000e+00,-3.000000000000000000e+00,-1.000000000000000000e+00,3.000000000000000000e+00,1.000000000000000000e+00,-7.385253906250000000e-03,5.183105468750000000e-01,-1.050415039062500000e-01,8.486328125000000000e-01
-1.000000000000000000e+00,4.000000000000000000e+00,2.300000000000000000e+01,1.000000000000000000e+00,-8.000000000000000000e+00,-4.000000000000000000e+00,-1.000000000000000000e+01,-5.000000000000000000e+00,-7.385253906250000000e-03,5.183105468750000000e-01,-1.050415039062500000e-01,8.486328125000000000e-01
-1.000000000000000000e+00,-1.000000000000000000e+00,0.000000000000000000e+00,-1.000000000000000000e+01,1.100000000000000000e+01,4.000000000000000000e+00,5.000000000000000000e+00,2.000000000000000000e+00,-7.385253906250000000e-03,5.183105468750000000e-01,-1.050415039062500000e-01,8.486328125000000000e-01
-4.000000000000000000e+00,-7.000000000000000000e+00,-1.200000000000000000e+01,-1.100000000000000000e+01,-1.000000000000000000e+01,-4.000000000000000000e+00,-1.000000000000000000e+00,-2.000000000000000000e+00,-7.080078125000000000e-03,5.186157226562500000e-01,-1.051025390625000000e-01,8.484497070312500000e-01
-4.000000000000000000e+00,-3.000000000000000000e+00,2.900000000000000000e+01,2.000000000000000000e+00,-9.000000000000000000e+00,-5.000000000000000000e+00,5.000000000000000000e+00,0.000000000000000000e+00,-7.080078125000000000e-03,5.186157226562500000e-01,-1.051025390625000000e-01,8.484497070312500000e-01
-1.000000000000000000e+00,1.000000000000000000e+00,0.000000000000000000e+00,1.000000000000000000e+01,5.000000000000000000e+00,1.000000000000000000e+00,5.000000000000000000e+00,3.000000000000000000e+00,-7.080078125000000000e-03,5.186157226562500000e-01,-1.051025390625000000e-01,8.484497070312500000e-01
1.000000000000000000e+00,1.000000000000000000e+00,6.000000000000000000e+00,-1.200000000000000000e+01,-1.300000000000000000e+01,-6.000000000000000000e+00,-8.000000000000000000e+00,-5.000000000000000000e+00,-7.080078125000000000e-03,5.186157226562500000e-01,-1.051025390625000000e-01,8.484497070312500000e-01
0.000000000000000000e+00,1.000000000000000000e+00,-1.400000000000000000e+01,1.000000000000000000e+00,3.000000000000000000e+00,0.000000000000000000e+00,3.000000000000000000e+00,1.000000000000000000e+00,-7.385253906250000000e-03,5.187988281250000000e-01,-1.049194335937500000e-01,8.483276367187500000e-01
-2.000000000000000000e+00,-6.000000000000000000e+00,-2.200000000000000000e+01,-2.700000000000000000e+01,-5.000000000000000000e+00,-2.000000000000000000e+00,-3.000000000000000000e+00,-2.000000000000000000e+00,-7.385253906250000000e-03,5.187988281250000000e-01,-1.049194335937500000e-01,8.483276367187500000e-01
