-3.000000000000000000e+00,1.000000000000000000e+00,1.600000000000000000e+01,3.600000000000000000e+01,-1.500000000000000000e+01,4.000000000000000000e+00,1.100000000000000000e+01,-1.000000000000000000e+00,-5.718994140625000000e-02,4.345092773437500000e-01,-7.421875000000000000e-02,8.957519531250000000e-01
2.000000000000000000e+00,-3.000000000000000000e+00,-3.400000000000000000e+01,-1.300000000000000000e+01,6.000000000000000000e+00,-5.000000000000000000e+00,-7.000000000000000000e+00,-3.000000000000000000e+00,-5.718994140625000000e-02,4.345092773437500000e-01,-7.421875000000000000e-02,8.957519531250000000e-01
-2.000000000000000000e+00,-9.000000000000000000e+00,-3.700000000000000000e+01,-1.400000000000000000e+01,3.000000000000000000e+00,7.000000000000000000e+00,0.000000000000000000e+00,2.000000000000000000e+00,-5.718994140625000000e-02,4.345092773437500000e-01,-7.421875000000000000e-02,8.957519531250000000e-01
-6.000000000000000000e+00,-9.000000000000000000e+00,3.000000000000000000e+00,2.000000000000000000e+01,-1.400000000000000000e+01,-9.000000000000000000e+00,0.000000000000000000e+00,-2.000000000000000000e+00,-5.718994140625000000e-02,4.345092773437500000e-01,-7.421875000000000000e-02,8.957519531250000000e-01
1.000000000000000000e+00,1.000000000000000000e+00,7.000000000000000000e+00,2.200000000000000000e+01,2.200000000000000000e+01,1.100000000000000000e+01,1.000000000000000000e+00,2.000000000000000000e+00,-5.731201171875000000e-02,4.346313476562500000e-01,-7.550048828125000000e-02,8.955688476562500000e-01
-3.000000000000000000e+00,-4.000000000000000000e+00,-1.200000000000000000e+01,6.000000000000000000e+00,-8.000000000000000000e+00,-7.000000000000000000e+00,-4.000000000000000000e+00,-1.000000000000000000e+00,-5.731201171875000000e-02,4.346313476562500000e-01,-7.550048828125000000e-02,8.955688476562500000e-01
8.000000000000000000e+00,3.000000000000000000e+00,1.800000000000000000e+01,8.000000000000000000e+00,9.000000000000000000e+00,5.000000000000000000e+00,0.000000000000000000e+00,-1.000000000000000000e+00,-5.731201171875000000e-02,4.346313476562500000e-01,-7.550048828125000000e-02,8.955688476562500000e-01
-2.100000000000000000e+01,-6.000000000000000000e+00,-2.000000000000000000e+00,-7.000000000000000000e+00,-9.000000000000000000e+00,-4.000000000000000000e+00,-9.000000000000000000e+00,-4.000000000000000000e+00,-5.731201171875000000e-02,4.346313476562500000e-01,-7.550048828125000000e-02,8.955688476562500000e-01
6.000000000000000000e+00,5.000000000000000000e+00,-5.000000000000000000e+00,-2.000000000000000000e+01,-1.100000000000000000e+01,-3.000000000000000000e+00,2.000000000000000000e+00,-1.000000000000000000e+00,-5.676269531250000000e-02,4.348144531250000000e-01,-7.696533203125000000e-02,8.953857421875000000e-01
-3.000000000000000000e+00,-4.000000000000000000e+00,7.000000000000000000e+00,3.000000000000000000e+01,6.000000000000000000e+00,-1.200000000000000000e+01,-1.000000000000000000e+01,1.000000000000000000e+00,-5.676269531250000000e-02,4.348144531250000000e-01,-7.696533203125000000e-02,8.953857421875000000e-01
3.000000000000000000e+00,2.000000000000000000e+00,0.000000000000000000e+00,-4.000000000000000000e+00,7.000000000000000000e+00,7.000000000000000000e+00,1.300000000000000000e+01,0.000000000000000000e+00,-5.676269531250000000e-02,4.348144531250000000e-01,-7.696533203125000000e-02,8.953857421875000000e-01
5.000000000000000000e+00,0.000000000000000000e+00,-2.500000000000000000e+01,-1.100000000000000000e+01,-1.000000000000000000e+00,7.000000000000000000e+00,5.000000000000000000e+00,3.000000000000000000e+00,-5.676269531250000000e-02,4.348144531250000000e-01,-7.696533203125000000e-02,8.953857421875000000e-01
-1.000000000000000000e+00,4.000000000000000000e+00,2.400000000000000000e+01,-1.600000000000000000e+01,0.000000000000000000e+00,1.000000000000000000e+00,5.000000000000000000e+00,1.000000000000000000e+00,-5.590820312500000000e-02,4.349365234375000000e-01,-7.830810546875000000e-02,8.952636718750000000e-01
-1.000000000000000000e+01,-1.100000000000000000e+01,-4.900000000000000000e+01,-4.700000000000000000e+01,-2.300000000000000000e+01,3.000000000000000000e+00,5.000000000000000000e+00,-6.000000000000000000e+00,-5.590820312500000000e-02,4.349365234375000000e-01,-7.830810546875000000e-02,8.952636718750000000e-01
-2.000000000000000000e+00,-1.000000000000000000e+01,9.000000000000000000e+00,2.000000000000000000e+01,-1.200000000000000000e+01,-7.000000000000000000e+00,-1.300000000000000000e+01,0.000000000000000000e+00,-5.590820312500000000e-02,4.349365234375000000e-01,-7.830810546875000000e-02,8.952636718750000000e-01
-8.000000000000000000e+00,6.000000000000000000e+00,2.500000000000000000e+01,9.100000000000000000e+01,6.900000000000000000e+01,1.300000000000000000e+01,7.000000000000000000e+00,0.000000000000000000e+00,-5.590820312500000000e-02,4.349365234375000000e-01,-7.830810546875000000e-02,8.952636718750000000e-01
-2.000000000000000000e+00,-2.000000000000000000e+00,-3.700000000000000000e+01,-2.200000000000000000e+01,-1.800000000000000000e+01,-9.000000000000000000e+00,-4.000000000000000000e+00,-3.000000000000000000e+00,-5.493164062500000000e-02,4.348754882812500000e-01,-7.904052734375000000e-02,8.952636718750000000e-01
3.000000000000000000e+00,-3.000000000000000000e+00,6.600000000000000000e+01,2.000000000000000000e+00,-7.000000000000000000e+00,-7.000000000000000000e+00,-6.000000000000000000e+00,0.000000000000000000e+00,-5.493164062500000000e-02,4.348754882812500000e-01,-7.904052734375000000e-02,8.952636718750000000e-01
-3.000000000000000000e+00,2.000000000000000000e+00,-5.000000000000000000e+00,-3.000000000000000000e+01,-1.600000000000000000e+01,-4.000000000000000000e+00,-1.000000000000000000e+00,-3.000000000000000000e+00,-5.493164062500000000e-02,4.348754882812500000e-01,-7.904052734375000000e-02,8.952636718750000000e-01
6.000000000000000000e+00,4.000000000000000000e+00,-2.000000000000000000e+00,-1.000000000000000000e+01,-1.000000000000000000e+01,-2.000000000000000000e+00,2.000000000000000000e+00,-3.000000000000000000e+00,-5.493164062500000000e-02,4.348754882812500000e-01,-7.904052734375000000e-02,8.952636718750000000e-01
1.000000000000000000e+00,-8.000000000000000000e+00,-3.000000000000000000e+00,-2.000000000000000000e+00,-1.000000000000000000e+00,-1.000000000000000000e+00,0.000000000000000000e+00,-1.000000000000000000e+00,-5.578613281250000000e-02,4.348144531250000000e-01,-7.904052734375000000e-02,8.952636718750000000e-01
-1.800000000000000000e+01,6.000000000000000000e+00,1.100000000000000000e+01,-3.000000000000000000e+00,-1.000000000000000000e+00,-1.000000000000000000e+00,1.000000000000000000e+01,-2.000000000000000000e+00,-5.578613281250000000e-02,4.348144531250000000e-01,-7.904052734375000000e-02,8.952636718750000000e-01
-1.000000000000000000e+00,0.000000000000000000e+00,2.800000000000000000e+01,1.900000000000000000e+01,1.000000000000000000e+01,-4.000000000000000000e+00,-3.000000000000000000e+00,-1.000000000000000000e+00,-5.578613281250000000e-02,4.348144531250000000e-01,-7.904052734375000000e-02,8.952636718750000000e-01
1.000000000000000000e+01,1.000000000000000000e+00,-2.000000000000000000e+00,-1.700000000000000000e+01,-1.000000000000000000e+00,3.000000000000000000e+00,8.000000000000000000e+00,2.000000000000000000e+00,-5.578613281250000000e-02,4.348144531250000000e-01,-7.904052734375000000e-02,8.952636718750000000e-01
5.000000000000000000e+00,8.000000000000000000e+00,0.000000000000000000e+00,1.100000000000000000e+01,5.000000000000000000e+00,1.800000000000000000e+01,1.000000000000000000e+00,4.000000000000000000e+00,-5.706787109375000000e-02,4.343872070312500000e-01,-7.928466796875000000e-02,8.953857421875000000e-01
0.000000000000000000e+00,-5.000000000000000000e+00,-2.000000000000000000e+00,1.200000000000000000e+01,2.000000000000000000e+00,-4.000000000000000000e+00,-9.000000000000000000e+00,-5.000000000000000000e+00,-5.706787109375000000e-02,4.343872070312500000e-01,-7.928466796875000000e-02,8.953857421875000000e-01
-9.000000000000000000e+00,0.000000000000000000e+00,-8.000000000000000000e+00,-2.200000000000000000e+01,-2.000000000000000000e+00,-1.000000000000000000e+00,1.100000000000000000e+01,-1.000000000000000000e+00,-5.706787109375000000e-02,4.343872070312500000e-01,-7.928466796875000000e-02,8.953857421875000000e-01
1.000000000000000000e+01,0.000000000000000000e+00,-1.400000000000000000e+01,-2.900000000000000000e+01,-1.800000000000000000e+01,-6.000000000000000000e+00,-4.000000000000000000e+00,3.000000000000000000e+00,-5.706787109375000000e-02,4.343872070312500000e-01,-7.928466796875000000e-02,8.953857421875000000e-01
-3.000000000000000000e+00,1.000000000000000000e+00,-6.000000000000000000e+00,7.000000000000000000e+00,-2.700000000000000000e+01,-1.600000000000000000e+01,-8.000000000000000000e+00,-2.000000000000000000e+00,-5.725097656250000000e-02,4.341430664062500000e-01,-8.026123046875000000e-02,8.953857421875000000e-01
2.000000000000000000e+00,-1.000000000000000000e+00,-2.000000000000000000e+00,4.000000000000000000e+01,9.000000000000000000e+00,1.000000000000000000e+00,-6.000000000000000000e+00,-1.000000000000000000e+00,-5.725097656250000000e-02,4.341430664062500000e-01,-8.026123046875000000e-02,8.953857421875000000e-01
-1.000000000000000000e+00,8.000000000000000000e+00,1.300000000000000000e+01,6.000000000000000000e+00,1.300000000000000000e+01,-1.000000000000000000e+00,-6.000000000000000000e+00,-1.000000000000000000e+00,-5.725097656250000000e-02,4.341430664062500000e-01,-8.026123046875000000e-02,8.953857421875000000e-01
-3.000000000000000000e+00,-9.000000000000000000e+00,-2.000000000000000000e+00,-9.000000000000000000e+00,-1.500000000000000000e+01,-8.000000000000000000e+00,-7.000000000000000000e+00,-6.000000000000000000e+00,-5.725097656250000000e-02,4.341430664062500000e-01,-8.026123046875000000e-02,8.953857421875000000e-01
0.000000000000000000e+00,-1.000000000000000000e+00,6.000000000000000000e+00,-1.900000000000000000e+01,-1.500000000000000000e+01,-3.000000000000000000e+00,0.000000000000000000e+00,-1.000000000000000000e+00,-5.676269531250000000e-02,4.342651367187500000e-01,-8.142089843750000000e-02,8.952636718750000000e-01
-7.000000000000000000e+00,-8.000000000000000000e+00,-3.600000000000000000e+01,-2.700000000000000000e+01,2.000000000000000000e+00,3.000000000000000000e+00,-1.000000000000000000e+00,0.000000000000000000e+00,-5.676269531250000000e-02,4.342651367187500000e-01,-8.142089843750000000e-02,8.952636718750000000e-01
1.000000000000000000e+00,5.000000000000000000e+00,2.100000000000000000e+01,1.000000000000000000e+00,-6.000000000000000000e+00,-7.000000000000000000e+00,-4.000000000000000000e+00,0.000000000000000000e+00,-5.676269531250000000e-02,4.342651367187500000e-01,-8.142089843750000000e-02,8.952636718750000000e-01
2.000000000000000000e+00,1.000000000000000000e+01,2.200000000000000000e+01,4.300000000000000000e+01,1.000000000000000000e+01,2.000000000000000000e+00,1.000000000000000000e+00,2.000000000000000000e+00,-5.676269531250000000e-02,4.342651367187500000e-01,-8.142089843750000000e-02,8.952636718750000000e-01
-1.000000000000000000e+00,-2.000000000000000000e+00,3.000000000000000000e+00,-1.900000000000000000e+01,5.000000000000000000e+00,1.000000000000000000e+00,6.000000000000000000e+00,-2.000000000000000000e+00,-5.603027343750000000e-02,4.342041015625000000e-01,-8.190917968750000000e-02,8.953247070312500000e-01
7.000000000000000000e+00,0.000000000000000000e+00,-1.300000000000000000e+01,4.100000000000000000e+01,-2.300000000000000000e+01,-1.900000000000000000e+01,-6.000000000000000000e+00,-2.000000000000000000e+00,-5.603027343750000000e-02,4.342041015625000000e-01,-8.190917968750000000e-02,8.953247070312500000e-01
-1.000000000000000000e+01,1.000000000000000000e+00,-1.000000000000000000e+01,1.000000000000000000e+00,2.600000000000000000e+01,2.400000000000000000e+01,4.000000000000000000e+00,6.000000000000000000e+00,-5.603027343750000000e-02,4.342041015625000000e-01,-8.190917968750000000e-02,8.953247070312500000e-01
2.000000000000000000e+00,4.000000000000000000e+00,3.600000000000000000e+01,-2.600000000000000000e+01,-1.600000000000000000e+01,-1.000000000000000000e+00,2.000000000000000000e+00,-3.000000000000000000e+00,-5.603027343750000000e-02,4.342041015625000000e-01,-8.190917968750000000e-02,8.953247070312500000e-01
-8.000000000000000000e+00,-8.000000000000000000e+00,-1.400000000000000000e+01,1.500000000000000000e+01,2.000000000000000000e+01,-7.000000000000000000e+00,-6.000000000000000000e+00,-3.000000000000000000e+00,-5.590820312500000000e-02,4.340209960937500000e-01,-8.166503906250000000e-02,8.953857421875000000e-01
5.000000000000000000e+00,-2.000000000000000000e+00,-3.000000000000000000e+00,-2.600000000000000000e+01,-5.000000000000000000e+00,1.800000000000000000e+01,1.700000000000000000e+01,0.000000000000000000e+00,-5.590820312500000000e-02,4.340209960937500000e-01,-8.166503906250000000e-02,8.953857421875000000e-01
3.000000000000000000e+00,4.000000000000000000e+00,-2.000000000000000000e+00,5.000000000000000000e+00,-4.000000000000000000e+00,-5.000000000000000000e+00,-7.000000000000000000e+00,2.000000000000000000e+00,-5.590820312500000000e-02,4.340209960937500000e-01,-8.166503906250000000e-02,8.953857421875000000e-01
-4.000000000000000000e+00,-1.100000000000000000e+01,-3.500000000000000000e+01,-7.000000000000000000e+00,-8.000000000000000000e+00,-4.000000000000000000e+00,-9.000000000000000000e+00,-2.000000000000000000e+00,-5.590820312500000000e-02,4.340209960937500000e-01,-8.166503906250000000e-02,8.953857421875000000e-01
-2.000000000000000000e+00,4.000000000000000000e+00,-1.800000000000000000e+01,-5.700000000000000000e+01,-2.300000000000000000e+01,-1.800000000000000000e+01,-6.000000000000000000e+00,-2.000000000000000000e+00,-5.639648437500000000e-02,4.338378906250000000e-01,-8.093261718750000000e-02,8.955078125000000000e-01
1.000000000000000000e+00,5.000000000000000000e+00,2.400000000000000000e+01,4.500000000000000000e+01,2.200000000000000000e+01,2.000000000000000000e+00,-3.000000000000000000e+00,1.000000000000000000e+00,-5.639648437500000000e-02,4.338378906250000000e-01,-8.093261718750000000e-02,8.955078125000000000e-01
6.000000000000000000e+00,0.000000000000000000e+00,-1.800000000000000000e+01,-6.000000000000000000e+00,-1.600000000000000000e+01,-1.000000000000000000e+00,2.000000000000000000e+00,-3.000000000000000000e+00,-5.639648437500000000e-02,4.338378906250000000e-01,-8.093261718750000000e-02,8.955078125000000000e-01
6.000000000000000000e+00,6.000000000000000000e+00,7.000000000000000000e+00,-2.600000000000000000e+01,0.000000000000000000e+00,0.000000000000000000e+00,-3.000000000000000000e+00,-1.000000000000000000e+00,-5.639648437500000000e-02,4.338378906250000000e-01,-8.093261718750000000e-02,8.955078125000000000e-01
-1.100000000000000000e+01,-1.100000000000000000e+01,-7.000000000000000000e+00,2.900000000000000000e+01,-2.000000000000000000e+00,0.000000000000000000e+00,0.000000000000000000e+00,-4.000000000000000000e+00,-5.688476562500000000e-02,4.338989257812500000e-01,-8.007812500000000000e-02,8.955078125000000000e-01
2.000000000000000000e+00,6.000000000000000000e+00,-2.500000000000000000e+01,-1.300000000000000000e+01,2.400000000000000000e+01,-1.000000000000000000e+00,1.000000000000000000e+00,1.000000000000000000e+00,-5.688476562500000000e-02,4.338989257812500000e-01,-8.007812500000000000e-02,8.955078125000000000e-01
-1.000000000000000000e+00,2.000000000000000000e+00,1.100000000000000000e+01,3.200000000000000000e+01,1.500000000000000000e+01,1.000000000000000000e+00,-5.000000000000000000e+00,-4.000000000000000000e+00,-5.688476562500000000e-02,4.338989257812500000e-01,-8.007812500000000000e-02,8.955078125000000000e-01
1.000000000000000000e+01,-1.000000000000000000e+00,-3.000000000000000000e+00,1.100000000000000000e+01,-7.000000000000000000e+00,-1.500000000000000000e+01,-1.600000000000000000e+01,1.000000000000000000e+00,-5.688476562500000000e-02,4.338989257812500000e-01,-8.007812500000000000e-02,8.955078125000000000e-01
-1.200000000000000000e+01,-7.000000000000000000e+00,-6.000000000000000000e+00,-2.200000000000000000e+01,-1.000000000000000000e+00,1.800000000000000000e+01,1.500000000000000000e+01,1.000000000000000000e+00,-5.566406250000000000e-02,4.341430664062500000e-01,-7.989501953125000000e-02,8.955078125000000000e-01
1.000000000000000000e+00,1.000000000000000000e+00,3.200000000000000000e+01,-1.700000000000000000e+01,-1.000000000000000000e+01,1.200000000000000000e+01,9.000000000000000000e+00,0.000000000000000000e+00,-5.566406250000000000e-02,4.341430664062500000e-01,-7.989501953125000000e-02,8.955078125000000000e-01
-3.000000000000000000e+00,-1.400000000000000000e+01,-4.200000000000000000e+01,-5.000000000000000000e+00,-5.000000000000000000e+00,-1.000000000000000000e+01,-7.000000000000000000e+00,-2.000000000000000000e+00,-5.566406250000000000e-02,4.341430664062500000e-01,-7.989501953125000000e-02,8.955078125000000000e-01
4.000000000000000000e+00,1.000000000000000000e+01,-2.000000000000000000e+01,-1.600000000000000000e+01,-3.000000000000000000e+00,0.000000000000000000e+00,-9.000000000000000000e+00,2.000000000000000000e+00,-5.566406250000000000e-02,4.341430664062500000e-01,-7.989501953125000000e-02,8.955078125000000000e-01
2.000000000000000000e+00,-1.000000000000000000e+00,-1.000000000000000000e+01,9.000000000000000000e+00,3.000000000000000000e+00,1.000000000000000000e+00,-3.000000000000000000e+00,-2.000000000000000000e+00,-5.462646484375000000e-02,4.343872070312500000e-01,-7.922363281250000000e-02,8.955078125000000000e-01
-5.000000000000000000e+00,-3.000000000000000000e+00,4.300000000000000000e+01,1.000000000000000000e+00,1.000000000000000000e+00,-4.000000000000000000e+00,7.000000000000000000e+00,-4.000000000000000000e+00,-5.462646484375000000e-02,4.343872070312500000e-01,-7.922363281250000000e-02,8.955078125000000000e-01
5.000000000000000000e+00,4.000000000000000000e+00,-2.400000000000000000e+01,-2.200000000000000000e+01,-5.000000000000000000e+00,5.000000000000000000e+00,-7.000000000000000000e+00,2.000000000000000000e+00,-5.462646484375000000e-02,4.343872070312500000e-01,-7.922363281250000000e-02,8.955078125000000000e-01
-2.000000000000000000e+00,-1.000000000000000000e+00,1.800000000000000000e+01,-2.300000000000000000e+01,-2.000000000000000000e+00,4.000000000000000000e+00,2.900000000000000000e+01,1.000000000000000000e+00,-5.462646484375000000e-02,4.343872070312500000e-01,-7.922363281250000000e-02,8.955078125000000000e-01
0.000000000000000000e+00,1.000000000000000000e+00,6.000000000000000000e+00,1.500000000000000000e+01,-8.000000000000000000e+00,-6.000000000000000000e+00,-8.000000000000000000e+00,-3.000000000000000000e+00,-5.401611328125000000e-02,4.346313476562500000e-01,-7.873535156250000000e-02,8.955078125000000000e-01
2.000000000000000000e+00,-5.000000000000000000e+00,-3.900000000000000000e+01,3.600000000000000000e+01,5.200000000000000000e+01,7.000000000000000000e+00,-6.000000000000000000e+00,1.000000000000000000e+00,-5.401611328125000000e-02,4.346313476562500000e-01,-7.873535156250000000e-02,8.955078125000000000e-01
0.000000000000000000e+00,4.000000000000000000e+00,3.300000000000000000e+01,-1.800000000000000000e+01,-1.600000000000000000e+01,-9.000000000000000000e+00,3.000000000000000000e+00,-4.000000000000000000e+00,-5.401611328125000000e-02,4.346313476562500000e-01,-7.873535156250000000e-02,8.955078125000000000e-01
-5.000000000000000000e+00,-2.000000000000000000e+00,-3.000000000000000000e+00,2.400000000000000000e+01,1.500000000000000000e+01,5.000000000000000000e+00,-2.000000000000000000e+00,-2.000000000000000000e+00,-5.401611328125000000e-02,4.346313476562500000e-01,-7.873535156250000000e-02,8.955078125000000000e-01
-1.000000000000000000e+00,-3.000000000000000000e+00,-9.000000000000000000e+00,-2.300000000000000000e+01,-1.400000000000000000e+01,-5.000000000000000000e+00,-7.000000000000000000e+00,0.000000000000000000e+00,-5.297851562500000000e-02,4.348754882812500000e-01,-7.861328125000000000e-02,8.954467773437500000e-01
-1.000000000000000000e+00,6.000000000000000000e+00,1.200000000000000000e+01,-2.500000000000000000e+01,-1.800000000000000000e+01,-1.000000000000000000e+01,-5.000000000000000000e+00,-1.000000000000000000e+00,-5.297851562500000000e-02,4.348754882812500000e-01,-7.861328125000000000e-02,8.954467773437500000e-01
-2.000000000000000000e+00,-8.000000000000000000e+00,-3.700000000000000000e+01,-1.000000000000000000e+00,-3.000000000000000000e+00,-5.000000000000000000e+00,-1.800000000000000000e+01,-2.000000000000000000e+00,-5.297851562500000000e-02,4.348754882812500000e-01,-7.861328125000000000e-02,8.954467773437500000e-01
-6.000000000000000000e+00,-4.000000000000000000e+00,4.500000000000000000e+01,5.000000000000000000e+00,-8.000000000000000000e+00,-2.000000000000000000e+00,1.100000000000000000e+01,-5.000000000000000000e+00,-5.297851562500000000e-02,4.348754882812500000e-01,-7.861328125000000000e-02,8.954467773437500000e-01
4.000000000000000000e+00,5.000000000000000000e+00,2.600000000000000000e+01,2.100000000000000000e+01,1.500000000000000000e+01,1.900000000000000000e+01,1.600000000000000000e+01,2.000000000000000000e+00,-5.310058593750000000e-02,4.353637695312500000e-01,-7.800292968750000000e-02,8.952636718750000000e-01
0.000000000000000000e+00,-3.000000000000000000e+00,-4.400000000000000000e+01,-1.900000000000000000e+01,-1.300000000000000000e+01,-1.000000000000000000e+01,-1.100000000000000000e+01,-1.000000000000000000e+00,-5.310058593750000000e-02,4.353637695312500000e-01,-7.800292968750000000e-02,8.952636718750000000e-01
-6.000000000000000000e+00,-9.000000000000000000e+00,3.000000000000000000e+00,-2.000000000000000000e+00,1.000000000000000000e+00,4.000000000000000000e+00,8.000000000000000000e+00,-4.000000000000000000e+00,-5.310058593750000000e-02,4.353637695312500000e-01,-7.800292968750000000e-02,8.952636718750000000e-01
1.000000000000000000e+00,-1.000000000000000000e+00,-1.100000000000000000e+01,-3.600000000000000000e+01,-2.400000000000000000e+01,-1.700000000000000000e+01,-1.700000000000000000e+01,0.000000000000000000e+00,-5.310058593750000000e-02,4.353637695312500000e-01,-7.800292968750000000e-02,8.952636718750000000e-01
3.000000000000000000e+00,4.000000000000000000e+00,6.000000000000000000e+00,6.600000000000000000e+01,4.100000000000000000e+01,1.200000000000000000e+01,1.200000000000000000e+01,1.000000000000000000e+00,-5.413818359375000000e-02,4.353027343750000000e-01,-7.794189453125000000e-02,8.952026367187500000e-01
-1.000000000000000000e+00,0.000000000000000000e+00,1.400000000000000000e+01,-2.000000000000000000e+01,-1.600000000000000000e+01,-1.300000000000000000e+01,-1.400000000000000000e+01,-1.300000000000000000e+01,-5.413818359375000000e-02,4.353027343750000000e-01,-7.794189453125000000e-02,8.952026367187500000e-01
4.000000000000000000e+00,5.000000000000000000e+00,3.000000000000000000e+00,-3.000000000000000000e+00,7.000000000000000000e+00,1.400000000000000000e+01,1.700000000000000000e+01,1.200000000000000000e+01,-5.413818359375000000e-02,4.353027343750000000e-01,-7.794189453125000000e-02,8.952026367187500000e-01
-5.000000000000000000e+00,-6.000000000000000000e+00,-3.300000000000000000e+01,-1.000000000000000000e+01,-4.000000000000000000e+00,-2.000000000000000000e+00,-1.000000000000000000e+01,-6.000000000000000000e+00,-5.413818359375000000e-02,4.353027343750000000e-01,-7.794189453125000000e-02,8.952026367187500000e-01
2.000000000000000000e+00,-3.000000000000000000e+00,-1.200000000000000000e+01,-1.800000000000000000e+01,-6.000000000000000000e+00,-9.000000000000000000e+00,3.000000000000000000e+00,1.000000000000000000e+00,-5.401611328125000000e-02,4.348144531250000000e-01,-7.934570312500000000e-02,8.953247070312500000e-01
-3.000000000000000000e+00,1.000000000000000000e+00,-2.000000000000000000e+00,-1.600000000000000000e+01,-8.000000000000000000e+00,-4.000000000000000000e+00,-5.000000000000000000e+00,5.000000000000000000e+00,-5.401611328125000000e-02,4.348144531250000000e-01,-7.934570312500000000e-02,8.953247070312500000e-01
-2.000000000000000000e+00,-3.000000000000000000e+00,3.000000000000000000e+00,1.500000000000000000e+01,5.000000000000000000e+00,-2.000000000000000000e+00,5.000000000000000000e+00,-1.000000000000000000e+01,-5.401611328125000000e-02,4.348144531250000000e-01,-7.934570312500000000e-02,8.953247070312500000e-01
-2.000000000000000000e+00,-5.000000000000000000e+00,-1.200000000000000000e+01,1.700000000000000000e+01,5.000000000000000000e+00,7.000000000000000000e+00,4.000000000000000000e+00,1.000000000000000000e+00,-5.401611328125000000e-02,4.348144531250000000e-01,-7.934570312500000000e-02,8.953247070312500000e-01
0.000000000000000000e+00,-2.000000000000000000e+00,-1.900000000000000000e+01,-2.100000000000000000e+01,-8.000000000000000000e+00,-8.000000000000000000e+00,-1.400000000000000000e+01,-3.000000000000000000e+00,-5.285644531250000000e-02,4.342041015625000000e-01,-8.129882812500000000e-02,8.955688476562500000e-01
1.000000000000000000e+00,-7.000000000000000000e+00,2.600000000000000000e+01,-3.000000000000000000e+00,-1.100000000000000000e+01,-2.000000000000000000e+00,-1.000000000000000000e+00,-3.000000000000000000e+00,-5.285644531250000000e-02,4.342041015625000000e-01,-8.129882812500000000e-02,8.955688476562500000e-01
-7.000000000000000000e+00,-8.000000000000000000e+00,2.600000000000000000e+01,3.000000000000000000e+00,-3.000000000000000000e+00,-6.000000000000000000e+00,1.000000000000000000e+00,-3.000000000000000000e+00,-5.285644531250000000e-02,4.342041015625000000e-01,-8.129882812500000000e-02,8.955688476562500000e-01
3.000000000000000000e+00,1.100000000000000000e+01,1.400000000000000000e+01,5.000000000000000000e+00,1.400000000000000000e+01,8.000000000000000000e+00,-1.000000000000000000e+00,2.000000000000000000e+00,-5.285644531250000000e-02,4.342041015625000000e-01,-8.129882812500000000e-02,8.955688476562500000e-01
-3.000000000000000000e+00,-6.000000000000000000e+00,-3.900000000000000000e+01,1.000000000000000000e+00,-1.300000000000000000e+01,-1.800000000000000000e+01,-4.000000000000000000e+00,-8.000000000000000000e+00,-5.194091796875000000e-02,4.334106445312500000e-01,-8.300781250000000000e-02,8.958129882812500000e-01
0.000000000000000000e+00,1.000000000000000000e+00,1.000000000000000000e+01,9.000000000000000000e+00,7.000000000000000000e+00,2.500000000000000000e+01,9.000000000000000000e+00,6.000000000000000000e+00,-5.194091796875000000e-02,4.334106445312500000e-01,-8.300781250000000000e-02,8.958129882812500000e-01
1.000000000000000000e+00,2.000000000000000000e+00,-1.300000000000000000e+01,6.000000000000000000e+00,-2.000000000000000000e+00,6.000000000000000000e+00,5.000000000000000000e+00,0.000000000000000000e+00,-5.194091796875000000e-02,4.334106445312500000e-01,-8.300781250000000000e-02,8.958129882812500000e-01
-1.000000000000000000e+00,1.000000000000000000e+00,1.500000000000000000e+01,4.000000000000000000e+00,1.000000000000000000e+00,-5.000000000000000000e+00,-5.000000000000000000e+00,0.000000000000000000e+00,-5.194091796875000000e-02,4.334106445312500000e-01,-8.300781250000000000e-02,8.958129882812500000e-01
-1.000000000000000000e+00,-1.000000000000000000e+00,-5.000000000000000000e+00,-2.500000000000000000e+01,-1.900000000000000000e+01,-7.000000000000000000e+00,-5.000000000000000000e+00,-4.000000000000000000e+00,-5.151367187500000000e-02,4.324951171875000000e-01,-8.422851562500000000e-02,8.961791992187500000e-01
1.000000000000000000e+00,-2.000000000000000000e+00,2.000000000000000000e+00,8.000000000000000000e+00,1.900000000000000000e+01,-3.000000000000000000e+00,-3.000000000000000000e+00,0.000000000000000000e+00,-5.151367187500000000e-02,4.324951171875000000e-01,-8.422851562500000000e-02,8.961791992187500000e-01
-1.000000000000000000e+00,0.000000000000000000e+00,1.900000000000000000e+01,-1.300000000000000000e+01,1.000000000000000000e+00,-3.000000000000000000e+00,-1.000000000000000000e+00,0.000000000000000000e+00,-5.151367187500000000e-02,4.324951171875000000e-01,-8.422851562500000000e-02,8.961791992187500000e-01
-3.000000000000000000e+00,-6.000000000000000000e+00,-1.500000000000000000e+01,6.000000000000000000e+00,-2.200000000000000000e+01,0.000000000000000000e+00,-5.000000000000000000e+00,-3.000000000000000000e+00,-5.151367187500000000e-02,4.324951171875000000e-01,-8.422851562500000000e-02,8.961791992187500000e-01
2.000000000000000000e+00,4.000000000000000000e+00,1.900000000000000000e+01,-9.000000000000000000e+00,2.300000000000000000e+01,7.000000000000000000e+00,1.300000000000000000e+01,6.000000000000000000e+00,-5.151367187500000000e-02,4.314575195312500000e-01,-8.489990234375000000e-02,8.966064453125000000e-01
-1.000000000000000000e+00,-6.000000000000000000e+00,-3.000000000000000000e+01,1.900000000000000000e+01,-1.000000000000000000e+01,2.000000000000000000e+00,1.000000000000000000e+00,-3.000000000000000000e+00,-5.151367187500000000e-02,4.314575195312500000e-01,-8.489990234375000000e-02,8.966064453125000000e-01
3.000000000000000000e+00,-1.000000000000000000e+00,-3.000000000000000000e+00,-5.000000000000000000e+00,1.300000000000000000e+01,-4.000000000000000000e+00,-4.000000000000000000e+00,-2.000000000000000000e+00,-5.151367187500000000e-02,4.314575195312500000e-01,-8.489990234375000000e-02,8.966064453125000000e-01
-1.000000000000000000e+01,2.000000000000000000e+00,1.700000000000000000e+01,1.200000000000000000e+01,4.000000000000000000e+00,-3.000000000000000000e+00,0.000000000000000000e+00,-3.000000000000000000e+00,-5.151367187500000000e-02,4.314575195312500000e-01,-8.489990234375000000e-02,8.966064453125000000e-01
3.000000000000000000e+00,-8.000000000000000000e+00,-3.500000000000000000e+01,5.000000000000000000e+00,-6.000000000000000000e+00,-3.000000000000000000e+00,-8.000000000000000000e+00,-2.000000000000000000e+00,-5.200195312500000000e-02,4.306640625000000000e-01,-8.551025390625000000e-02,8.969116210937500000e-01
-1.200000000000000000e+01,-1.000000000000000000e+00,8.000000000000000000e+00,-1.800000000000000000e+01,-1.500000000000000000e+01,-1.700000000000000000e+01,-6.000000000000000000e+00,0.000000000000000000e+00,-5.200195312500000000e-02,4.306640625000000000e-01,-8.551025390625000000e-02,8.969116210937500000e-01
8.000000000000000000e+00,4.000000000000000000e+00,-5.000000000000000000e+00,0.000000000000000000e+00,-9.000000000000000000e+00,-3.000000000000000000e+00,-7.000000000000000000e+00,-2.000000000000000000e+00,-5.200195312500000000e-02,4.306640625000000000e-01,-8.551025390625000000e-02,8.969116210937500000e-01
-1.000000000000000000e+01,-1.500000000000000000e+01,1.000000000000000000e+01,-7.000000000000000000e+00,3.000000000000000000e+00,-1.000000000000000000e+01,-8.000000000000000000e+00,-5.000000000000000000e+00,-5.200195312500000000e-02,4.306640625000000000e-01,-8.551025390625000000e-02,8.969116210937500000e-01
5.000000000000000000e+00,4.000000000000000000e+00,1.700000000000000000e+01,-2.200000000000000000e+01,-1.000000000000000000e+00,3.000000000000000000e+00,7.000000000000000000e+00,0.000000000000000000e+00,-5.285644531250000000e-02,4.302368164062500000e-01,-8.624267578125000000e-02,8.969726562500000000e-01
8.000000000000000000e+00,4.000000000000000000e+00,-1.600000000000000000e+01,1.800000000000000000e+01,1.400000000000000000e+01,9.000000000000000000e+00,9.000000000000000000e+00,3.000000000000000000e+00,-5.285644531250000000e-02,4.302368164062500000e-01,-8.624267578125000000e-02,8.969726562500000000e-01
-1.200000000000000000e+01,-3.000000000000000000e+00,-4.000000000000000000e+00,1.000000000000000000e+00,-1.200000000000000000e+01,-2.000000000000000000e+01,2.000000000000000000e+00,-4.000000000000000000e+00,-5.285644531250000000e-02,4.302368164062500000e-01,-8.624267578125000000e-02,8.969726562500000000e-01
0.000000000000000000e+00,0.000000000000000000e+00,1.200000000000000000e+01,2.000000000000000000e+01,9.000000000000000000e+00,2.000000000000000000e+01,2.000000000000000000e+00,0.000000000000000000e+00,-5.285644531250000000e-02,4.302368164062500000e-01,-8.624267578125000000e-02,8.969726562500000000e-01
-1.000000000000000000e+01,-7.000000000000000000e+00,3.000000000000000000e+00,-4.000000000000000000e+01,-3.100000000000000000e+01,-7.000000000000000000e+00,-8.000000000000000000e+00,-3.000000000000000000e+00,-5.316162109375000000e-02,4.301147460937500000e-01,-8.703613281250000000e-02,8.969726562500000000e-01
5.000000000000000000e+00,8.000000000000000000e+00,2.100000000000000000e+01,1.500000000000000000e+01,4.100000000000000000e+01,4.000000000000000000e+00,1.000000000000000000e+00,1.000000000000000000e+00,-5.316162109375000000e-02,4.301147460937500000e-01,-8.703613281250000000e-02,8.969726562500000000e-01
-6.000000000000000000e+00,-1.400000000000000000e+01,-5.100000000000000000e+01,5.000000000000000000e+00,-1.000000000000000000e+00,-1.000000000000000000e+00,-1.000000000000000000e+00,-1.000000000000000000e+00,-5.316162109375000000e-02,4.301147460937500000e-01,-8.703613281250000000e-02,8.969726562500000000e-01
-1.000000000000000000e+00,-5.000000000000000000e+00,-9.000000000000000000e+00,4.000000000000000000e+00,-2.900000000000000000e+01,-1.000000000000000000e+01,-1.000000000000000000e+00,-3.000000000000000000e+00,-5.316162109375000000e-02,4.301147460937500000e-01,-8.703613281250000000e-02,8.969726562500000000e-01
1.400000000000000000e+01,1.600000000000000000e+01,3.300000000000000000e+01,4.900000000000000000e+01,4.300000000000000000e+01,1.300000000000000000e+01,4.000000000000000000e+00,7.000000000000000000e+00,-5.303955078125000000e-02,4.302368164062500000e-01,-8.734130859375000000e-02,8.968505859375000000e-01
-8.000000000000000000e+00,-6.000000000000000000e+00,-3.400000000000000000e+01,-2.200000000000000000e+01,-1.800000000000000000e+01,-3.000000000000000000e+00,2.000000000000000000e+00,1.000000000000000000e+00,-5.303955078125000000e-02,4.302368164062500000e-01,-8.734130859375000000e-02,8.968505859375000000e-01
7.000000000000000000e+00,1.700000000000000000e+01,1.500000000000000000e+01,-7.000000000000000000e+00,-1.000000000000000000e+01,-5.000000000000000000e+00,-8.000000000000000000e+00,-3.000000000000000000e+00,-5.303955078125000000e-02,4.302368164062500000e-01,-8.734130859375000000e-02,8.968505859375000000e-01
-3.000000000000000000e+00,-1.000000000000000000e+01,6.000000000000000000e+00,-9.000000000000000000e+00,-5.000000000000000000e+00,0.000000000000000000e+00,7.000000000000000000e+00,-1.000000000000000000e+00,-5.303955078125000000e-02,4.302368164062500000e-01,-8.734130859375000000e-02,8.968505859375000000e-01
-5.000000000000000000e+00,0.000000000000000000e+00,-5.000000000000000000e+00,9.000000000000000000e+00,-4.000000000000000000e+00,-6.000000000000000000e+00,-9.000000000000000000e+00,-1.000000000000000000e+00,-5.310058593750000000e-02,4.302978515625000000e-01,-8.691406250000000000e-02,8.969116210937500000e-01
1.000000000000000000e+00,0.000000000000000000e+00,1.300000000000000000e+01,5.000000000000000000e+00,-1.200000000000000000e+01,-1.600000000000000000e+01,-1.000000000000000000e+01,-4.000000000000000000e+00,-5.310058593750000000e-02,4.302978515625000000e-01,-8.691406250000000000e-02,8.969116210937500000e-01
-3.000000000000000000e+00,-4.000000000000000000e+00,1.700000000000000000e+01,-1.000000000000000000e+01,9.000000000000000000e+00,1.600000000000000000e+01,1.300000000000000000e+01,1.000000000000000000e+00,-5.310058593750000000e-02,4.302978515625000000e-01,-8.691406250000000000e-02,8.969116210937500000e-01
1.200000000000000000e+01,5.000000000000000000e+00,-1.000000000000000000e+01,-4.000000000000000000e+00,-4.000000000000000000e+00,-3.000000000000000000e+00,-7.000000000000000000e+00,2.000000000000000000e+00,-5.310058593750000000e-02,4.302978515625000000e-01,-8.691406250000000000e-02,8.969116210937500000e-01
-1.900000000000000000e+01,-6.000000000000000000e+00,5.000000000000000000e+00,5.000000000000000000e+00,-4.000000000000000000e+00,4.000000000000000000e+00,0.000000000000000000e+00,-1.000000000000000000e+00,-5.389404296875000000e-02,4.304809570312500000e-01,-8.612060546875000000e-02,8.968505859375000000e-01
-1.000000000000000000e+00,-8.000000000000000000e+00,-9.000000000000000000e+00,-1.900000000000000000e+01,-1.600000000000000000e+01,-2.800000000000000000e+01,-1.600000000000000000e+01,-5.000000000000000000e+00,-5.389404296875000000e-02,4.304809570312500000e-01,-8.612060546875000000e-02,8.968505859375000000e-01
6.000000000000000000e+00,7.000000000000000000e+00,7.000000000000000000e+00,1.000000000000000000e+00,-1.200000000000000000e+01,-1.000000000000000000e+00,-1.700000000000000000e+01,1.000000000000000000e+00,-5.389404296875000000e-02,4.304809570312500000e-01,-8.612060546875000000e-02,8.968505859375000000e-01
4.000000000000000000e+00,6.000000000000000000e+00,-2.100000000000000000e+01,-2.000000000000000000e+00,1.500000000000000000e+01,1.200000000000000000e+01,1.500000000000000000e+01,0.000000000000000000e+00,-5.389404296875000000e-02,4.304809570312500000e-01,-8.612060546875000000e-02,8.968505859375000000e-01
2.000000000000000000e+00,1.000000000000000000e+00,1.700000000000000000e+01,3.000000000000000000e+00,-1.500000000000000000e+01,-9.000000000000000000e+00,-1.000000000000000000e+01,-2.000000000000000000e+00,-5.444335937500000000e-02,4.306640625000000000e-01,-8.557128906250000000e-02,8.967895507812500000e-01
-1.100000000000000000e+01,-7.000000000000000000e+00,-3.100000000000000000e+01,-1.700000000000000000e+01,-1.200000000000000000e+01,-1.000000000000000000e+00,0.000000000000000000e+00,-1.000000000000000000e+00,-5.444335937500000000e-02,4.306640625000000000e-01,-8.557128906250000000e-02,8.967895507812500000e-01
-5.000000000000000000e+00,-9.000000000000000000e+00,-3.000000000000000000e+00,-9.000000000000000000e+00,6.000000000000000000e+00,-4.000000000000000000e+00,-1.000000000000000000e+00,-1.000000000000000000e+00,-5.444335937500000000e-02,4.306640625000000000e-01,-8.557128906250000000e-02,8.967895507812500000e-01
2.000000000000000000e+00,3.000000000000000000e+00,4.000000000000000000e+00,5.500000000000000000e+01,-2.000000000000000000e+00,-7.000000000000000000e+00,-6.000000000000000000e+00,-1.000000000000000000e+00,-5.444335937500000000e-02,4.306640625000000000e-01,-8.557128906250000000e-02,8.967895507812500000e-01
1.100000000000000000e+01,4.000000000000000000e+00,1.300000000000000000e+01,4.100000000000000000e+01,2.800000000000000000e+01,8.000000000000000000e+00,4.000000000000000000e+00,2.000000000000000000e+00,-5.316162109375000000e-02,4.308471679687500000e-01,-8.551025390625000000e-02,8.967895507812500000e-01
-9.000000000000000000e+00,1.000000000000000000e+00,-8.000000000000000000e+00,-3.200000000000000000e+01,-2.400000000000000000e+01,-2.000000000000000000e+00,4.000000000000000000e+00,-2.000000000000000000e+00,-5.316162109375000000e-02,4.308471679687500000e-01,-8.551025390625000000e-02,8.967895507812500000e-01
4.000000000000000000e+00,0.000000000000000000e+00,3.600000000000000000e+01,1.500000000000000000e+01,1.100000000000000000e+01,0.000000000000000000e+00,-2.000000000000000000e+00,-3.000000000000000000e+00,-5.316162109375000000e-02,4.308471679687500000e-01,-8.551025390625000000e-02,8.967895507812500000e-01
-5.000000000000000000e+00,-5.000000000000000000e+00,-9.000000000000000000e+00,-2.100000000000000000e+01,-8.000000000000000000e+00,-1.000000000000000000e+01,-5.000000000000000000e+00,-1.000000000000000000e+00,-5.316162109375000000e-02,4.308471679687500000e-01,-8.551025390625000000e-02,8.967895507812500000e-01
-6.000000000000000000e+00,-1.300000000000000000e+01,-2.000000000000000000e+01,-6.700000000000000000e+01,-4.400000000000000000e+01,-9.000000000000000000e+00,1.000000000000000000e+00,-6.000000000000000000e+00,-5.157470703125000000e-02,4.307250976562500000e-01,-8.563232421875000000e-02,8.969116210937500000e-01
5.000000000000000000e+00,-1.000000000000000000e+00,-1.500000000000000000e+01,2.000000000000000000e+00,1.100000000000000000e+01,1.000000000000000000e+01,-3.000000000000000000e+00,1.000000000000000000e+00,-5.157470703125000000e-02,4.307250976562500000e-01,-8.563232421875000000e-02,8.969116210937500000e-01
-7.000000000000000000e+00,-5.000000000000000000e+00,6.000000000000000000e+00,2.000000000000000000e+01,5.000000000000000000e+00,6.000000000000000000e+00,1.200000000000000000e+01,1.000000000000000000e+00,-5.157470703125000000e-02,4.307250976562500000e-01,-8.563232421875000000e-02,8.969116210937500000e-01
1.000000000000000000e+00,1.000000000000000000e+01,8.000000000000000000e+00,-1.700000000000000000e+01,5.000000000000000000e+00,1.400000000000000000e+01,1.300000000000000000e+01,4.000000000000000000e+00,-5.157470703125000000e-02,4.307250976562500000e-01,-8.563232421875000000e-02,8.969116210937500000e-01
-4.000000000000000000e+00,-2.000000000000000000e+00,2.600000000000000000e+01,1.200000000000000000e+01,6.000000000000000000e+00,-6.000000000000000000e+00,-3.300000000000000000e+01,-9.000000000000000000e+00,-5.084228515625000000e-02,4.303588867187500000e-01,-8.520507812500000000e-02,8.971557617187500000e-01
5.000000000000000000e+00,-6.000000000000000000e+00,0.000000000000000000e+00,6.000000000000000000e+00,1.100000000000000000e+01,1.700000000000000000e+01,4.700000000000000000e+01,1.000000000000000000e+01,-5.084228515625000000e-02,4.303588867187500000e-01,-8.520507812500000000e-02,8.971557617187500000e-01
-4.000000000000000000e+00,-3.000000000000000000e+00,-8.000000000000000000e+00,-1.600000000000000000e+01,-1.000000000000000000e+01,-5.000000000000000000e+00,1.000000000000000000e+00,0.000000000000000000e+00,-5.084228515625000000e-02,4.303588867187500000e-01,-8.520507812500000000e-02,8.971557617187500000e-01
-2.000000000000000000e+00,-4.000000000000000000e+00,1.100000000000000000e+01,-5.100000000000000000e+01,-1.800000000000000000e+01,-1.100000000000000000e+01,-1.300000000000000000e+01,-1.000000000000000000e+00,-5.084228515625000000e-02,4.303588867187500000e-01,-8.520507812500000000e-02,8.971557617187500000e-01
2.000000000000000000e+00,1.000000000000000000e+00,6.000000000000000000e+00,6.400000000000000000e+01,2.400000000000000000e+01,5.000000000000000000e+00,9.000000000000000000e+00,3.000000000000000000e+00,-5.084228515625000000e-02,4.304809570312500000e-01,-8.416748046875000000e-02,8.972167968750000000e-01
1.000000000000000000e+00,5.000000000000000000e+00,2.200000000000000000e+01,-3.200000000000000000e+01,0.000000000000000000e+00,-4.000000000000000000e+00,-1.500000000000000000e+01,-3.000000000000000000e+00,-5.084228515625000000e-02,4.304809570312500000e-01,-8.416748046875000000e-02,8.972167968750000000e-01
-1.000000000000000000e+00,-4.000000000000000000e+00,-1.700000000000000000e+01,1.300000000000000000e+01,2.200000000000000000e+01,4.000000000000000000e+00,3.000000000000000000e+00,-1.000000000000000000e+00,-5.084228515625000000e-02,4.304809570312500000e-01,-8.416748046875000000e-02,8.972167968750000000e-01
-6.000000000000000000e+00,-1.600000000000000000e+01,-1.300000000000000000e+01,3.300000000000000000e+01,4.300000000000000000e+01,8.000000000000000000e+00,1.000000000000000000e+01,-1.000000000000000000e+00,-5.084228515625000000e-02,4.304809570312500000e-01,-8.416748046875000000e-02,8.972167968750000000e-01
5.000000000000000000e+00,1.600000000000000000e+01,2.000000000000000000e+00,-1.300000000000000000e+01,-8.000000000000000000e+00,-4.000000000000000000e+00,-7.000000000000000000e+00,0.000000000000000000e+00,-5.090332031250000000e-02,4.312133789062500000e-01,-8.319091796875000000e-02,8.969116210937500000e-01
0.000000000000000000e+00,1.000000000000000000e+00,2.200000000000000000e+01,-8.000000000000000000e+00,-1.800000000000000000e+01,-3.000000000000000000e+00,-9.000000000000000000e+00,-2.000000000000000000e+00,-5.090332031250000000e-02,4.312133789062500000e-01,-8.319091796875000000e-02,8.969116210937500000e-01
1.000000000000000000e+00,6.000000000000000000e+00,-9.000000000000000000e+00,-2.100000000000000000e+01,-1.100000000000000000e+01,-6.000000000000000000e+00,1.000000000000000000e+00,1.000000000000000000e+00,-5.090332031250000000e-02,4.312133789062500000e-01,-8.319091796875000000e-02,8.969116210937500000e-01
-6.000000000000000000e+00,-1.200000000000000000e+01,-5.000000000000000000e+00,2.700000000000000000e+01,-1.700000000000000000e+01,2.000000000000000000e+00,-9.000000000000000000e+00,-5.000000000000000000e+00,-5.090332031250000000e-02,4.312133789062500000e-01,-8.319091796875000000e-02,8.969116210937500000e-01
-3.000000000000000000e+00,-9.000000000000000000e+00,-2.100000000000000000e+01,-2.000000000000000000e+00,1.400000000000000000e+01,2.000000000000000000e+00,4.000000000000000000e+00,0.000000000000000000e+00,-5.072021484375000000e-02,4.318237304687500000e-01,-8.276367187500000000e-02,8.966674804687500000e-01
1.000000000000000000e+00,0.000000000000000000e+00,3.000000000000000000e+00,-4.000000000000000000e+00,-1.600000000000000000e+01,-6.000000000000000000e+00,-6.000000000000000000e+00,-1.000000000000000000e+00,-5.072021484375000000e-02,4.318237304687500000e-01,-8.276367187500000000e-02,8.966674804687500000e-01
-3.000000000000000000e+00,-3.000000000000000000e+00,1.400000000000000000e+01,4.000000000000000000e+00,-4.000000000000000000e+00,-8.000000000000000000e+00,-5.000000000000000000e+00,-3.000000000000000000e+00,-5.072021484375000000e-02,4.318237304687500000e-01,-8.276367187500000000e-02,8.966674804687500000e-01
-3.000000000000000000e+00,-2.000000000000000000e+00,-4.900000000000000000e+01,-1.300000000000000000e+01,-2.000000000000000000e+01,1.200000000000000000e+01,1.200000000000000000e+01,0.000000000000000000e+00,-5.072021484375000000e-02,4.318237304687500000e-01,-8.276367187500000000e-02,8.966674804687500000e-01
-7.000000000000000000e+00,-1.200000000000000000e+01,1.500000000000000000e+01,-9.000000000000000000e+00,1.100000000000000000e+01,1.000000000000000000e+01,3.000000000000000000e+00,1.000000000000000000e+00,-5.047607421875000000e-02,4.322509765625000000e-01,-8.221435546875000000e-02,8.965454101562500000e-01
1.000000000000000000e+00,4.000000000000000000e+00,-9.000000000000000000e+00,8.000000000000000000e+00,4.000000000000000000e+00,-7.000000000000000000e+00,8.000000000000000000e+00,-1.000000000000000000e+00,-5.047607421875000000e-02,4.322509765625000000e-01,-8.221435546875000000e-02,8.965454101562500000e-01
-3.000000000000000000e+00,-2.000000000000000000e+00,2.000000000000000000e+00,-2.200000000000000000e+01,-1.600000000000000000e+01,-2.000000000000000000e+00,-2.200000000000000000e+01,-2.000000000000000000e+00,-5.047607421875000000e-02,4.322509765625000000e-01,-8.221435546875000000e-02,8.965454101562500000e-01
2.000000000000000000e+00,5.000000000000000000e+00,2.000000000000000000e+01,0.000000000000000000e+00,8.000000000000000000e+00,-1.000000000000000000e+01,-8.000000000000000000e+00,1.000000000000000000e+00,-5.047607421875000000e-02,4.322509765625000000e-01,-8.221435546875000000e-02,8.965454101562500000e-01
1.000000000000000000e+00,3.000000000000000000e+00,-3.000000000000000000e+00,-1.100000000000000000e+01,-1.000000000000000000e+01,-3.000000000000000000e+00,7.000000000000000000e+00,-1.000000000000000000e+00,-5.023193359375000000e-02,4.327392578125000000e-01,-8.172607421875000000e-02,8.963623046875000000e-01
-5.000000000000000000e+00,-1.500000000000000000e+01,-3.800000000000000000e+01,1.200000000000000000e+01,1.400000000000000000e+01,1.000000000000000000e+01,-7.000000000000000000e+00,-2.000000000000000000e+00,-5.023193359375000000e-02,4.327392578125000000e-01,-8.172607421875000000e-02,8.963623046875000000e-01
1.000000000000000000e+00,5.000000000000000000e+00,6.000000000000000000e+00,-2.000000000000000000e+00,-4.000000000000000000e+00,-3.000000000000000000e+00,3.000000000000000000e+00,0.000000000000000000e+00,-5.023193359375000000e-02,4.327392578125000000e-01,-8.172607421875000000e-02,8.963623046875000000e-01
0.000000000000000000e+00,5.000000000000000000e+00,4.000000000000000000e+00,2.000000000000000000e+00,4.000000000000000000e+00,-1.000000000000000000e+00,6.000000000000000000e+00,-1.000000000000000000e+00,-5.023193359375000000e-02,4.327392578125000000e-01,-8.172607421875000000e-02,8.963623046875000000e-01
0.000000000000000000e+00,1.000000000000000000e+00,-2.100000000000000000e+01,-1.100000000000000000e+01,-2.700000000000000000e+01,-4.000000000000000000e+00,-4.000000000000000000e+00,-1.000000000000000000e+00,-5.078125000000000000e-02,4.334106445312500000e-01,-8.099365234375000000e-02,8.960571289062500000e-01
-3.000000000000000000e+00,-7.000000000000000000e+00,-9.000000000000000000e+00,2.100000000000000000e+01,2.300000000000000000e+01,-3.000000000000000000e+00,-6.000000000000000000e+00,-5.000000000000000000e+00,-5.078125000000000000e-02,4.334106445312500000e-01,-8.099365234375000000e-02,8.960571289062500000e-01
0.000000000000000000e+00,-1.000000000000000000e+00,1.000000000000000000e+00,-9.000000000000000000e+00,-2.500000000000000000e+01,-4.000000000000000000e+00,-2.000000000000000000e+00,-2.000000000000000000e+00,-5.078125000000000000e-02,4.334106445312500000e-01,-8.099365234375000000e-02,8.960571289062500000e-01
0.000000000000000000e+00,-6.000000000000000000e+00,-1.000000000000000000e+01,8.000000000000000000e+00,1.000000000000000000e+01,1.000000000000000000e+00,0.000000000000000000e+00,-1.000000000000000000e+00,-5.078125000000000000e-02,4.334106445312500000e-01,-8.099365234375000000e-02,8.960571289062500000e-01
1.000000000000000000e+00,6.000000000000000000e+00,2.400000000000000000e+01,-1.000000000000000000e+01,-1.500000000000000000e+01,-9.000000000000000000e+00,-2.000000000000000000e+00,-2.000000000000000000e+00,-5.169677734375000000e-02,4.341430664062500000e-01,-8.013916015625000000e-02,8.957519531250000000e-01
0.000000000000000000e+00,2.000000000000000000e+00,1.000000000000000000e+00,-4.400000000000000000e+01,-2.400000000000000000e+01,3.000000000000000000e+00,-1.000000000000000000e+00,1.000000000000000000e+00,-5.169677734375000000e-02,4.341430664062500000e-01,-8.013916015625000000e-02,8.957519531250000000e-01
-3.000000000000000000e+00,-3.000000000000000000e+00,-1.200000000000000000e+01,1.600000000000000000e+01,2.000000000000000000e+01,-3.000000000000000000e+00,-5.000000000000000000e+00,-2.000000000000000000e+00,-5.169677734375000000e-02,4.341430664062500000e-01,-8.013916015625000000e-02,8.957519531250000000e-01
-2.000000000000000000e+00,-2.000000000000000000e+00,1.300000000000000000e+01,-1.100000000000000000e+01,9.000000000000000000e+00,1.000000000000000000e+01,2.000000000000000000e+00,0.000000000000000000e+00,-5.169677734375000000e-02,4.341430664062500000e-01,-8.013916015625000000e-02,8.957519531250000000e-01
-2.000000000000000000e+00,-7.000000000000000000e+00,-7.000000000000000000e+00,9.000000000000000000e+00,4.000000000000000000e+00,-1.200000000000000000e+01,1.000000000000000000e+00,-3.000000000000000000e+00,-5.255126953125000000e-02,4.344482421875000000e-01,-7.971191406250000000e-02,8.955688476562500000e-01
-2.000000000000000000e+00,1.000000000000000000e+00,-1.300000000000000000e+01,-3.000000000000000000e+00,-7.000000000000000000e+00,3.000000000000000000e+00,-1.700000000000000000e+01,-4.000000000000000000e+00,-5.255126953125000000e-02,4.344482421875000000e-01,-7.971191406250000000e-02,8.955688476562500000e-01
5.000000000000000000e+00,5.000000000000000000e+00,1.200000000000000000e+01,4.000000000000000000e+00,9.000000000000000000e+00,1.100000000000000000e+01,1.400000000000000000e+01,0.000000000000000000e+00,-5.255126953125000000e-02,4.344482421875000000e-01,-7.971191406250000000e-02,8.955688476562500000e-01
-1.000000000000000000e+00,3.000000000000000000e+00,-9.000000000000000000e+00,-4.000000000000000000e+00,-3.000000000000000000e+00,-1.300000000000000000e+01,-1.600000000000000000e+01,-1.000000000000000000e+00,-5.255126953125000000e-02,4.344482421875000000e-01,-7.971191406250000000e-02,8.955688476562500000e-01
-2.000000000000000000e+00,0.000000000000000000e+00,7.000000000000000000e+00,-2.800000000000000000e+01,-5.000000000000000000e+00,-2.000000000000000000e+00,-4.000000000000000000e+00,0.000000000000000000e+00,-5.297851562500000000e-02,4.346313476562500000e-01,-7.965087890625000000e-02,8.954467773437500000e-01
-2.000000000000000000e+00,-1.000000000000000000e+01,-4.200000000000000000e+01,7.400000000000000000e+01,5.000000000000000000e+00,-3.000000000000000000e+00,3.000000000000000000e+00,-2.000000000000000000e+00,-5.297851562500000000e-02,4.346313476562500000e-01,-7.965087890625000000e-02,8.954467773437500000e-01
-1.000000000000000000e+00,4.000000000000000000e+00,-7.000000000000000000e+00,-2.200000000000000000e+01,-2.000000000000000000e+00,-7.000000000000000000e+00,-8.000000000000000000e+00,-1.000000000000000000e+00,-5.297851562500000000e-02,4.346313476562500000e-01,-7.965087890625000000e-02,8.954467773437500000e-01
4.000000000000000000e+00,3.000000000000000000e+00,2.000000000000000000e+00,5.800000000000000000e+01,3.000000000000000000e+00,-1.000000000000000000e+00,-4.000000000000000000e+00,-2.000000000000000000e+00,-5.297851562500000000e-02,4.346313476562500000e-01,-7.965087890625000000e-02,8.954467773437500000e-01
-5.000000000000000000e+00,-9.000000000000000000e+00,2.000000000000000000e+00,-1.300000000000000000e+01,8.000000000000000000e+00,6.000000000000000000e+00,8.000000000000000000e+00,0.000000000000000000e+00,-5.310058593750000000e-02,4.346923828125000000e-01,-7.971191406250000000e-02,8.954467773437500000e-01
0.000000000000000000e+00,6.000000000000000000e+00,2.500000000000000000e+01,-4.400000000000000000e+01,-2.200000000000000000e+01,-6.000000000000000000e+00,-2.000000000000000000e+00,-2.000000000000000000e+00,-5.310058593750000000e-02,4.346923828125000000e-01,-7.971191406250000000e-02,8.954467773437500000e-01
1.000000000000000000e+00,0.000000000000000000e+00,-3.000000000000000000e+00,-1.000000000000000000e+00,-3.000000000000000000e+00,-1.000000000000000000e+00,-1.000000000000000000e+00,-2.000000000000000000e+00,-5.310058593750000000e-02,4.346923828125000000e-01,-7.971191406250000000e-02,8.954467773437500000e-01
-1.000000000000000000e+00,-3.000000000000000000e+00,8.000000000000000000e+00,1.500000000000000000e+01,1.000000000000000000e+01,0.000000000000000000e+00,7.000000000000000000e+00,1.000000000000000000e+00,-5.310058593750000000e-02,4.346923828125000000e-01,-7.971191406250000000e-02,8.954467773437500000e-01
0.000000000000000000e+00,-3.000000000000000000e+00,-3.900000000000000000e+01,-3.000000000000000000e+00,-7.000000000000000000e+00,-1.600000000000000000e+01,-1.500000000000000000e+01,-2.000000000000000000e+00,-5.334472656250000000e-02,4.346313476562500000e-01,-7.977294921875000000e-02,8.954467773437500000e-01
0.000000000000000000e+00,0.000000000000000000e+00,1.600000000000000000e+01,-8.000000000000000000e+00,-1.300000000000000000e+01,1.800000000000000000e+01,1.200000000000000000e+01,4.000000000000000000e+00,-5.334472656250000000e-02,4.346313476562500000e-01,-7.977294921875000000e-02,8.954467773437500000e-01
-1.000000000000000000e+00,-1.000000000000000000e+00,-4.000000000000000000e+00,0.000000000000000000e+00,3.000000000000000000e+00,8.000000000000000000e+00,6.000000000000000000e+00,-1.000000000000000000e+00,-5.334472656250000000e-02,4.346313476562500000e-01,-7.977294921875000000e-02,8.954467773437500000e-01
-4.000000000000000000e+00,-2.000000000000000000e+00,1.700000000000000000e+01,-1.600000000000000000e+01,1.000000000000000000e+00,-4.000000000000000000e+00,-1.000000000000000000e+00,-4.000000000000000000e+00,-5.334472656250000000e-02,4.346313476562500000e-01,-7.977294921875000000e-02,8.954467773437500000e-01
3.000000000000000000e+00,2.000000000000000000e+00,0.000000000000000000e+00,1.800000000000000000e+01,1.000000000000000000e+00,-8.000000000000000000e+00,-2.000000000000000000e+00,1.000000000000000000e+00,-5.432128906250000000e-02,4.345092773437500000e-01,-7.965087890625000000e-02,8.954467773437500000e-01
-3.000000000000000000e+00,-1.000000000000000000e+00,-1.300000000000000000e+01,-5.300000000000000000e+01,-9.000000000000000000e+00,1.000000000000000000e+00,-1.000000000000000000e+00,-1.000000000000000000e+00,-5.432128906250000000e-02,4.345092773437500000e-01,-7.965087890625000000e-02,8.954467773437500000e-01
-4.000000000000000000e+00,-7.000000000000000000e+00,-2.000000000000000000e+01,6.400000000000000000e+01,1.400000000000000000e+01,-1.100000000000000000e+01,-1.100000000000000000e+01,-1.000000000000000000e+00,-5.432128906250000000e-02,4.345092773437500000e-01,-7.965087890625000000e-02,8.954467773437500000e-01
2.000000000000000000e+00,3.000000000000000000e+00,1.000000000000000000e+00,-3.000000000000000000e+01,-1.000000000000000000e+01,2.000000000000000000e+00,-2.000000000000000000e+00,2.000000000000000000e+00,-5.432128906250000000e-02,4.345092773437500000e-01,-7.965087890625000000e-02,8.954467773437500000e-01
3.000000000000000000e+00,9.000000000000000000e+00,1.200000000000000000e+01,2.000000000000000000e+00,-1.000000000000000000e+00,2.000000000000000000e+00,6.000000000000000000e+00,3.000000000000000000e+00,-5.541992187500000000e-02,4.342651367187500000e-01,-7.952880859375000000e-02,8.955078125000000000e-01
-3.000000000000000000e+00,0.000000000000000000e+00,3.000000000000000000e+00,-7.000000000000000000e+00,-5.000000000000000000e+00,-1.100000000000000000e+01,-4.000000000000000000e+00,-5.000000000000000000e+00,-5.541992187500000000e-02,4.342651367187500000e-01,-7.952880859375000000e-02,8.955078125000000000e-01
-2.000000000000000000e+00,-4.000000000000000000e+00,1.600000000000000000e+01,4.600000000000000000e+01,1.900000000000000000e+01,1.300000000000000000e+01,3.000000000000000000e+00,1.000000000000000000e+00,-5.541992187500000000e-02,4.342651367187500000e-01,-7.952880859375000000e-02,8.955078125000000000e-01
0.000000000000000000e+00,4.000000000000000000e+00,-4.000000000000000000e+00,-1.400000000000000000e+01,-6.000000000000000000e+00,-9.000000000000000000e+00,-6.000000000000000000e+00,-2.000000000000000000e+00,-5.541992187500000000e-02,4.342651367187500000e-01,-7.952880859375000000e-02,8.955078125000000000e-01
-3.000000000000000000e+00,-1.000000000000000000e+00,2.900000000000000000e+01,5.000000000000000000e+00,3.000000000000000000e+00,3.000000000000000000e+00,2.000000000000000000e+00,0.000000000000000000e+00,-5.603027343750000000e-02,4.340820312500000000e-01,-7.971191406250000000e-02,8.955688476562500000e-01
-3.000000000000000000e+00,-1.100000000000000000e+01,-6.200000000000000000e+01,-1.100000000000000000e+01,-5.000000000000000000e+00,-4.000000000000000000e+00,-2.000000000000000000e+00,-1.000000000000000000e+00,-5.603027343750000000e-02,4.340820312500000000e-01,-7.971191406250000000e-02,8.955688476562500000e-01
-2.000000000000000000e+00,1.000000000000000000e+00,5.000000000000000000e+00,-5.100000000000000000e+01,-2.600000000000000000e+01,-4.000000000000000000e+00,0.000000000000000000e+00,-3.000000000000000000e+00,-5.603027343750000000e-02,4.340820312500000000e-01,-7.971191406250000000e-02,8.955688476562500000e-01
1.000000000000000000e+00,-3.000000000000000000e+00,3.000000000000000000e+00,5.200000000000000000e+01,1.700000000000000000e+01,-1.000000000000000000e+00,-3.000000000000000000e+00,-1.000000000000000000e+00,-5.603027343750000000e-02,4.340820312500000000e-01,-7.971191406250000000e-02,8.955688476562500000e-01
-4.000000000000000000e+00,-3.000000000000000000e+00,-1.000000000000000000e+01,-5.000000000000000000e+00,0.000000000000000000e+00,1.000000000000000000e+00,-7.000000000000000000e+00,-4.000000000000000000e+00,-5.688476562500000000e-02,4.336547851562500000e-01,-7.977294921875000000e-02,8.956909179687500000e-01
1.000000000000000000e+00,6.000000000000000000e+00,4.500000000000000000e+01,2.100000000000000000e+01,3.000000000000000000e+00,-7.000000000000000000e+00,0.000000000000000000e+00,-2.000000000000000000e+00,-5.688476562500000000e-02,4.336547851562500000e-01,-7.977294921875000000e-02,8.956909179687500000e-01
-5.000000000000000000e+00,-8.000000000000000000e+00,6.000000000000000000e+00,-2.500000000000000000e+01,-1.500000000000000000e+01,9.000000000000000000e+00,1.000000000000000000e+00,-4.000000000000000000e+00,-5.688476562500000000e-02,4.336547851562500000e-01,-7.977294921875000000e-02,8.956909179687500000e-01
-2.000000000000000000e+00,-5.000000000000000000e+00,-5.300000000000000000e+01,-2.600000000000000000e+01,-5.000000000000000000e+00,-9.000000000000000000e+00,-2.000000000000000000e+00,-1.000000000000000000e+00,-5.688476562500000000e-02,4.336547851562500000e-01,-7.977294921875000000e-02,8.956909179687500000e-01
-5.000000000000000000e+00,-3.000000000000000000e+00,3.000000000000000000e+00,-1.100000000000000000e+01,-8.000000000000000000e+00,-2.000000000000000000e+00,0.000000000000000000e+00,-5.000000000000000000e+00,-5.767822265625000000e-02,4.332885742187500000e-01,-7.989501953125000000e-02,8.958129882812500000e-01
4.000000000000000000e+00,2.000000000000000000e+00,3.800000000000000000e+01,2.400000000000000000e+01,1.200000000000000000e+01,6.000000000000000000e+00,1.000000000000000000e+01,0.000000000000000000e+00,-5.767822265625000000e-02,4.332885742187500000e-01,-7.989501953125000000e-02,8.958129882812500000e-01
-5.000000000000000000e+00,-8.000000000000000000e+00,-2.900000000000000000e+01,-1.400000000000000000e+01,-8.000000000000000000e+00,-1.400000000000000000e+01,-1.400000000000000000e+01,-3.000000000000000000e+00,-5.767822265625000000e-02,4.332885742187500000e-01,-7.989501953125000000e-02,8.958129882812500000e-01
-1.000000000000000000e+00,-2.000000000000000000e+00,8.000000000000000000e+00,-2.500000000000000000e+01,-5.000000000000000000e+00,6.000000000000000000e+00,6.000000000000000000e+00,-2.000000000000000000e+00,-5.767822265625000000e-02,4.332885742187500000e-01,-7.989501953125000000e-02,8.958129882812500000e-01
2.000000000000000000e+00,5.000000000000000000e+00,5.000000000000000000e+00,3.300000000000000000e+01,-1.000000000000000000e+00,-7.000000000000000000e+00,-3.000000000000000000e+00,1.000000000000000000e+00,-5.810546875000000000e-02,4.331054687500000000e-01,-8.001708984375000000e-02,8.958740234375000000e-01
1.000000000000000000e+00,-1.000000000000000000e+00,5.000000000000000000e+00,-3.900000000000000000e+01,4.000000000000000000e+00,-8.000000000000000000e+00,-5.000000000000000000e+00,-2.000000000000000000e+00,-5.810546875000000000e-02,4.331054687500000000e-01,-8.001708984375000000e-02,8.958740234375000000e-01
-2.000000000000000000e+00,-5.000000000000000000e+00,2.500000000000000000e+01,4.800000000000000000e+01,3.700000000000000000e+01,9.000000000000000000e+00,8.000000000000000000e+00,2.000000000000000000e+00,-5.810546875000000000e-02,4.331054687500000000e-01,-8.001708984375000000e-02,8.958740234375000000e-01
1.000000000000000000e+00,2.000000000000000000e+00,-3.100000000000000000e+01,-1.300000000000000000e+01,-4.000000000000000000e+00,-2.000000000000000000e+00,-4.000000000000000000e+00,-2.000000000000000000e+00,-5.810546875000000000e-02,4.331054687500000000e-01,-8.001708984375000000e-02,8.958740234375000000e-01
2.000000000000000000e+00,2.000000000000000000e+00,-1.000000000000000000e+01,-5.000000000000000000e+00,-4.000000000000000000e+00,2.000000000000000000e+00,6.000000000000000000e+00,2.000000000000000000e+00,-5.822753906250000000e-02,4.330444335937500000e-01,-8.013916015625000000e-02,8.958740234375000000e-01
-1.000000000000000000e+00,4.000000000000000000e+00,7.000000000000000000e+00,8.000000000000000000e+00,2.000000000000000000e+00,-1.000000000000000000e+00,-2.000000000000000000e+00,-2.000000000000000000e+00,-5.822753906250000000e-02,4.330444335937500000e-01,-8.013916015625000000e-02,8.958740234375000000e-01
0.000000000000000000e+00,1.000000000000000000e+00,-8.000000000000000000e+00,-4.600000000000000000e+01,-3.600000000000000000e+01,-8.000000000000000000e+00,-3.000000000000000000e+00,-1.000000000000000000e+00,-5.822753906250000000e-02,4.330444335937500000e-01,-8.013916015625000000e-02,8.958740234375000000e-01
-1.000000000000000000e+00,0.000000000000000000e+00,1.600000000000000000e+01,1.900000000000000000e+01,2.400000000000000000e+01,1.000000000000000000e+00,-1.200000000000000000e+01,0.000000000000000000e+00,-5.822753906250000000e-02,4.330444335937500000e-01,-8.013916015625000000e-02,8.958740234375000000e-01
1.000000000000000000e+00,5.000000000000000000e+00,9.000000000000000000e+00,1.000000000000000000e+01,1.000000000000000000e+01,-5.000000000000000000e+00,1.700000000000000000e+01,-2.000000000000000000e+00,-5.871582031250000000e-02,4.327392578125000000e-01,-8.020019531250000000e-02,8.959960937500000000e-01
0.000000000000000000e+00,-7.000000000000000000e+00,-1.700000000000000000e+01,-1.000000000000000000e+01,-3.000000000000000000e+00,2.400000000000000000e+01,1.000000000000000000e+01,1.000000000000000000e+00,-5.871582031250000000e-02,4.327392578125000000e-01,-8.020019531250000000e-02,8.959960937500000000e-01
-1.000000000000000000e+00,2.000000000000000000e+00,8.000000000000000000e+00,-1.000000000000000000e+00,-3.000000000000000000e+00,-3.000000000000000000e+00,4.000000000000000000e+00,-2.000000000000000000e+00,-5.871582031250000000e-02,4.327392578125000000e-01,-8.020019531250000000e-02,8.959960937500000000e-01
0.000000000000000000e+00,3.000000000000000000e+00,0.000000000000000000e+00,-1.000000000000000000e+00,-1.100000000000000000e+01,-5.000000000000000000e+00,-4.000000000000000000e+00,-1.000000000000000000e+00,-5.871582031250000000e-02,4.327392578125000000e-01,-8.020019531250000000e-02,8.959960937500000000e-01
-8.000000000000000000e+00,-9.000000000000000000e+00,0.000000000000000000e+00,-9.000000000000000000e+00,-2.000000000000000000e+00,-3.000000000000000000e+00,0.000000000000000000e+00,-5.000000000000000000e+00,-5.938720703125000000e-02,4.323120117187500000e-01,-8.007812500000000000e-02,8.961791992187500000e-01
-1.000000000000000000e+00,0.000000000000000000e+00,-9.000000000000000000e+00,8.000000000000000000e+00,7.000000000000000000e+00,-2.000000000000000000e+00,-1.200000000000000000e+01,-1.000000000000000000e+00,-5.938720703125000000e-02,4.323120117187500000e-01,-8.007812500000000000e-02,8.961791992187500000e-01
3.000000000000000000e+00,0.000000000000000000e+00,-2.100000000000000000e+01,-1.300000000000000000e+01,-1.200000000000000000e+01,-1.100000000000000000e+01,-5.000000000000000000e+00,0.000000000000000000e+00,-5.938720703125000000e-02,4.323120117187500000e-01,-8.007812500000000000e-02,8.961791992187500000e-01
-2.000000000000000000e+00,-5.000000000000000000e+00,-5.000000000000000000e+00,-1.600000000000000000e+01,3.000000000000000000e+00,4.000000000000000000e+00,4.000000000000000000e+00,-1.000000000000000000e+00,-5.938720703125000000e-02,4.323120117187500000e-01,-8.007812500000000000e-02,8.961791992187500000e-01
-5.000000000000000000e+00,-3.000000000000000000e+00,1.900000000000000000e+01,4.000000000000000000e+00,-8.000000000000000000e+00,0.000000000000000000e+00,-5.000000000000000000e+00,-1.000000000000000000e+00,-5.963134765625000000e-02,4.320678710937500000e-01,-7.989501953125000000e-02,8.962402343750000000e-01
-5.000000000000000000e+00,-8.000000000000000000e+00,3.800000000000000000e+01,5.100000000000000000e+01,1.100000000000000000e+01,-5.000000000000000000e+00,-3.000000000000000000e+00,-3.000000000000000000e+00,-5.963134765625000000e-02,4.320678710937500000e-01,-7.989501953125000000e-02,8.962402343750000000e-01
1.000000000000000000e+00,3.000000000000000000e+00,-2.800000000000000000e+01,-4.400000000000000000e+01,-1.300000000000000000e+01,3.000000000000000000e+00,-1.000000000000000000e+00,-1.000000000000000000e+00,-5.963134765625000000e-02,4.320678710937500000e-01,-7.989501953125000000e-02,8.962402343750000000e-01
9.000000000000000000e+00,4.000000000000000000e+00,3.000000000000000000e+00,1.000000000000000000e+01,1.000000000000000000e+00,-2.000000000000000000e+00,0.000000000000000000e+00,0.000000000000000000e+00,-5.963134765625000000e-02,4.320678710937500000e-01,-7.989501953125000000e-02,8.962402343750000000e-01
1.000000000000000000e+00,8.000000000000000000e+00,-1.100000000000000000e+01,-3.700000000000000000e+01,-4.000000000000000000e+00,2.000000000000000000e+00,-5.000000000000000000e+00,2.000000000000000000e+00,-5.969238281250000000e-02,4.318847656250000000e-01,-8.001708984375000000e-02,8.963623046875000000e-01
-1.000000000000000000e+00,-3.000000000000000000e+00,3.100000000000000000e+01,3.000000000000000000e+01,-7.000000000000000000e+00,-7.000000000000000000e+00,0.000000000000000000e+00,0.000000000000000000e+00,-5.969238281250000000e-02,4.318847656250000000e-01,-8.001708984375000000e-02,8.963623046875000000e-01
-1.000000000000000000e+00,-5.000000000000000000e+00,-3.600000000000000000e+01,-1.500000000000000000e+01,1.000000000000000000e+00,-8.000000000000000000e+00,-3.000000000000000000e+00,-1.000000000000000000e+00,-5.969238281250000000e-02,4.318847656250000000e-01,-8.001708984375000000e-02,8.963623046875000000e-01
-5.000000000000000000e+00,-1.000000000000000000e+00,3.000000000000000000e+01,-6.000000000000000000e+00,-7.000000000000000000e+00,1.100000000000000000e+01,8.000000000000000000e+00,0.000000000000000000e+00,-5.969238281250000000e-02,4.318847656250000000e-01,-8.001708984375000000e-02,8.963623046875000000e-01
-1.000000000000000000e+00,-9.000000000000000000e+00,-1.800000000000000000e+01,-6.000000000000000000e+00,-8.000000000000000000e+00,-5.000000000000000000e+00,-2.000000000000000000e+00,-6.000000000000000000e+00,-5.944824218750000000e-02,4.315185546875000000e-01,-8.038330078125000000e-02,8.964843750000000000e-01
3.000000000000000000e+00,5.000000000000000000e+00,-1.300000000000000000e+01,-8.000000000000000000e+00,7.000000000000000000e+00,2.000000000000000000e+00,-1.000000000000000000e+01,1.000000000000000000e+00,-5.944824218750000000e-02,4.315185546875000000e-01,-8.038330078125000000e-02,8.964843750000000000e-01
1.000000000000000000e+00,4.000000000000000000e+00,6.000000000000000000e+00,1.600000000000000000e+01,4.000000000000000000e+00,5.000000000000000000e+00,7.000000000000000000e+00,-1.000000000000000000e+00,-5.944824218750000000e-02,4.315185546875000000e-01,-8.038330078125000000e-02,8.964843750000000000e-01
0.000000000000000000e+00,-3.000000000000000000e+00,5.000000000000000000e+00,-1.000000000000000000e+01,-5.000000000000000000e+00,9.000000000000000000e+00,1.900000000000000000e+01,1.000000000000000000e+00,-5.944824218750000000e-02,4.315185546875000000e-01,-8.038330078125000000e-02,8.964843750000000000e-01
-4.000000000000000000e+00,-5.000000000000000000e+00,-1.800000000000000000e+01,4.000000000000000000e+00,4.000000000000000000e+00,-1.600000000000000000e+01,-2.300000000000000000e+01,-3.000000000000000000e+00,-5.920410156250000000e-02,4.309692382812500000e-01,-8.068847656250000000e-02,8.967285156250000000e-01
-2.000000000000000000e+00,1.000000000000000000e+00,2.600000000000000000e+01,-1.000000000000000000e+00,-3.000000000000000000e+00,2.000000000000000000e+01,2.700000000000000000e+01,1.000000000000000000e+00,-5.920410156250000000e-02,4.309692382812500000e-01,-8.068847656250000000e-02,8.967285156250000000e-01
-3.000000000000000000e+00,-4.000000000000000000e+00,-3.400000000000000000e+01,8.000000000000000000e+00,3.000000000000000000e+00,-8.000000000000000000e+00,-1.400000000000000000e+01,-2.000000000000000000e+00,-5.920410156250000000e-02,4.309692382812500000e-01,-8.068847656250000000e-02,8.967285156250000000e-01
-5.000000000000000000e+00,-3.000000000000000000e+00,2.000000000000000000e+00,-1.000000000000000000e+00,-4.000000000000000000e+00,-7.000000000000000000e+00,-4.000000000000000000e+00,1.000000000000000000e+00,-5.920410156250000000e-02,4.309692382812500000e-01,-8.068847656250000000e-02,8.967285156250000000e-01
1.000000000000000000e+00,-6.000000000000000000e+00,-5.000000000000000000e+01,-4.100000000000000000e+01,-1.600000000000000000e+01,4.000000000000000000e+00,4.000000000000000000e+00,-5.000000000000000000e+00,-5.938720703125000000e-02,4.306030273437500000e-01,-8.087158203125000000e-02,8.969116210937500000e-01
-1.000000000000000000e+00,0.000000000000000000e+00,6.000000000000000000e+00,2.400000000000000000e+01,1.300000000000000000e+01,-1.600000000000000000e+01,-1.400000000000000000e+01,-1.000000000000000000e+00,-5.938720703125000000e-02,4.306030273437500000e-01,-8.087158203125000000e-02,8.969116210937500000e-01
3.000000000000000000e+00,7.000000000000000000e+00,2.600000000000000000e+01,7.000000000000000000e+00,2.400000000000000000e+01,1.200000000000000000e+01,7.000000000000000000e+00,2.000000000000000000e+00,-5.938720703125000000e-02,4.306030273437500000e-01,-8.087158203125000000e-02,8.969116210937500000e-01
-6.000000000000000000e+00,-7.000000000000000000e+00,3.300000000000000000e+01,4.100000000000000000e+01,1.000000000000000000e+00,1.000000000000000000e+00,-1.000000000000000000e+00,-3.000000000000000000e+00,-5.938720703125000000e-02,4.306030273437500000e-01,-8.087158203125000000e-02,8.969116210937500000e-01
1.000000000000000000e+00,3.000000000000000000e+00,-6.000000000000000000e+00,3.100000000000000000e+01,1.000000000000000000e+01,0.000000000000000000e+00,-1.000000000000000000e+00,2.000000000000000000e+00,-5.926513671875000000e-02,4.305419921875000000e-01,-8.129882812500000000e-02,8.969116210937500000e-01
-1.000000000000000000e+00,-3.000000000000000000e+00,-2.100000000000000000e+01,-3.200000000000000000e+01,-4.000000000000000000e+00,-4.000000000000000000e+00,-4.000000000000000000e+00,0.000000000000000000e+00,-5.926513671875000000e-02,4.305419921875000000e-01,-8.129882812500000000e-02,8.969116210937500000e-01
3.000000000000000000e+00,7.000000000000000000e+00,-5.000000000000000000e+00,-2.200000000000000000e+01,-5.000000000000000000e+00,1.000000000000000000e+00,3.000000000000000000e+00,1.000000000000000000e+00,-5.926513671875000000e-02,4.305419921875000000e-01,-8.129882812500000000e-02,8.969116210937500000e-01
-6.000000000000000000e+00,-8.000000000000000000e+00,1.000000000000000000e+00,-9.000000000000000000e+00,-7.000000000000000000e+00,-1.100000000000000000e+01,-1.100000000000000000e+01,-5.000000000000000000e+00,-5.926513671875000000e-02,4.305419921875000000e-01,-8.129882812500000000e-02,8.969116210937500000e-01
-1.000000000000000000e+00,-2.000000000000000000e+00,3.000000000000000000e+00,7.000000000000000000e+00,2.000000000000000000e+00,8.000000000000000000e+00,4.000000000000000000e+00,-1.000000000000000000e+00,-5.859375000000000000e-02,4.306030273437500000e-01,-8.197021484375000000e-02,8.968505859375000000e-01
-1.000000000000000000e+00,6.000000000000000000e+00,-6.000000000000000000e+00,7.000000000000000000e+00,3.000000000000000000e+00,-7.000000000000000000e+00,3.000000000000000000e+00,-2.000000000000000000e+00,-5.859375000000000000e-02,4.306030273437500000e-01,-8.197021484375000000e-02,8.968505859375000000e-01
-4.000000000000000000e+00,-6.000000000000000000e+00,4.400000000000000000e+01,8.000000000000000000e+00,-7.000000000000000000e+00,1.100000000000000000e+01,3.000000000000000000e+00,1.000000000000000000e+00,-5.859375000000000000e-02,4.306030273437500000e-01,-8.197021484375000000e-02,8.968505859375000000e-01
4.000000000000000000e+00,9.000000000000000000e+00,-3.700000000000000000e+01,-1.300000000000000000e+01,-4.000000000000000000e+00,-9.000000000000000000e+00,-1.500000000000000000e+01,-2.000000000000000000e+00,-5.859375000000000000e-02,4.306030273437500000e-01,-8.197021484375000000e-02,8.968505859375000000e-01
-2.000000000000000000e+00,-5.000000000000000000e+00,-1.100000000000000000e+01,-3.000000000000000000e+00,2.000000000000000000e+00,-1.000000000000000000e+00,7.000000000000000000e+00,-1.000000000000000000e+00,-5.804443359375000000e-02,4.304809570312500000e-01,-8.258056640625000000e-02,8.969116210937500000e-01
-1.000000000000000000e+00,-7.000000000000000000e+00,-1.100000000000000000e+01,-4.000000000000000000e+00,-8.000000000000000000e+00,9.000000000000000000e+00,3.000000000000000000e+00,-1.000000000000000000e+00,-5.804443359375000000e-02,4.304809570312500000e-01,-8.258056640625000000e-02,8.969116210937500000e-01
2.000000000000000000e+00,7.000000000000000000e+00,2.000000000000000000e+00,1.600000000000000000e+01,3.000000000000000000e+00,-1.100000000000000000e+01,5.000000000000000000e+00,2.000000000000000000e+00,-5.804443359375000000e-02,4.304809570312500000e-01,-8.258056640625000000e-02,8.969116210937500000e-01
-4.000000000000000000e+00,-7.000000000000000000e+00,1.800000000000000000e+01,-2.000000000000000000e+00,-1.000000000000000000e+00,1.000000000000000000e+00,-1.400000000000000000e+01,-2.000000000000000000e+00,-5.804443359375000000e-02,4.304809570312500000e-01,-8.258056640625000000e-02,8.969116210937500000e-01
0.000000000000000000e+00,1.000000000000000000e+00,1.000000000000000000e+01,7.000000000000000000e+00,1.200000000000000000e+01,6.000000000000000000e+00,-5.000000000000000000e+00,1.000000000000000000e+00,-5.804443359375000000e-02,4.309082031250000000e-01,-8.288574218750000000e-02,8.966674804687500000e-01
3.000000000000000000e+00,3.000000000000000000e+00,-3.000000000000000000e+00,-1.200000000000000000e+01,-1.100000000000000000e+01,-1.400000000000000000e+01,-1.000000000000000000e+01,1.000000000000000000e+00,-5.804443359375000000e-02,4.309082031250000000e-01,-8.288574218750000000e-02,8.966674804687500000e-01
