-8.000000000000000000e+00,3.000000000000000000e+00,-6.000000000000000000e+00,-1.000000000000000000e+01,-1.200000000000000000e+01,-2.000000000000000000e+00,0.000000000000000000e+00,-5.000000000000000000e+00,-8.184814453125000000e-02,4.441528320312500000e-01,-7.476806640625000000e-02,8.890380859375000000e-01
-1.000000000000000000e+00,-2.400000000000000000e+01,1.500000000000000000e+01,4.000000000000000000e+00,2.000000000000000000e+00,1.000000000000000000e+00,-4.000000000000000000e+00,0.000000000000000000e+00,-8.184814453125000000e-02,4.441528320312500000e-01,-7.476806640625000000e-02,8.890380859375000000e-01
-9.000000000000000000e+00,2.000000000000000000e+01,-2.300000000000000000e+01,-4.000000000000000000e+00,-7.000000000000000000e+00,-1.000000000000000000e+00,-1.300000000000000000e+01,-1.300000000000000000e+01,-8.184814453125000000e-02,4.441528320312500000e-01,-7.476806640625000000e-02,8.890380859375000000e-01
0.000000000000000000e+00,-3.000000000000000000e+00,-3.000000000000000000e+00,-9.000000000000000000e+00,-1.200000000000000000e+01,1.000000000000000000e+00,1.800000000000000000e+01,1.400000000000000000e+01,-8.184814453125000000e-02,4.441528320312500000e-01,-7.476806640625000000e-02,8.890380859375000000e-01
1.000000000000000000e+00,7.000000000000000000e+00,1.000000000000000000e+00,-2.000000000000000000e+00,3.000000000000000000e+00,-2.000000000000000000e+00,-3.000000000000000000e+00,0.000000000000000000e+00,-8.459472656250000000e-02,4.424438476562500000e-01,-7.421875000000000000e-02,8.896484375000000000e-01
1.300000000000000000e+01,1.000000000000000000e+00,1.100000000000000000e+01,-7.000000000000000000e+00,4.000000000000000000e+00,6.000000000000000000e+00,1.100000000000000000e+01,4.000000000000000000e+00,-8.459472656250000000e-02,4.424438476562500000e-01,-7.421875000000000000e-02,8.896484375000000000e-01
-9.000000000000000000e+00,-2.600000000000000000e+01,-1.100000000000000000e+01,0.000000000000000000e+00,5.000000000000000000e+00,-5.000000000000000000e+00,-1.000000000000000000e+01,-5.000000000000000000e+00,-8.459472656250000000e-02,4.424438476562500000e-01,-7.421875000000000000e-02,8.896484375000000000e-01
2.000000000000000000e+00,1.100000000000000000e+01,-1.000000000000000000e+00,-2.000000000000000000e+00,-1.000000000000000000e+00,-1.000000000000000000e+00,-5.000000000000000000e+00,2.000000000000000000e+00,-8.459472656250000000e-02,4.424438476562500000e-01,-7.421875000000000000e-02,8.896484375000000000e-01
-3.000000000000000000e+00,3.000000000000000000e+00,4.000000000000000000e+00,5.000000000000000000e+00,0.000000000000000000e+00,-4.000000000000000000e+00,-6.000000000000000000e+00,-9.000000000000000000e+00,-8.349609375000000000e-02,4.412841796875000000e-01,-7.604980468750000000e-02,8.901977539062500000e-01
3.000000000000000000e+00,-7.000000000000000000e+00,1.000000000000000000e+00,-8.000000000000000000e+00,-3.000000000000000000e+00,-3.000000000000000000e+00,-2.000000000000000000e+00,-4.000000000000000000e+00,-8.349609375000000000e-02,4.412841796875000000e-01,-7.604980468750000000e-02,8.901977539062500000e-01
6.000000000000000000e+00,3.500000000000000000e+01,6.000000000000000000e+00,7.000000000000000000e+00,-1.100000000000000000e+01,-1.000000000000000000e+00,6.000000000000000000e+00,6.000000000000000000e+00,-8.349609375000000000e-02,4.412841796875000000e-01,-7.604980468750000000e-02,8.901977539062500000e-01
-4.000000000000000000e+00,-2.200000000000000000e+01,-1.800000000000000000e+01,-2.000000000000000000e+00,-4.000000000000000000e+00,-1.000000000000000000e+00,4.000000000000000000e+00,4.000000000000000000e+00,-8.349609375000000000e-02,4.412841796875000000e-01,-7.604980468750000000e-02,8.901977539062500000e-01
2.000000000000000000e+00,-1.000000000000000000e+01,1.000000000000000000e+00,-7.100000000000000000e+01,-2.700000000000000000e+01,-1.000000000000000000e+00,1.000000000000000000e+00,-2.000000000000000000e+00,-8.087158203125000000e-02,4.404296875000000000e-01,-7.714843750000000000e-02,8.907470703125000000e-01
-3.000000000000000000e+00,5.000000000000000000e+00,-1.000000000000000000e+00,8.900000000000000000e+01,5.500000000000000000e+01,4.000000000000000000e+00,-3.000000000000000000e+00,-3.000000000000000000e+00,-8.087158203125000000e-02,4.404296875000000000e-01,-7.714843750000000000e-02,8.907470703125000000e-01
-3.000000000000000000e+00,8.000000000000000000e+00,1.300000000000000000e+01,-1.000000000000000000e+01,-3.000000000000000000e+00,0.000000000000000000e+00,-7.000000000000000000e+00,-5.000000000000000000e+00,-8.087158203125000000e-02,4.404296875000000000e-01,-7.714843750000000000e-02,8.907470703125000000e-01
-5.000000000000000000e+00,-2.000000000000000000e+00,-1.100000000000000000e+01,-6.000000000000000000e+00,-8.000000000000000000e+00,-2.000000000000000000e+00,2.000000000000000000e+00,-3.000000000000000000e+00,-8.087158203125000000e-02,4.404296875000000000e-01,-7.714843750000000000e-02,8.907470703125000000e-01
-4.000000000000000000e+00,5.000000000000000000e+00,-4.000000000000000000e+00,-1.800000000000000000e+01,1.000000000000000000e+00,3.000000000000000000e+00,-4.000000000000000000e+00,-5.000000000000000000e+00,-8.081054687500000000e-02,4.401855468750000000e-01,-7.666015625000000000e-02,8.909301757812500000e-01
-3.000000000000000000e+00,-1.600000000000000000e+01,-8.000000000000000000e+00,-2.100000000000000000e+01,-2.100000000000000000e+01,-2.000000000000000000e+00,3.000000000000000000e+00,2.000000000000000000e+00,-8.081054687500000000e-02,4.401855468750000000e-01,-7.666015625000000000e-02,8.909301757812500000e-01
-3.000000000000000000e+00,-1.200000000000000000e+01,-9.000000000000000000e+00,3.000000000000000000e+00,1.500000000000000000e+01,0.000000000000000000e+00,-3.000000000000000000e+00,-1.000000000000000000e+00,-8.081054687500000000e-02,4.401855468750000000e-01,-7.666015625000000000e-02,8.909301757812500000e-01
1.000000000000000000e+00,7.000000000000000000e+00,1.900000000000000000e+01,1.000000000000000000e+00,-5.000000000000000000e+00,-4.000000000000000000e+00,-6.000000000000000000e+00,-2.000000000000000000e+00,-8.081054687500000000e-02,4.401855468750000000e-01,-7.666015625000000000e-02,8.909301757812500000e-01
-1.000000000000000000e+00,-8.000000000000000000e+00,-5.000000000000000000e+00,7.000000000000000000e+00,-2.000000000000000000e+00,-4.000000000000000000e+00,0.000000000000000000e+00,1.000000000000000000e+00,-8.251953125000000000e-02,4.404907226562500000e-01,-7.623291015625000000e-02,8.906860351562500000e-01
-5.000000000000000000e+00,2.000000000000000000e+00,-7.000000000000000000e+00,-9.000000000000000000e+00,-3.000000000000000000e+00,0.000000000000000000e+00,-5.000000000000000000e+00,-4.000000000000000000e+00,-8.251953125000000000e-02,4.404907226562500000e-01,-7.623291015625000000e-02,8.906860351562500000e-01
7.000000000000000000e+00,-8.000000000000000000e+00,1.000000000000000000e+01,3.000000000000000000e+00,-5.000000000000000000e+00,1.000000000000000000e+00,6.000000000000000000e+00,5.000000000000000000e+00,-8.251953125000000000e-02,4.404907226562500000e-01,-7.623291015625000000e-02,8.906860351562500000e-01
-2.000000000000000000e+00,-2.000000000000000000e+00,2.000000000000000000e+00,-2.300000000000000000e+01,-2.100000000000000000e+01,-4.000000000000000000e+00,-2.000000000000000000e+00,0.000000000000000000e+00,-8.251953125000000000e-02,4.404907226562500000e-01,-7.623291015625000000e-02,8.906860351562500000e-01
0.000000000000000000e+00,4.000000000000000000e+00,-5.000000000000000000e+00,3.700000000000000000e+01,2.700000000000000000e+01,3.000000000000000000e+00,2.000000000000000000e+00,-2.000000000000000000e+00,-8.312988281250000000e-02,4.410400390625000000e-01,-7.690429687500000000e-02,8.902587890625000000e-01
-1.500000000000000000e+01,-1.000000000000000000e+01,-2.000000000000000000e+00,-5.000000000000000000e+00,-2.000000000000000000e+00,-1.000000000000000000e+00,-2.000000000000000000e+00,-1.000000000000000000e+00,-8.312988281250000000e-02,4.410400390625000000e-01,-7.690429687500000000e-02,8.902587890625000000e-01
9.000000000000000000e+00,1.400000000000000000e+01,8.000000000000000000e+00,-8.000000000000000000e+00,-5.000000000000000000e+00,1.000000000000000000e+00,4.000000000000000000e+00,4.000000000000000000e+00,-8.312988281250000000e-02,4.410400390625000000e-01,-7.690429687500000000e-02,8.902587890625000000e-01
2.000000000000000000e+00,-7.000000000000000000e+00,-1.000000000000000000e+01,-1.100000000000000000e+01,-2.000000000000000000e+00,0.000000000000000000e+00,0.000000000000000000e+00,1.000000000000000000e+00,-8.312988281250000000e-02,4.410400390625000000e-01,-7.690429687500000000e-02,8.902587890625000000e-01
-2.000000000000000000e+00,-1.000000000000000000e+00,-4.000000000000000000e+00,2.100000000000000000e+01,7.000000000000000000e+00,2.000000000000000000e+00,7.000000000000000000e+00,1.000000000000000000e+00,-8.197021484375000000e-02,4.421386718750000000e-01,-7.812500000000000000e-02,8.897094726562500000e-01
5.000000000000000000e+00,1.200000000000000000e+01,1.700000000000000000e+01,-1.700000000000000000e+01,-2.000000000000000000e+00,0.000000000000000000e+00,3.000000000000000000e+00,1.000000000000000000e+00,-8.197021484375000000e-02,4.421386718750000000e-01,-7.812500000000000000e-02,8.897094726562500000e-01
-1.600000000000000000e+01,-4.400000000000000000e+01,-2.700000000000000000e+01,-6.000000000000000000e+00,-2.000000000000000000e+00,-4.000000000000000000e+00,-4.000000000000000000e+00,-1.000000000000000000e+01,-8.197021484375000000e-02,4.421386718750000000e-01,-7.812500000000000000e-02,8.897094726562500000e-01
6.000000000000000000e+00,2.000000000000000000e+01,1.500000000000000000e+01,4.000000000000000000e+00,-6.000000000000000000e+00,-3.000000000000000000e+00,-6.000000000000000000e+00,2.000000000000000000e+00,-8.197021484375000000e-02,4.421386718750000000e-01,-7.812500000000000000e-02,8.897094726562500000e-01
1.000000000000000000e+01,1.200000000000000000e+01,-1.000000000000000000e+00,9.000000000000000000e+00,-2.000000000000000000e+00,2.000000000000000000e+00,2.000000000000000000e+00,5.000000000000000000e+00,-8.111572265625000000e-02,4.433593750000000000e-01,-7.867431640625000000e-02,8.891601562500000000e-01
-2.000000000000000000e+00,-4.000000000000000000e+00,-1.100000000000000000e+01,2.000000000000000000e+00,2.000000000000000000e+00,2.000000000000000000e+00,6.000000000000000000e+00,-1.000000000000000000e+00,-8.111572265625000000e-02,4.433593750000000000e-01,-7.867431640625000000e-02,8.891601562500000000e-01
-5.000000000000000000e+00,0.000000000000000000e+00,4.000000000000000000e+00,-3.000000000000000000e+01,-1.400000000000000000e+01,-4.000000000000000000e+00,-5.000000000000000000e+00,-5.000000000000000000e+00,-8.111572265625000000e-02,4.433593750000000000e-01,-7.867431640625000000e-02,8.891601562500000000e-01
-4.000000000000000000e+00,-1.300000000000000000e+01,-2.000000000000000000e+00,2.900000000000000000e+01,1.400000000000000000e+01,-1.000000000000000000e+00,5.000000000000000000e+00,-2.000000000000000000e+00,-8.111572265625000000e-02,4.433593750000000000e-01,-7.867431640625000000e-02,8.891601562500000000e-01
0.000000000000000000e+00,-1.400000000000000000e+01,-6.000000000000000000e+00,-8.000000000000000000e+00,-8.000000000000000000e+00,-7.000000000000000000e+00,-5.000000000000000000e+00,-4.000000000000000000e+00,-8.099365234375000000e-02,4.445190429687500000e-01,-7.855224609375000000e-02,8.885498046875000000e-01
-1.000000000000000000e+00,2.700000000000000000e+01,1.600000000000000000e+01,3.000000000000000000e+00,-1.200000000000000000e+01,-5.000000000000000000e+00,-9.000000000000000000e+00,-4.000000000000000000e+00,-8.099365234375000000e-02,4.445190429687500000e-01,-7.855224609375000000e-02,8.885498046875000000e-01
-3.000000000000000000e+00,5.000000000000000000e+00,2.000000000000000000e+00,1.400000000000000000e+01,8.000000000000000000e+00,5.000000000000000000e+00,4.000000000000000000e+00,4.000000000000000000e+00,-8.099365234375000000e-02,4.445190429687500000e-01,-7.855224609375000000e-02,8.885498046875000000e-01
4.000000000000000000e+00,1.000000000000000000e+00,-1.000000000000000000e+00,6.000000000000000000e+00,9.000000000000000000e+00,2.000000000000000000e+00,8.000000000000000000e+00,7.000000000000000000e+00,-8.099365234375000000e-02,4.445190429687500000e-01,-7.855224609375000000e-02,8.885498046875000000e-01
-2.000000000000000000e+00,-9.000000000000000000e+00,-1.000000000000000000e+00,-6.000000000000000000e+00,-1.000000000000000000e+00,-1.000000000000000000e+00,-1.000000000000000000e+01,-4.000000000000000000e+00,-8.050537109375000000e-02,4.454345703125000000e-01,-7.910156250000000000e-02,8.881225585937500000e-01
-4.000000000000000000e+00,-1.300000000000000000e+01,-1.100000000000000000e+01,-1.200000000000000000e+01,-7.000000000000000000e+00,-3.000000000000000000e+00,8.000000000000000000e+00,2.000000000000000000e+00,-8.050537109375000000e-02,4.454345703125000000e-01,-7.910156250000000000e-02,8.881225585937500000e-01
9.000000000000000000e+00,7.000000000000000000e+00,6.000000000000000000e+00,-3.000000000000000000e+00,-7.000000000000000000e+00,-4.000000000000000000e+00,-3.000000000000000000e+00,1.000000000000000000e+00,-8.050537109375000000e-02,4.454345703125000000e-01,-7.910156250000000000e-02,8.881225585937500000e-01
-2.000000000000000000e+00,-5.000000000000000000e+00,-3.000000000000000000e+00,-3.000000000000000000e+00,2.000000000000000000e+00,5.000000000000000000e+00,0.000000000000000000e+00,-3.000000000000000000e+00,-8.050537109375000000e-02,4.454345703125000000e-01,-7.910156250000000000e-02,8.881225585937500000e-01
-1.000000000000000000e+00,5.000000000000000000e+00,-1.000000000000000000e+00,3.000000000000000000e+00,-2.000000000000000000e+00,-1.000000000000000000e+00,-1.000000000000000000e+00,-1.000000000000000000e+00,-7.824707031250000000e-02,4.461669921875000000e-01,-8.007812500000000000e-02,8.878784179687500000e-01
0.000000000000000000e+00,-2.000000000000000000e+00,-2.000000000000000000e+00,-9.000000000000000000e+00,-3.000000000000000000e+00,-2.000000000000000000e+00,-1.000000000000000000e+01,-8.000000000000000000e+00,-7.824707031250000000e-02,4.461669921875000000e-01,-8.007812500000000000e-02,8.878784179687500000e-01
-2.000000000000000000e+00,5.000000000000000000e+00,-9.000000000000000000e+00,4.000000000000000000e+00,9.000000000000000000e+00,1.000000000000000000e+00,-3.000000000000000000e+00,-1.000000000000000000e+00,-7.824707031250000000e-02,4.461669921875000000e-01,-8.007812500000000000e-02,8.878784179687500000e-01
1.000000000000000000e+00,-1.000000000000000000e+00,-2.000000000000000000e+00,-9.000000000000000000e+00,-5.000000000000000000e+00,-1.000000000000000000e+00,-3.000000000000000000e+00,0.000000000000000000e+00,-7.824707031250000000e-02,4.461669921875000000e-01,-8.007812500000000000e-02,8.878784179687500000e-01
0.000000000000000000e+00,2.000000000000000000e+00,1.000000000000000000e+00,-9.000000000000000000e+00,-1.500000000000000000e+01,-5.000000000000000000e+00,0.000000000000000000e+00,1.000000000000000000e+00,-7.598876953125000000e-02,4.469604492187500000e-01,-7.995605468750000000e-02,8.876953125000000000e-01
2.000000000000000000e+00,2.000000000000000000e+00,-7.000000000000000000e+00,1.900000000000000000e+01,2.100000000000000000e+01,1.000000000000000000e+00,-2.000000000000000000e+00,-1.000000000000000000e+00,-7.598876953125000000e-02,4.469604492187500000e-01,-7.995605468750000000e-02,8.876953125000000000e-01
-5.000000000000000000e+00,-8.000000000000000000e+00,7.000000000000000000e+00,-3.600000000000000000e+01,-2.500000000000000000e+01,-6.000000000000000000e+00,5.000000000000000000e+00,1.000000000000000000e+00,-7.598876953125000000e-02,4.469604492187500000e-01,-7.995605468750000000e-02,8.876953125000000000e-01
1.000000000000000000e+00,-3.000000000000000000e+00,-2.000000000000000000e+00,2.400000000000000000e+01,2.500000000000000000e+01,4.000000000000000000e+00,-1.000000000000000000e+00,-2.000000000000000000e+00,-7.598876953125000000e-02,4.469604492187500000e-01,-7.995605468750000000e-02,8.876953125000000000e-01
-4.000000000000000000e+00,1.400000000000000000e+01,3.100000000000000000e+01,1.800000000000000000e+01,7.000000000000000000e+00,0.000000000000000000e+00,-1.000000000000000000e+00,-3.000000000000000000e+00,-7.489013671875000000e-02,4.478149414062500000e-01,-7.891845703125000000e-02,8.874511718750000000e-01
2.000000000000000000e+00,-1.700000000000000000e+01,-3.700000000000000000e+01,0.000000000000000000e+00,-7.000000000000000000e+00,-3.000000000000000000e+00,0.000000000000000000e+00,-1.000000000000000000e+00,-7.489013671875000000e-02,4.478149414062500000e-01,-7.891845703125000000e-02,8.874511718750000000e-01
9.000000000000000000e+00,7.000000000000000000e+00,6.000000000000000000e+00,0.000000000000000000e+00,2.000000000000000000e+00,0.000000000000000000e+00,-2.000000000000000000e+00,-2.000000000000000000e+00,-7.489013671875000000e-02,4.478149414062500000e-01,-7.891845703125000000e-02,8.874511718750000000e-01
-1.400000000000000000e+01,-9.000000000000000000e+00,-1.000000000000000000e+01,-2.100000000000000000e+01,-1.400000000000000000e+01,-5.000000000000000000e+00,-5.000000000000000000e+00,-7.000000000000000000e+00,-7.489013671875000000e-02,4.478149414062500000e-01,-7.891845703125000000e-02,8.874511718750000000e-01
2.000000000000000000e+00,-1.000000000000000000e+00,1.000000000000000000e+00,0.000000000000000000e+00,1.000000000000000000e+00,-3.000000000000000000e+00,1.000000000000000000e+00,0.000000000000000000e+00,-7.366943359375000000e-02,4.490966796875000000e-01,-7.812500000000000000e-02,8.869628906250000000e-01
-5.000000000000000000e+00,-7.000000000000000000e+00,1.200000000000000000e+01,-1.500000000000000000e+01,-1.100000000000000000e+01,-4.000000000000000000e+00,-1.300000000000000000e+01,-7.000000000000000000e+00,-7.366943359375000000e-02,4.490966796875000000e-01,-7.812500000000000000e-02,8.869628906250000000e-01
5.000000000000000000e+00,1.300000000000000000e+01,2.000000000000000000e+00,-3.000000000000000000e+00,6.000000000000000000e+00,3.000000000000000000e+00,8.000000000000000000e+00,4.000000000000000000e+00,-7.366943359375000000e-02,4.490966796875000000e-01,-7.812500000000000000e-02,8.869628906250000000e-01
-1.000000000000000000e+00,-1.100000000000000000e+01,-4.000000000000000000e+00,5.000000000000000000e+00,1.000000000000000000e+00,-1.000000000000000000e+00,5.000000000000000000e+00,5.000000000000000000e+00,-7.366943359375000000e-02,4.490966796875000000e-01,-7.812500000000000000e-02,8.869628906250000000e-01
-3.000000000000000000e+00,1.000000000000000000e+00,-3.000000000000000000e+00,-2.000000000000000000e+00,-3.000000000000000000e+00,-1.000000000000000000e+00,-2.000000000000000000e+00,-2.000000000000000000e+00,-7.202148437500000000e-02,4.503173828125000000e-01,-7.788085937500000000e-02,8.865356445312500000e-01
-2.000000000000000000e+00,-1.000000000000000000e+01,4.000000000000000000e+00,-2.000000000000000000e+00,2.000000000000000000e+00,0.000000000000000000e+00,3.000000000000000000e+00,2.000000000000000000e+00,-7.202148437500000000e-02,4.503173828125000000e-01,-7.788085937500000000e-02,8.865356445312500000e-01
-2.000000000000000000e+00,-1.000000000000000000e+00,-6.000000000000000000e+00,2.000000000000000000e+00,-4.000000000000000000e+00,0.000000000000000000e+00,-3.000000000000000000e+00,-4.000000000000000000e+00,-7.202148437500000000e-02,4.503173828125000000e-01,-7.788085937500000000e-02,8.865356445312500000e-01
-6.000000000000000000e+00,-4.000000000000000000e+00,3.000000000000000000e+00,-4.000000000000000000e+00,-6.000000000000000000e+00,-4.000000000000000000e+00,-4.000000000000000000e+00,-5.000000000000000000e+00,-7.202148437500000000e-02,4.503173828125000000e-01,-7.788085937500000000e-02,8.865356445312500000e-01
0.000000000000000000e+00,-1.100000000000000000e+01,-4.000000000000000000e+00,2.000000000000000000e+00,4.000000000000000000e+00,2.000000000000000000e+00,-1.000000000000000000e+00,4.000000000000000000e+00,-7.037353515625000000e-02,4.514770507812500000e-01,-7.781982421875000000e-02,8.860473632812500000e-01
-1.000000000000000000e+00,1.300000000000000000e+01,2.000000000000000000e+00,-1.600000000000000000e+01,-7.000000000000000000e+00,-3.000000000000000000e+00,-3.000000000000000000e+00,-2.000000000000000000e+00,-7.037353515625000000e-02,4.514770507812500000e-01,-7.781982421875000000e-02,8.860473632812500000e-01
-3.000000000000000000e+00,-3.000000000000000000e+00,-9.000000000000000000e+00,7.000000000000000000e+00,1.000000000000000000e+00,0.000000000000000000e+00,-4.000000000000000000e+00,-3.000000000000000000e+00,-7.037353515625000000e-02,4.514770507812500000e-01,-7.781982421875000000e-02,8.860473632812500000e-01
-5.000000000000000000e+00,-2.000000000000000000e+00,-9.000000000000000000e+00,8.000000000000000000e+00,-2.100000000000000000e+01,-6.000000000000000000e+00,-4.000000000000000000e+00,-3.000000000000000000e+00,-7.037353515625000000e-02,4.514770507812500000e-01,-7.781982421875000000e-02,8.860473632812500000e-01
-2.000000000000000000e+00,-2.000000000000000000e+00,-3.000000000000000000e+00,4.000000000000000000e+00,1.800000000000000000e+01,6.000000000000000000e+00,4.000000000000000000e+00,0.000000000000000000e+00,-6.921386718750000000e-02,4.527587890625000000e-01,-7.702636718750000000e-02,8.855590820312500000e-01
8.000000000000000000e+00,-1.000000000000000000e+01,-1.300000000000000000e+01,1.000000000000000000e+01,1.000000000000000000e+00,-2.000000000000000000e+00,2.000000000000000000e+00,0.000000000000000000e+00,-6.921386718750000000e-02,4.527587890625000000e-01,-7.702636718750000000e-02,8.855590820312500000e-01
-1.700000000000000000e+01,1.000000000000000000e+01,2.800000000000000000e+01,2.000000000000000000e+01,-2.000000000000000000e+00,-3.000000000000000000e+00,2.000000000000000000e+00,2.000000000000000000e+00,-6.921386718750000000e-02,4.527587890625000000e-01,-7.702636718750000000e-02,8.855590820312500000e-01
4.000000000000000000e+00,-4.000000000000000000e+00,1.300000000000000000e+01,-2.900000000000000000e+01,-9.000000000000000000e+00,0.000000000000000000e+00,-3.000000000000000000e+00,-5.000000000000000000e+00,-6.921386718750000000e-02,4.527587890625000000e-01,-7.702636718750000000e-02,8.855590820312500000e-01
-2.000000000000000000e+00,-1.000000000000000000e+00,-2.200000000000000000e+01,-1.600000000000000000e+01,-1.000000000000000000e+01,-1.000000000000000000e+00,-9.000000000000000000e+00,-9.000000000000000000e+00,-6.896972656250000000e-02,4.538574218750000000e-01,-7.604980468750000000e-02,8.850708007812500000e-01
-3.000000000000000000e+00,0.000000000000000000e+00,8.000000000000000000e+00,1.600000000000000000e+01,1.200000000000000000e+01,4.000000000000000000e+00,7.000000000000000000e+00,3.000000000000000000e+00,-6.896972656250000000e-02,4.538574218750000000e-01,-7.604980468750000000e-02,8.850708007812500000e-01
1.000000000000000000e+00,-1.400000000000000000e+01,-1.200000000000000000e+01,-1.100000000000000000e+01,-5.000000000000000000e+00,-4.000000000000000000e+00,-4.000000000000000000e+00,-4.000000000000000000e+00,-6.896972656250000000e-02,4.538574218750000000e-01,-7.604980468750000000e-02,8.850708007812500000e-01
1.000000000000000000e+01,1.500000000000000000e+01,1.000000000000000000e+01,1.500000000000000000e+01,1.100000000000000000e+01,2.000000000000000000e+00,7.000000000000000000e+00,5.000000000000000000e+00,-6.896972656250000000e-02,4.538574218750000000e-01,-7.604980468750000000e-02,8.850708007812500000e-01
-2.000000000000000000e+00,1.000000000000000000e+00,5.000000000000000000e+00,-6.000000000000000000e+00,-5.000000000000000000e+00,-3.000000000000000000e+00,0.000000000000000000e+00,2.000000000000000000e+00,-6.890869140625000000e-02,4.544677734375000000e-01,-7.580566406250000000e-02,8.848266601562500000e-01
-4.000000000000000000e+00,-3.000000000000000000e+00,-1.000000000000000000e+01,-7.000000000000000000e+00,3.000000000000000000e+00,1.000000000000000000e+00,-2.000000000000000000e+00,-3.000000000000000000e+00,-6.890869140625000000e-02,4.544677734375000000e-01,-7.580566406250000000e-02,8.848266601562500000e-01
0.000000000000000000e+00,-2.000000000000000000e+00,1.000000000000000000e+00,-3.000000000000000000e+00,-3.000000000000000000e+00,-4.000000000000000000e+00,-8.000000000000000000e+00,-6.000000000000000000e+00,-6.890869140625000000e-02,4.544677734375000000e-01,-7.580566406250000000e-02,8.848266601562500000e-01
-9.000000000000000000e+00,-5.000000000000000000e+00,-9.000000000000000000e+00,-1.000000000000000000e+01,-5.000000000000000000e+00,-6.000000000000000000e+00,-4.000000000000000000e+00,-5.000000000000000000e+00,-6.890869140625000000e-02,4.544677734375000000e-01,-7.580566406250000000e-02,8.848266601562500000e-01
2.000000000000000000e+00,-2.000000000000000000e+00,0.000000000000000000e+00,1.600000000000000000e+01,2.000000000000000000e+00,3.000000000000000000e+00,9.000000000000000000e+00,4.000000000000000000e+00,-6.817626953125000000e-02,4.547119140625000000e-01,-7.635498046875000000e-02,8.847045898437500000e-01
0.000000000000000000e+00,4.000000000000000000e+00,-1.000000000000000000e+00,-1.000000000000000000e+01,-7.000000000000000000e+00,-1.000000000000000000e+00,-8.000000000000000000e+00,-3.000000000000000000e+00,-6.817626953125000000e-02,4.547119140625000000e-01,-7.635498046875000000e-02,8.847045898437500000e-01
0.000000000000000000e+00,4.000000000000000000e+00,-3.000000000000000000e+00,-6.000000000000000000e+00,-4.000000000000000000e+00,-1.000000000000000000e+00,4.000000000000000000e+00,2.000000000000000000e+00,-6.817626953125000000e-02,4.547119140625000000e-01,-7.635498046875000000e-02,8.847045898437500000e-01
-4.000000000000000000e+00,0.000000000000000000e+00,-1.000000000000000000e+00,1.000000000000000000e+00,-1.300000000000000000e+01,-7.000000000000000000e+00,-8.000000000000000000e+00,-5.000000000000000000e+00,-6.817626953125000000e-02,4.547119140625000000e-01,-7.635498046875000000e-02,8.847045898437500000e-01
1.000000000000000000e+00,3.000000000000000000e+00,-3.000000000000000000e+00,8.000000000000000000e+00,1.200000000000000000e+01,1.000000000000000000e+00,3.000000000000000000e+00,3.000000000000000000e+00,-6.762695312500000000e-02,4.550170898437500000e-01,-7.672119140625000000e-02,8.845825195312500000e-01
-3.000000000000000000e+00,-5.000000000000000000e+00,1.300000000000000000e+01,-3.000000000000000000e+00,-1.500000000000000000e+01,-5.000000000000000000e+00,-1.000000000000000000e+00,0.000000000000000000e+00,-6.762695312500000000e-02,4.550170898437500000e-01,-7.672119140625000000e-02,8.845825195312500000e-01
0.000000000000000000e+00,-5.000000000000000000e+00,-9.000000000000000000e+00,1.300000000000000000e+01,1.400000000000000000e+01,1.000000000000000000e+01,1.000000000000000000e+00,0.000000000000000000e+00,-6.762695312500000000e-02,4.550170898437500000e-01,-7.672119140625000000e-02,8.845825195312500000e-01
-2.000000000000000000e+00,2.000000000000000000e+00,1.300000000000000000e+01,-9.000000000000000000e+00,1.000000000000000000e+00,3.000000000000000000e+00,2.000000000000000000e+00,-2.000000000000000000e+00,-6.762695312500000000e-02,4.550170898437500000e-01,-7.672119140625000000e-02,8.845825195312500000e-01
-6.000000000000000000e+00,-1.100000000000000000e+01,-1.300000000000000000e+01,-2.200000000000000000e+01,-2.100000000000000000e+01,-7.000000000000000000e+00,-6.000000000000000000e+00,-5.000000000000000000e+00,-6.811523437500000000e-02,4.550170898437500000e-01,-7.659912109375000000e-02,8.845214843750000000e-01
-2.000000000000000000e+00,-3.000000000000000000e+00,-1.700000000000000000e+01,1.700000000000000000e+01,2.000000000000000000e+01,3.000000000000000000e+00,-1.000000000000000000e+00,-4.000000000000000000e+00,-6.811523437500000000e-02,4.550170898437500000e-01,-7.659912109375000000e-02,8.845214843750000000e-01
7.000000000000000000e+00,-6.000000000000000000e+00,-6.000000000000000000e+00,-1.500000000000000000e+01,-4.000000000000000000e+00,-2.000000000000000000e+00,-1.000000000000000000e+00,0.000000000000000000e+00,-6.811523437500000000e-02,4.550170898437500000e-01,-7.659912109375000000e-02,8.845214843750000000e-01
-8.000000000000000000e+00,-9.000000000000000000e+00,1.000000000000000000e+00,-1.900000000000000000e+01,-2.200000000000000000e+01,-3.000000000000000000e+00,-2.000000000000000000e+00,-6.000000000000000000e+00,-6.811523437500000000e-02,4.550170898437500000e-01,-7.659912109375000000e-02,8.845214843750000000e-01
5.000000000000000000e+00,1.900000000000000000e+01,1.300000000000000000e+01,4.000000000000000000e+01,4.500000000000000000e+01,1.000000000000000000e+01,2.000000000000000000e+00,7.000000000000000000e+00,-6.921386718750000000e-02,4.545898437500000000e-01,-7.659912109375000000e-02,8.846435546875000000e-01
-1.000000000000000000e+00,3.000000000000000000e+00,8.000000000000000000e+00,-1.200000000000000000e+01,-4.000000000000000000e+00,-2.000000000000000000e+00,2.000000000000000000e+00,6.000000000000000000e+00,-6.921386718750000000e-02,4.545898437500000000e-01,-7.659912109375000000e-02,8.846435546875000000e-01
0.000000000000000000e+00,1.000000000000000000e+00,-5.000000000000000000e+00,2.000000000000000000e+00,-5.000000000000000000e+00,-1.000000000000000000e+00,2.000000000000000000e+00,1.000000000000000000e+00,-6.921386718750000000e-02,4.545898437500000000e-01,-7.659912109375000000e-02,8.846435546875000000e-01
4.000000000000000000e+00,-9.000000000000000000e+00,-5.000000000000000000e+00,-1.000000000000000000e+01,-2.000000000000000000e+00,-1.000000000000000000e+00,-7.000000000000000000e+00,-2.000000000000000000e+00,-6.921386718750000000e-02,4.545898437500000000e-01,-7.659912109375000000e-02,8.846435546875000000e-01
-9.000000000000000000e+00,-8.000000000000000000e+00,-1.100000000000000000e+01,-1.200000000000000000e+01,-1.300000000000000000e+01,-5.000000000000000000e+00,0.000000000000000000e+00,-5.000000000000000000e+00,-7.000732421875000000e-02,4.537963867187500000e-01,-7.775878906250000000e-02,8.848876953125000000e-01
5.000000000000000000e+00,4.000000000000000000e+00,0.000000000000000000e+00,-4.000000000000000000e+00,-6.000000000000000000e+00,-1.000000000000000000e+00,-1.000000000000000000e+00,-3.000000000000000000e+00,-7.000732421875000000e-02,4.537963867187500000e-01,-7.775878906250000000e-02,8.848876953125000000e-01
-5.000000000000000000e+00,0.000000000000000000e+00,6.000000000000000000e+00,7.000000000000000000e+00,8.000000000000000000e+00,-2.000000000000000000e+00,1.000000000000000000e+00,0.000000000000000000e+00,-7.000732421875000000e-02,4.537963867187500000e-01,-7.775878906250000000e-02,8.848876953125000000e-01
1.000000000000000000e+00,4.000000000000000000e+00,-4.000000000000000000e+00,5.000000000000000000e+00,5.000000000000000000e+00,-2.000000000000000000e+00,1.000000000000000000e+00,-3.000000000000000000e+00,-7.000732421875000000e-02,4.537963867187500000e-01,-7.775878906250000000e-02,8.848876953125000000e-01
0.000000000000000000e+00,-8.000000000000000000e+00,2.000000000000000000e+00,-8.000000000000000000e+00,-1.500000000000000000e+01,-5.000000000000000000e+00,-3.000000000000000000e+00,-2.000000000000000000e+00,-6.988525390625000000e-02,4.530639648437500000e-01,-7.916259765625000000e-02,8.851928710937500000e-01
-2.000000000000000000e+00,1.000000000000000000e+00,-3.000000000000000000e+00,-1.200000000000000000e+01,4.000000000000000000e+00,2.000000000000000000e+00,5.000000000000000000e+00,3.000000000000000000e+00,-6.988525390625000000e-02,4.530639648437500000e-01,-7.916259765625000000e-02,8.851928710937500000e-01
-4.000000000000000000e+00,3.000000000000000000e+00,-5.000000000000000000e+00,2.000000000000000000e+01,7.000000000000000000e+00,0.000000000000000000e+00,-6.000000000000000000e+00,-3.000000000000000000e+00,-6.988525390625000000e-02,4.530639648437500000e-01,-7.916259765625000000e-02,8.851928710937500000e-01
2.000000000000000000e+00,1.200000000000000000e+01,3.200000000000000000e+01,-9.000000000000000000e+00,-5.000000000000000000e+00,-3.000000000000000000e+00,2.000000000000000000e+00,4.000000000000000000e+00,-6.988525390625000000e-02,4.530639648437500000e-01,-7.916259765625000000e-02,8.851928710937500000e-01
-1.000000000000000000e+00,-2.300000000000000000e+01,-2.900000000000000000e+01,8.000000000000000000e+00,0.000000000000000000e+00,-1.000000000000000000e+00,-2.000000000000000000e+00,0.000000000000000000e+00,-6.964111328125000000e-02,4.526977539062500000e-01,-7.952880859375000000e-02,8.853149414062500000e-01
-3.000000000000000000e+00,2.700000000000000000e+01,7.000000000000000000e+00,-3.000000000000000000e+00,-5.000000000000000000e+00,-1.000000000000000000e+00,-3.000000000000000000e+00,-5.000000000000000000e+00,-6.964111328125000000e-02,4.526977539062500000e-01,-7.952880859375000000e-02,8.853149414062500000e-01
0.000000000000000000e+00,-7.000000000000000000e+00,0.000000000000000000e+00,5.000000000000000000e+00,7.000000000000000000e+00,-2.000000000000000000e+00,1.000000000000000000e+00,-1.000000000000000000e+00,-6.964111328125000000e-02,4.526977539062500000e-01,-7.952880859375000000e-02,8.853149414062500000e-01
1.000000000000000000e+00,8.000000000000000000e+00,-5.000000000000000000e+00,-5.000000000000000000e+00,2.000000000000000000e+00,1.000000000000000000e+00,1.000000000000000000e+00,2.000000000000000000e+00,-6.964111328125000000e-02,4.526977539062500000e-01,-7.952880859375000000e-02,8.853149414062500000e-01
6.000000000000000000e+00,5.000000000000000000e+00,1.500000000000000000e+01,5.000000000000000000e+00,-3.000000000000000000e+00,1.000000000000000000e+00,0.000000000000000000e+00,-1.000000000000000000e+00,-7.043457031250000000e-02,4.524536132812500000e-01,-7.904052734375000000e-02,8.854370117187500000e-01
-1.600000000000000000e+01,-2.200000000000000000e+01,-6.000000000000000000e+00,-7.000000000000000000e+00,-9.000000000000000000e+00,-3.000000000000000000e+00,-3.000000000000000000e+00,0.000000000000000000e+00,-7.043457031250000000e-02,4.524536132812500000e-01,-7.904052734375000000e-02,8.854370117187500000e-01
0.000000000000000000e+00,7.000000000000000000e+00,1.000000000000000000e+00,-7.000000000000000000e+00,-6.000000000000000000e+00,0.000000000000000000e+00,-4.000000000000000000e+00,-5.000000000000000000e+00,-7.043457031250000000e-02,4.524536132812500000e-01,-7.904052734375000000e-02,8.854370117187500000e-01
-4.000000000000000000e+00,-5.000000000000000000e+00,-3.000000000000000000e+00,1.500000000000000000e+01,7.000000000000000000e+00,-3.000000000000000000e+00,-7.000000000000000000e+00,-4.000000000000000000e+00,-7.043457031250000000e-02,4.524536132812500000e-01,-7.904052734375000000e-02,8.854370117187500000e-01
-6.000000000000000000e+00,-5.000000000000000000e+00,-6.000000000000000000e+00,-1.900000000000000000e+01,-2.100000000000000000e+01,-3.000000000000000000e+00,6.000000000000000000e+00,1.000000000000000000e+00,-7.165527343750000000e-02,4.521484375000000000e-01,-7.824707031250000000e-02,8.855590820312500000e-01
1.500000000000000000e+01,0.000000000000000000e+00,-2.000000000000000000e+00,7.000000000000000000e+00,7.000000000000000000e+00,2.000000000000000000e+00,1.000000000000000000e+00,5.000000000000000000e+00,-7.165527343750000000e-02,4.521484375000000000e-01,-7.824707031250000000e-02,8.855590820312500000e-01
-5.000000000000000000e+00,4.000000000000000000e+00,6.000000000000000000e+00,-2.000000000000000000e+00,-8.000000000000000000e+00,-5.000000000000000000e+00,-1.000000000000000000e+00,-1.000000000000000000e+00,-7.165527343750000000e-02,4.521484375000000000e-01,-7.824707031250000000e-02,8.855590820312500000e-01
4.000000000000000000e+00,-8.000000000000000000e+00,-1.700000000000000000e+01,-5.000000000000000000e+00,2.000000000000000000e+00,2.000000000000000000e+00,0.000000000000000000e+00,4.000000000000000000e+00,-7.165527343750000000e-02,4.521484375000000000e-01,-7.824707031250000000e-02,8.855590820312500000e-01
-5.000000000000000000e+00,2.000000000000000000e+00,5.000000000000000000e+00,-3.000000000000000000e+00,-5.000000000000000000e+00,-4.000000000000000000e+00,-5.000000000000000000e+00,-2.000000000000000000e+00,-7.177734375000000000e-02,4.521484375000000000e-01,-7.794189453125000000e-02,8.856201171875000000e-01
-3.000000000000000000e+00,4.000000000000000000e+00,5.000000000000000000e+00,1.000000000000000000e+00,-4.000000000000000000e+00,-1.000000000000000000e+00,-2.000000000000000000e+00,-2.000000000000000000e+00,-7.177734375000000000e-02,4.521484375000000000e-01,-7.794189453125000000e-02,8.856201171875000000e-01
0.000000000000000000e+00,-2.000000000000000000e+00,-2.000000000000000000e+00,-4.000000000000000000e+00,2.000000000000000000e+00,5.000000000000000000e+00,6.000000000000000000e+00,0.000000000000000000e+00,-7.177734375000000000e-02,4.521484375000000000e-01,-7.794189453125000000e-02,8.856201171875000000e-01
2.000000000000000000e+00,-7.000000000000000000e+00,-4.000000000000000000e+00,9.000000000000000000e+00,3.000000000000000000e+00,0.000000000000000000e+00,-2.000000000000000000e+00,-1.000000000000000000e+00,-7.177734375000000000e-02,4.521484375000000000e-01,-7.794189453125000000e-02,8.856201171875000000e-01
-1.000000000000000000e+00,-5.000000000000000000e+00,2.000000000000000000e+00,-1.100000000000000000e+01,1.000000000000000000e+00,0.000000000000000000e+00,-1.000000000000000000e+00,0.000000000000000000e+00,-7.043457031250000000e-02,4.525146484375000000e-01,-7.806396484375000000e-02,8.854980468750000000e-01
6.000000000000000000e+00,1.700000000000000000e+01,4.000000000000000000e+00,1.200000000000000000e+01,-7.000000000000000000e+00,-2.000000000000000000e+00,0.000000000000000000e+00,0.000000000000000000e+00,-7.043457031250000000e-02,4.525146484375000000e-01,-7.806396484375000000e-02,8.854980468750000000e-01
-2.000000000000000000e+00,-2.600000000000000000e+01,-2.300000000000000000e+01,-3.300000000000000000e+01,-1.000000000000000000e+01,-4.000000000000000000e+00,0.000000000000000000e+00,-1.000000000000000000e+00,-7.043457031250000000e-02,4.525146484375000000e-01,-7.806396484375000000e-02,8.854980468750000000e-01
1.000000000000000000e+00,3.100000000000000000e+01,2.100000000000000000e+01,3.200000000000000000e+01,1.600000000000000000e+01,1.000000000000000000e+00,-2.000000000000000000e+00,0.000000000000000000e+00,-7.043457031250000000e-02,4.525146484375000000e-01,-7.806396484375000000e-02,8.854980468750000000e-01
-1.000000000000000000e+00,1.000000000000000000e+00,5.000000000000000000e+00,5.000000000000000000e+00,1.000000000000000000e+00,-2.000000000000000000e+00,-6.000000000000000000e+00,-4.000000000000000000e+00,-6.909179687500000000e-02,4.530639648437500000e-01,-7.757568359375000000e-02,8.853759765625000000e-01
0.000000000000000000e+00,-8.000000000000000000e+00,5.000000000000000000e+00,-1.100000000000000000e+01,2.000000000000000000e+00,1.000000000000000000e+00,2.000000000000000000e+00,4.000000000000000000e+00,-6.909179687500000000e-02,4.530639648437500000e-01,-7.757568359375000000e-02,8.853759765625000000e-01
2.000000000000000000e+00,-3.000000000000000000e+00,-3.000000000000000000e+00,-2.000000000000000000e+00,-9.000000000000000000e+00,-3.000000000000000000e+00,-7.000000000000000000e+00,-2.000000000000000000e+00,-6.909179687500000000e-02,4.530639648437500000e-01,-7.757568359375000000e-02,8.853759765625000000e-01
-1.000000000000000000e+01,-1.800000000000000000e+01,-1.700000000000000000e+01,-9.000000000000000000e+00,-9.000000000000000000e+00,-2.000000000000000000e+00,0.000000000000000000e+00,-6.000000000000000000e+00,-6.909179687500000000e-02,4.530639648437500000e-01,-7.757568359375000000e-02,8.853759765625000000e-01
2.000000000000000000e+00,6.000000000000000000e+00,-1.000000000000000000e+00,-1.600000000000000000e+01,-5.000000000000000000e+00,0.000000000000000000e+00,2.000000000000000000e+00,2.000000000000000000e+00,-6.921386718750000000e-02,4.531860351562500000e-01,-7.635498046875000000e-02,8.853759765625000000e-01
0.000000000000000000e+00,-4.000000000000000000e+00,1.000000000000000000e+00,7.000000000000000000e+00,8.000000000000000000e+00,-3.000000000000000000e+00,-2.000000000000000000e+00,0.000000000000000000e+00,-6.921386718750000000e-02,4.531860351562500000e-01,-7.635498046875000000e-02,8.853759765625000000e-01
-3.000000000000000000e+00,5.000000000000000000e+00,1.300000000000000000e+01,1.000000000000000000e+01,0.000000000000000000e+00,-2.000000000000000000e+00,-1.000000000000000000e+00,0.000000000000000000e+00,-6.921386718750000000e-02,4.531860351562500000e-01,-7.635498046875000000e-02,8.853759765625000000e-01
0.000000000000000000e+00,-7.000000000000000000e+00,-5.000000000000000000e+00,3.000000000000000000e+00,4.000000000000000000e+00,5.000000000000000000e+00,4.000000000000000000e+00,1.000000000000000000e+00,-6.921386718750000000e-02,4.531860351562500000e-01,-7.635498046875000000e-02,8.853759765625000000e-01
-1.300000000000000000e+01,4.000000000000000000e+00,-2.000000000000000000e+00,-5.000000000000000000e+00,-9.000000000000000000e+00,-7.000000000000000000e+00,-1.400000000000000000e+01,-1.100000000000000000e+01,-6.976318359375000000e-02,4.531250000000000000e-01,-7.562255859375000000e-02,8.854370117187500000e-01
1.000000000000000000e+01,-9.000000000000000000e+00,-8.000000000000000000e+00,-4.000000000000000000e+00,-2.000000000000000000e+00,3.000000000000000000e+00,1.100000000000000000e+01,1.000000000000000000e+01,-6.976318359375000000e-02,4.531250000000000000e-01,-7.562255859375000000e-02,8.854370117187500000e-01
5.000000000000000000e+00,1.100000000000000000e+01,1.000000000000000000e+01,6.000000000000000000e+00,0.000000000000000000e+00,2.000000000000000000e+00,2.000000000000000000e+00,4.000000000000000000e+00,-6.976318359375000000e-02,4.531250000000000000e-01,-7.562255859375000000e-02,8.854370117187500000e-01
0.000000000000000000e+00,-4.000000000000000000e+00,-1.900000000000000000e+01,-1.900000000000000000e+01,-1.400000000000000000e+01,-3.000000000000000000e+00,-3.000000000000000000e+00,-3.000000000000000000e+00,-6.976318359375000000e-02,4.531250000000000000e-01,-7.562255859375000000e-02,8.854370117187500000e-01
5.000000000000000000e+00,4.000000000000000000e+00,0.000000000000000000e+00,1.800000000000000000e+01,1.800000000000000000e+01,2.000000000000000000e+00,5.000000000000000000e+00,3.000000000000000000e+00,-6.927490234375000000e-02,4.531250000000000000e-01,-7.617187500000000000e-02,8.854370117187500000e-01
-8.000000000000000000e+00,-1.600000000000000000e+01,-4.000000000000000000e+00,-6.000000000000000000e+00,-6.000000000000000000e+00,-4.000000000000000000e+00,-1.500000000000000000e+01,-1.400000000000000000e+01,-6.927490234375000000e-02,4.531250000000000000e-01,-7.617187500000000000e-02,8.854370117187500000e-01
1.000000000000000000e+00,-3.000000000000000000e+00,2.000000000000000000e+00,-1.200000000000000000e+01,-1.000000000000000000e+00,0.000000000000000000e+00,1.500000000000000000e+01,8.000000000000000000e+00,-6.927490234375000000e-02,4.531250000000000000e-01,-7.617187500000000000e-02,8.854370117187500000e-01
1.000000000000000000e+00,1.700000000000000000e+01,4.000000000000000000e+00,0.000000000000000000e+00,-5.000000000000000000e+00,-4.000000000000000000e+00,-5.000000000000000000e+00,-3.000000000000000000e+00,-6.927490234375000000e-02,4.531250000000000000e-01,-7.617187500000000000e-02,8.854370117187500000e-01
-3.000000000000000000e+00,-4.000000000000000000e+00,-1.100000000000000000e+01,8.000000000000000000e+00,-2.000000000000000000e+00,-3.000000000000000000e+00,-5.000000000000000000e+00,-3.000000000000000000e+00,-6.811523437500000000e-02,4.530639648437500000e-01,-7.684326171875000000e-02,8.854980468750000000e-01
2.000000000000000000e+00,1.300000000000000000e+01,4.100000000000000000e+01,3.400000000000000000e+01,2.600000000000000000e+01,6.000000000000000000e+00,0.000000000000000000e+00,3.000000000000000000e+00,-6.811523437500000000e-02,4.530639648437500000e-01,-7.684326171875000000e-02,8.854980468750000000e-01
-5.000000000000000000e+00,-1.600000000000000000e+01,-4.000000000000000000e+01,-1.700000000000000000e+01,-1.400000000000000000e+01,-4.000000000000000000e+00,-8.000000000000000000e+00,-5.000000000000000000e+00,-6.811523437500000000e-02,4.530639648437500000e-01,-7.684326171875000000e-02,8.854980468750000000e-01
-5.000000000000000000e+00,0.000000000000000000e+00,-7.000000000000000000e+00,1.000000000000000000e+00,2.000000000000000000e+00,1.000000000000000000e+00,-3.000000000000000000e+00,-2.000000000000000000e+00,-6.811523437500000000e-02,4.530639648437500000e-01,-7.684326171875000000e-02,8.854980468750000000e-01
2.000000000000000000e+00,-2.000000000000000000e+00,3.000000000000000000e+00,-1.100000000000000000e+01,-7.000000000000000000e+00,-4.000000000000000000e+00,-1.000000000000000000e+00,-2.000000000000000000e+00,-6.726074218750000000e-02,4.531860351562500000e-01,-7.678222656250000000e-02,8.854980468750000000e-01
-5.000000000000000000e+00,1.000000000000000000e+00,-1.100000000000000000e+01,-1.200000000000000000e+01,-1.200000000000000000e+01,-5.000000000000000000e+00,-4.000000000000000000e+00,-5.000000000000000000e+00,-6.726074218750000000e-02,4.531860351562500000e-01,-7.678222656250000000e-02,8.854980468750000000e-01
-7.000000000000000000e+00,-7.000000000000000000e+00,3.000000000000000000e+00,6.000000000000000000e+00,-9.000000000000000000e+00,-2.000000000000000000e+00,-4.000000000000000000e+00,-6.000000000000000000e+00,-6.726074218750000000e-02,4.531860351562500000e-01,-7.678222656250000000e-02,8.854980468750000000e-01
2.000000000000000000e+00,-2.000000000000000000e+00,1.000000000000000000e+01,9.000000000000000000e+00,2.600000000000000000e+01,7.000000000000000000e+00,7.000000000000000000e+00,5.000000000000000000e+00,-6.726074218750000000e-02,4.531860351562500000e-01,-7.678222656250000000e-02,8.854980468750000000e-01
2.000000000000000000e+00,6.000000000000000000e+00,5.000000000000000000e+00,3.000000000000000000e+00,9.000000000000000000e+00,1.000000000000000000e+00,-3.000000000000000000e+00,1.000000000000000000e+00,-6.811523437500000000e-02,4.530639648437500000e-01,-7.647705078125000000e-02,8.854980468750000000e-01
-6.000000000000000000e+00,-9.000000000000000000e+00,-1.600000000000000000e+01,-9.000000000000000000e+00,-7.000000000000000000e+00,-3.000000000000000000e+00,-9.000000000000000000e+00,-8.000000000000000000e+00,-6.811523437500000000e-02,4.530639648437500000e-01,-7.647705078125000000e-02,8.854980468750000000e-01
-1.000000000000000000e+00,7.000000000000000000e+00,5.000000000000000000e+00,0.000000000000000000e+00,2.000000000000000000e+00,-2.000000000000000000e+00,3.000000000000000000e+00,1.000000000000000000e+00,-6.811523437500000000e-02,4.530639648437500000e-01,-7.647705078125000000e-02,8.854980468750000000e-01
-4.000000000000000000e+00,-1.400000000000000000e+01,-1.500000000000000000e+01,-1.400000000000000000e+01,-9.000000000000000000e+00,-5.000000000000000000e+00,-4.000000000000000000e+00,-1.000000000000000000e+00,-6.811523437500000000e-02,4.530639648437500000e-01,-7.647705078125000000e-02,8.854980468750000000e-01
1.000000000000000000e+00,6.000000000000000000e+00,4.000000000000000000e+00,-9.000000000000000000e+00,-1.500000000000000000e+01,-1.000000000000000000e+00,2.000000000000000000e+00,-3.000000000000000000e+00,-6.872558593750000000e-02,4.528198242187500000e-01,-7.666015625000000000e-02,8.855590820312500000e-01
-2.100000000000000000e+01,-1.400000000000000000e+01,5.000000000000000000e+00,2.600000000000000000e+01,1.100000000000000000e+01,3.000000000000000000e+00,1.000000000000000000e+00,-3.000000000000000000e+00,-6.872558593750000000e-02,4.528198242187500000e-01,-7.666015625000000000e-02,8.855590820312500000e-01
8.000000000000000000e+00,5.000000000000000000e+00,-2.000000000000000000e+00,0.000000000000000000e+00,0.000000000000000000e+00,-3.000000000000000000e+00,-1.000000000000000000e+00,0.000000000000000000e+00,-6.872558593750000000e-02,4.528198242187500000e-01,-7.666015625000000000e-02,8.855590820312500000e-01
5.000000000000000000e+00,2.000000000000000000e+00,2.000000000000000000e+00,1.000000000000000000e+00,-1.000000000000000000e+00,0.000000000000000000e+00,0.000000000000000000e+00,2.000000000000000000e+00,-6.872558593750000000e-02,4.528198242187500000e-01,-7.666015625000000000e-02,8.855590820312500000e-01
-1.000000000000000000e+00,-4.000000000000000000e+00,-2.000000000000000000e+00,-3.000000000000000000e+00,0.000000000000000000e+00,-3.000000000000000000e+00,-2.000000000000000000e+00,-2.000000000000000000e+00,-6.817626953125000000e-02,4.527587890625000000e-01,-7.745361328125000000e-02,8.856201171875000000e-01
2.000000000000000000e+00,2.000000000000000000e+00,0.000000000000000000e+00,-1.800000000000000000e+01,-8.000000000000000000e+00,-3.000000000000000000e+00,2.000000000000000000e+00,0.000000000000000000e+00,-6.817626953125000000e-02,4.527587890625000000e-01,-7.745361328125000000e-02,8.856201171875000000e-01
-3.000000000000000000e+00,-2.000000000000000000e+00,-2.000000000000000000e+00,1.000000000000000000e+01,2.000000000000000000e+00,0.000000000000000000e+00,-1.000000000000000000e+00,-1.000000000000000000e+00,-6.817626953125000000e-02,4.527587890625000000e-01,-7.745361328125000000e-02,8.856201171875000000e-01
-5.000000000000000000e+00,-1.100000000000000000e+01,-9.000000000000000000e+00,-2.800000000000000000e+01,-1.400000000000000000e+01,-4.000000000000000000e+00,-4.000000000000000000e+00,-4.000000000000000000e+00,-6.817626953125000000e-02,4.527587890625000000e-01,-7.745361328125000000e-02,8.856201171875000000e-01
1.000000000000000000e+00,1.000000000000000000e+01,3.000000000000000000e+01,3.500000000000000000e+01,2.700000000000000000e+01,5.000000000000000000e+00,2.000000000000000000e+00,3.000000000000000000e+00,-6.787109375000000000e-02,4.528198242187500000e-01,-7.781982421875000000e-02,8.855590820312500000e-01
-1.000000000000000000e+00,7.000000000000000000e+00,-4.800000000000000000e+01,-1.700000000000000000e+01,-7.000000000000000000e+00,-3.000000000000000000e+00,-2.000000000000000000e+00,-2.000000000000000000e+00,-6.787109375000000000e-02,4.528198242187500000e-01,-7.781982421875000000e-02,8.855590820312500000e-01
1.000000000000000000e+00,7.000000000000000000e+00,1.100000000000000000e+01,5.000000000000000000e+00,3.000000000000000000e+00,-1.000000000000000000e+00,-1.000000000000000000e+00,0.000000000000000000e+00,-6.787109375000000000e-02,4.528198242187500000e-01,-7.781982421875000000e-02,8.855590820312500000e-01
-2.000000000000000000e+00,-9.000000000000000000e+00,-3.000000000000000000e+00,-1.100000000000000000e+01,-8.000000000000000000e+00,-6.000000000000000000e+00,0.000000000000000000e+00,-3.000000000000000000e+00,-6.787109375000000000e-02,4.528198242187500000e-01,-7.781982421875000000e-02,8.855590820312500000e-01
-6.000000000000000000e+00,-9.000000000000000000e+00,-7.000000000000000000e+00,-4.000000000000000000e+00,-1.100000000000000000e+01,-5.000000000000000000e+00,-6.000000000000000000e+00,-6.000000000000000000e+00,-6.811523437500000000e-02,4.528198242187500000e-01,-7.757568359375000000e-02,8.855590820312500000e-01
3.000000000000000000e+00,2.000000000000000000e+00,5.000000000000000000e+00,-2.200000000000000000e+01,-5.000000000000000000e+00,1.000000000000000000e+00,1.000000000000000000e+00,1.000000000000000000e+00,-6.811523437500000000e-02,4.528198242187500000e-01,-7.757568359375000000e-02,8.855590820312500000e-01
6.000000000000000000e+00,1.000000000000000000e+00,8.000000000000000000e+00,4.200000000000000000e+01,2.200000000000000000e+01,6.000000000000000000e+00,3.000000000000000000e+00,3.000000000000000000e+00,-6.811523437500000000e-02,4.528198242187500000e-01,-7.757568359375000000e-02,8.855590820312500000e-01
-7.000000000000000000e+00,-6.000000000000000000e+00,-5.000000000000000000e+00,2.000000000000000000e+00,-5.000000000000000000e+00,-6.000000000000000000e+00,-6.000000000000000000e+00,-5.000000000000000000e+00,-6.811523437500000000e-02,4.528198242187500000e-01,-7.757568359375000000e-02,8.855590820312500000e-01
-7.000000000000000000e+00,-1.100000000000000000e+01,-2.100000000000000000e+01,-1.400000000000000000e+01,-1.000000000000000000e+01,0.000000000000000000e+00,1.000000000000000000e+00,0.000000000000000000e+00,-6.848144531250000000e-02,4.524536132812500000e-01,-7.708740234375000000e-02,8.858032226562500000e-01
-3.000000000000000000e+00,2.000000000000000000e+00,8.000000000000000000e+00,3.000000000000000000e+00,-3.000000000000000000e+00,-5.000000000000000000e+00,-3.000000000000000000e+00,-2.000000000000000000e+00,-6.848144531250000000e-02,4.524536132812500000e-01,-7.708740234375000000e-02,8.858032226562500000e-01
-3.000000000000000000e+00,0.000000000000000000e+00,-7.000000000000000000e+00,-2.100000000000000000e+01,-1.100000000000000000e+01,-4.000000000000000000e+00,-7.000000000000000000e+00,-3.000000000000000000e+00,-6.848144531250000000e-02,4.524536132812500000e-01,-7.708740234375000000e-02,8.858032226562500000e-01
2.000000000000000000e+00,1.000000000000000000e+00,6.000000000000000000e+00,4.000000000000000000e+00,-1.000000000000000000e+00,-2.000000000000000000e+00,2.000000000000000000e+00,1.000000000000000000e+00,-6.848144531250000000e-02,4.524536132812500000e-01,-7.708740234375000000e-02,8.858032226562500000e-01
6.000000000000000000e+00,1.300000000000000000e+01,8.000000000000000000e+00,-1.000000000000000000e+00,2.000000000000000000e+00,0.000000000000000000e+00,4.000000000000000000e+00,0.000000000000000000e+00,-6.896972656250000000e-02,4.519042968750000000e-01,-7.733154296875000000e-02,8.859863281250000000e-01
5.000000000000000000e+00,-1.100000000000000000e+01,-7.000000000000000000e+00,-4.000000000000000000e+00,-2.000000000000000000e+00,-1.000000000000000000e+00,4.000000000000000000e+00,8.000000000000000000e+00,-6.896972656250000000e-02,4.519042968750000000e-01,-7.733154296875000000e-02,8.859863281250000000e-01
1.000000000000000000e+00,1.000000000000000000e+00,1.000000000000000000e+00,-4.000000000000000000e+00,1.000000000000000000e+00,1.000000000000000000e+00,0.000000000000000000e+00,0.000000000000000000e+00,-6.896972656250000000e-02,4.519042968750000000e-01,-7.733154296875000000e-02,8.859863281250000000e-01
-3.000000000000000000e+00,0.000000000000000000e+00,5.000000000000000000e+00,9.000000000000000000e+00,3.000000000000000000e+00,0.000000000000000000e+00,-7.000000000000000000e+00,-5.000000000000000000e+00,-6.896972656250000000e-02,4.519042968750000000e-01,-7.733154296875000000e-02,8.859863281250000000e-01
2.000000000000000000e+00,-1.000000000000000000e+00,-1.700000000000000000e+01,-2.700000000000000000e+01,-7.000000000000000000e+00,1.000000000000000000e+00,3.000000000000000000e+00,1.000000000000000000e+00,-6.829833984375000000e-02,4.512329101562500000e-01,-7.800292968750000000e-02,8.862915039062500000e-01
-4.000000000000000000e+00,-1.000000000000000000e+00,6.000000000000000000e+00,1.900000000000000000e+01,8.000000000000000000e+00,-1.000000000000000000e+00,0.000000000000000000e+00,-3.000000000000000000e+00,-6.829833984375000000e-02,4.512329101562500000e-01,-7.800292968750000000e-02,8.862915039062500000e-01
-3.000000000000000000e+00,-9.000000000000000000e+00,0.000000000000000000e+00,-5.000000000000000000e+00,1.000000000000000000e+00,-2.000000000000000000e+00,-3.000000000000000000e+00,-2.000000000000000000e+00,-6.829833984375000000e-02,4.512329101562500000e-01,-7.800292968750000000e-02,8.862915039062500000e-01
2.000000000000000000e+00,1.100000000000000000e+01,0.000000000000000000e+00,-1.000000000000000000e+01,-1.700000000000000000e+01,-4.000000000000000000e+00,2.000000000000000000e+00,3.000000000000000000e+00,-6.829833984375000000e-02,4.512329101562500000e-01,-7.800292968750000000e-02,8.862915039062500000e-01
6.000000000000000000e+00,1.000000000000000000e+01,2.900000000000000000e+01,3.100000000000000000e+01,3.300000000000000000e+01,6.000000000000000000e+00,-3.000000000000000000e+00,1.000000000000000000e+00,-6.774902343750000000e-02,4.509277343750000000e-01,-7.812500000000000000e-02,8.865356445312500000e-01
-2.000000000000000000e+00,-7.000000000000000000e+00,-3.200000000000000000e+01,-1.100000000000000000e+01,-1.200000000000000000e+01,0.000000000000000000e+00,4.000000000000000000e+00,-2.000000000000000000e+00,-6.774902343750000000e-02,4.509277343750000000e-01,-7.812500000000000000e-02,8.865356445312500000e-01
-5.000000000000000000e+00,0.000000000000000000e+00,1.000000000000000000e+00,-2.000000000000000000e+00,1.000000000000000000e+00,0.000000000000000000e+00,-2.000000000000000000e+00,-2.000000000000000000e+00,-6.774902343750000000e-02,4.509277343750000000e-01,-7.812500000000000000e-02,8.865356445312500000e-01
-3.000000000000000000e+00,-1.000000000000000000e+01,-5.000000000000000000e+00,-1.500000000000000000e+01,-2.000000000000000000e+00,-1.000000000000000000e+00,5.000000000000000000e+00,-1.000000000000000000e+00,-6.774902343750000000e-02,4.509277343750000000e-01,-7.812500000000000000e-02,8.865356445312500000e-01
-2.000000000000000000e+00,-1.000000000000000000e+01,-7.000000000000000000e+00,8.000000000000000000e+00,-1.500000000000000000e+01,-3.000000000000000000e+00,-4.000000000000000000e+00,-3.000000000000000000e+00,-6.793212890625000000e-02,4.506835937500000000e-01,-7.781982421875000000e-02,8.866577148437500000e-01
0.000000000000000000e+00,6.000000000000000000e+00,9.000000000000000000e+00,8.000000000000000000e+00,6.000000000000000000e+00,4.000000000000000000e+00,0.000000000000000000e+00,-1.000000000000000000e+00,-6.793212890625000000e-02,4.506835937500000000e-01,-7.781982421875000000e-02,8.866577148437500000e-01
1.000000000000000000e+00,-5.000000000000000000e+00,-2.000000000000000000e+00,-1.100000000000000000e+01,-2.000000000000000000e+00,-3.000000000000000000e+00,-5.000000000000000000e+00,-3.000000000000000000e+00,-6.793212890625000000e-02,4.506835937500000000e-01,-7.781982421875000000e-02,8.866577148437500000e-01
-4.000000000000000000e+00,3.000000000000000000e+00,-2.000000000000000000e+00,7.000000000000000000e+00,3.000000000000000000e+00,1.000000000000000000e+00,-6.000000000000000000e+00,-3.000000000000000000e+00,-6.793212890625000000e-02,4.506835937500000000e-01,-7.781982421875000000e-02,8.866577148437500000e-01
1.000000000000000000e+00,-1.000000000000000000e+00,-6.000000000000000000e+00,-9.000000000000000000e+00,-1.900000000000000000e+01,-6.000000000000000000e+00,9.000000000000000000e+00,2.000000000000000000e+00,-6.890869140625000000e-02,4.503784179687500000e-01,-7.781982421875000000e-02,8.867187500000000000e-01
-2.000000000000000000e+00,-3.000000000000000000e+00,1.600000000000000000e+01,-2.000000000000000000e+00,0.000000000000000000e+00,-2.000000000000000000e+00,-1.000000000000000000e+00,1.000000000000000000e+01,-6.890869140625000000e-02,4.503784179687500000e-01,-7.781982421875000000e-02,8.867187500000000000e-01
-5.000000000000000000e+00,-1.000000000000000000e+00,-2.400000000000000000e+01,-2.000000000000000000e+00,1.000000000000000000e+00,2.000000000000000000e+00,2.000000000000000000e+00,0.000000000000000000e+00,-6.890869140625000000e-02,4.503784179687500000e-01,-7.781982421875000000e-02,8.867187500000000000e-01
6.000000000000000000e+00,1.000000000000000000e+00,8.000000000000000000e+00,9.000000000000000000e+00,7.000000000000000000e+00,5.000000000000000000e+00,0.000000000000000000e+00,0.000000000000000000e+00,-6.890869140625000000e-02,4.503784179687500000e-01,-7.781982421875000000e-02,8.867187500000000000e-01
-4.000000000000000000e+00,-2.000000000000000000e+00,-8.000000000000000000e+00,-9.000000000000000000e+00,-6.000000000000000000e+00,-3.000000000000000000e+00,-4.000000000000000000e+00,-8.000000000000000000e+00,-6.909179687500000000e-02,4.501953125000000000e-01,-7.824707031250000000e-02,8.867797851562500000e-01
-4.000000000000000000e+00,-1.000000000000000000e+01,-4.000000000000000000e+00,-1.100000000000000000e+01,-1.100000000000000000e+01,-5.000000000000000000e+00,-6.000000000000000000e+00,-8.000000000000000000e+00,-6.909179687500000000e-02,4.501953125000000000e-01,-7.824707031250000000e-02,8.867797851562500000e-01
-1.000000000000000000e+00,1.100000000000000000e+01,1.300000000000000000e+01,-2.500000000000000000e+01,-7.000000000000000000e+00,-3.000000000000000000e+00,-8.000000000000000000e+00,-3.000000000000000000e+00,-6.909179687500000000e-02,4.501953125000000000e-01,-7.824707031250000000e-02,8.867797851562500000e-01
-1.000000000000000000e+00,3.000000000000000000e+00,-1.000000000000000000e+00,3.200000000000000000e+01,1.500000000000000000e+01,3.000000000000000000e+00,8.000000000000000000e+00,3.000000000000000000e+00,-6.909179687500000000e-02,4.501953125000000000e-01,-7.824707031250000000e-02,8.867797851562500000e-01
-3.000000000000000000e+00,-7.000000000000000000e+00,-1.000000000000000000e+01,-1.000000000000000000e+01,2.000000000000000000e+00,-2.000000000000000000e+00,0.000000000000000000e+00,4.000000000000000000e+00,-6.872558593750000000e-02,4.503173828125000000e-01,-7.843017578125000000e-02,8.867187500000000000e-01
2.000000000000000000e+00,1.200000000000000000e+01,1.800000000000000000e+01,-4.000000000000000000e+00,-8.000000000000000000e+00,-5.000000000000000000e+00,-3.000000000000000000e+00,-2.000000000000000000e+00,-6.872558593750000000e-02,4.503173828125000000e-01,-7.843017578125000000e-02,8.867187500000000000e-01
-2.000000000000000000e+00,-1.500000000000000000e+01,-1.800000000000000000e+01,6.000000000000000000e+00,8.000000000000000000e+00,1.000000000000000000e+00,-1.000000000000000000e+00,1.000000000000000000e+00,-6.872558593750000000e-02,4.503173828125000000e-01,-7.843017578125000000e-02,8.867187500000000000e-01
1.000000000000000000e+00,1.200000000000000000e+01,1.000000000000000000e+01,-7.000000000000000000e+00,-5.000000000000000000e+00,-1.000000000000000000e+00,-7.000000000000000000e+00,-2.000000000000000000e+00,-6.872558593750000000e-02,4.503173828125000000e-01,-7.843017578125000000e-02,8.867187500000000000e-01
-4.000000000000000000e+00,1.000000000000000000e+00,-3.000000000000000000e+00,-6.000000000000000000e+00,-2.400000000000000000e+01,-8.000000000000000000e+00,-1.000000000000000000e+00,-1.000000000000000000e+00,-6.835937500000000000e-02,4.506835937500000000e-01,-7.794189453125000000e-02,8.865966796875000000e-01
0.000000000000000000e+00,-1.200000000000000000e+01,6.000000000000000000e+00,2.800000000000000000e+01,4.600000000000000000e+01,1.400000000000000000e+01,5.000000000000000000e+00,1.000000000000000000e+00,-6.835937500000000000e-02,4.506835937500000000e-01,-7.794189453125000000e-02,8.865966796875000000e-01
-3.000000000000000000e+00,-3.000000000000000000e+00,-9.000000000000000000e+00,-8.000000000000000000e+00,-1.100000000000000000e+01,-3.000000000000000000e+00,-1.000000000000000000e+00,-4.000000000000000000e+00,-6.835937500000000000e-02,4.506835937500000000e-01,-7.794189453125000000e-02,8.865966796875000000e-01
-2.000000000000000000e+00,-4.000000000000000000e+00,-3.000000000000000000e+00,1.700000000000000000e+01,6.000000000000000000e+00,0.000000000000000000e+00,5.000000000000000000e+00,0.000000000000000000e+00,-6.835937500000000000e-02,4.506835937500000000e-01,-7.794189453125000000e-02,8.865966796875000000e-01
-1.000000000000000000e+00,-8.000000000000000000e+00,-3.000000000000000000e+00,-9.000000000000000000e+00,1.000000000000000000e+00,-1.000000000000000000e+00,3.000000000000000000e+00,2.000000000000000000e+00,-6.793212890625000000e-02,4.511108398437500000e-01,-7.684326171875000000e-02,8.865356445312500000e-01
3.000000000000000000e+00,5.000000000000000000e+00,-5.000000000000000000e+00,-1.000000000000000000e+01,-2.300000000000000000e+01,-7.000000000000000000e+00,-5.000000000000000000e+00,-4.000000000000000000e+00,-6.793212890625000000e-02,4.511108398437500000e-01,-7.684326171875000000e-02,8.865356445312500000e-01
0.000000000000000000e+00,-1.000000000000000000e+00,8.000000000000000000e+00,1.200000000000000000e+01,7.000000000000000000e+00,1.000000000000000000e+00,-2.000000000000000000e+00,-4.000000000000000000e+00,-6.793212890625000000e-02,4.511108398437500000e-01,-7.684326171875000000e-02,8.865356445312500000e-01
-1.400000000000000000e+01,-4.000000000000000000e+00,-6.000000000000000000e+00,-1.000000000000000000e+01,1.000000000000000000e+00,2.000000000000000000e+00,-5.000000000000000000e+00,-3.000000000000000000e+00,-6.793212890625000000e-02,4.511108398437500000e-01,-7.684326171875000000e-02,8.865356445312500000e-01
1.500000000000000000e+01,6.000000000000000000e+00,3.000000000000000000e+00,-4.000000000000000000e+00,2.000000000000000000e+00,1.000000000000000000e+00,9.000000000000000000e+00,1.200000000000000000e+01,-6.719970703125000000e-02,4.516601562500000000e-01,-7.592773437500000000e-02,8.863525390625000000e-01
5.000000000000000000e+00,2.000000000000000000e+00,1.200000000000000000e+01,5.000000000000000000e+00,0.000000000000000000e+00,-1.000000000000000000e+00,2.000000000000000000e+00,-1.000000000000000000e+00,-6.719970703125000000e-02,4.516601562500000000e-01,-7.592773437500000000e-02,8.863525390625000000e-01
-1.000000000000000000e+00,-2.000000000000000000e+00,-3.000000000000000000e+00,0.000000000000000000e+00,-5.000000000000000000e+00,-3.000000000000000000e+00,-2.000000000000000000e+00,-2.000000000000000000e+00,-6.719970703125000000e-02,4.516601562500000000e-01,-7.592773437500000000e-02,8.863525390625000000e-01
0.000000000000000000e+00,-6.000000000000000000e+00,-1.000000000000000000e+01,-9.000000000000000000e+00,-7.000000000000000000e+00,-6.000000000000000000e+00,-1.000000000000000000e+00,2.000000000000000000e+00,-6.719970703125000000e-02,4.516601562500000000e-01,-7.592773437500000000e-02,8.863525390625000000e-01
-7.000000000000000000e+00,-9.000000000000000000e+00,-3.000000000000000000e+00,0.000000000000000000e+00,1.000000000000000000e+00,-2.000000000000000000e+00,-1.600000000000000000e+01,-1.000000000000000000e+01,-6.585693359375000000e-02,4.520874023437500000e-01,-7.525634765625000000e-02,8.862915039062500000e-01
-5.000000000000000000e+00,0.000000000000000000e+00,-7.000000000000000000e+00,-9.000000000000000000e+00,-6.000000000000000000e+00,-4.000000000000000000e+00,-2.000000000000000000e+00,-1.000000000000000000e+00,-6.585693359375000000e-02,4.520874023437500000e-01,-7.525634765625000000e-02,8.862915039062500000e-01
5.000000000000000000e+00,1.200000000000000000e+01,5.000000000000000000e+00,-6.000000000000000000e+00,-5.000000000000000000e+00,-1.000000000000000000e+00,7.000000000000000000e+00,4.000000000000000000e+00,-6.585693359375000000e-02,4.520874023437500000e-01,-7.525634765625000000e-02,8.862915039062500000e-01
-4.000000000000000000e+00,-1.900000000000000000e+01,8.000000000000000000e+00,3.000000000000000000e+00,-1.100000000000000000e+01,-4.000000000000000000e+00,1.000000000000000000e+00,-2.000000000000000000e+00,-6.585693359375000000e-02,4.520874023437500000e-01,-7.525634765625000000e-02,8.862915039062500000e-01
-3.000000000000000000e+00,1.400000000000000000e+01,-2.000000000000000000e+00,1.200000000000000000e+01,2.100000000000000000e+01,3.000000000000000000e+00,-1.000000000000000000e+00,-1.000000000000000000e+00,-6.414794921875000000e-02,4.526367187500000000e-01,-7.427978515625000000e-02,8.862304687500000000e-01
-1.000000000000000000e+00,-6.000000000000000000e+00,-7.000000000000000000e+00,-2.500000000000000000e+01,-8.000000000000000000e+00,-4.000000000000000000e+00,-1.000000000000000000e+00,-2.000000000000000000e+00,-6.414794921875000000e-02,4.526367187500000000e-01,-7.427978515625000000e-02,8.862304687500000000e-01
-6.000000000000000000e+00,-3.000000000000000000e+00,1.000000000000000000e+00,3.000000000000000000e+01,6.000000000000000000e+00,1.000000000000000000e+00,-4.000000000000000000e+00,-5.000000000000000000e+00,-6.414794921875000000e-02,4.526367187500000000e-01,-7.427978515625000000e-02,8.862304687500000000e-01
3.000000000000000000e+00,-1.000000000000000000e+00,-3.000000000000000000e+00,-1.500000000000000000e+01,-1.600000000000000000e+01,-2.000000000000000000e+00,2.000000000000000000e+00,1.000000000000000000e+00,-6.414794921875000000e-02,4.526367187500000000e-01,-7.427978515625000000e-02,8.862304687500000000e-01
-2.000000000000000000e+00,-5.000000000000000000e+00,-6.000000000000000000e+00,-5.000000000000000000e+00,-4.000000000000000000e+00,2.000000000000000000e+00,-5.000000000000000000e+00,-5.000000000000000000e+00,-6.280517578125000000e-02,4.531860351562500000e-01,-7.324218750000000000e-02,8.861083984375000000e-01
-4.000000000000000000e+00,2.000000000000000000e+00,8.000000000000000000e+00,-1.100000000000000000e+01,-2.000000000000000000e+00,-1.000000000000000000e+00,0.000000000000000000e+00,-1.000000000000000000e+00,-6.280517578125000000e-02,4.531860351562500000e-01,-7.324218750000000000e-02,8.861083984375000000e-01
3.000000000000000000e+00,5.000000000000000000e+00,-1.000000000000000000e+01,-5.000000000000000000e+00,-4.000000000000000000e+00,-1.000000000000000000e+00,2.000000000000000000e+00,2.000000000000000000e+00,-6.280517578125000000e-02,4.531860351562500000e-01,-7.324218750000000000e-02,8.861083984375000000e-01
-4.000000000000000000e+00,-9.000000000000000000e+00,7.000000000000000000e+00,3.000000000000000000e+00,5.000000000000000000e+00,1.000000000000000000e+00,-3.000000000000000000e+00,-3.000000000000000000e+00,-6.280517578125000000e-02,4.531860351562500000e-01,-7.324218750000000000e-02,8.861083984375000000e-01
-5.000000000000000000e+00,-7.000000000000000000e+00,-1.900000000000000000e+01,0.000000000000000000e+00,-1.000000000000000000e+00,-2.000000000000000000e+00,0.000000000000000000e+00,-2.000000000000000000e+00,-6.170654296875000000e-02,4.536132812500000000e-01,-7.214355468750000000e-02,8.861083984375000000e-01
-2.000000000000000000e+00,-8.000000000000000000e+00,-3.000000000000000000e+00,-1.100000000000000000e+01,-2.000000000000000000e+00,-1.000000000000000000e+00,-7.000000000000000000e+00,-7.000000000000000000e+00,-6.170654296875000000e-02,4.536132812500000000e-01,-7.214355468750000000e-02,8.861083984375000000e-01
-6.000000000000000000e+00,1.300000000000000000e+01,2.000000000000000000e+01,1.000000000000000000e+00,0.000000000000000000e+00,-1.000000000000000000e+00,0.000000000000000000e+00,0.000000000000000000e+00,-6.170654296875000000e-02,4.536132812500000000e-01,-7.214355468750000000e-02,8.861083984375000000e-01
2.800000000000000000e+01,7.000000000000000000e+00,-9.000000000000000000e+00,-1.000000000000000000e+00,6.000000000000000000e+00,2.000000000000000000e+00,6.000000000000000000e+00,1.200000000000000000e+01,-6.170654296875000000e-02,4.536132812500000000e-01,-7.214355468750000000e-02,8.861083984375000000e-01
-5.000000000000000000e+00,0.000000000000000000e+00,7.000000000000000000e+00,-3.000000000000000000e+00,0.000000000000000000e+00,-3.000000000000000000e+00,-2.000000000000000000e+00,-5.000000000000000000e+00,-6.072998046875000000e-02,4.537963867187500000e-01,-7.128906250000000000e-02,8.861694335937500000e-01
8.000000000000000000e+00,4.000000000000000000e+00,-6.000000000000000000e+00,1.000000000000000000e+01,0.000000000000000000e+00,0.000000000000000000e+00,-1.000000000000000000e+00,2.000000000000000000e+00,-6.072998046875000000e-02,4.537963867187500000e-01,-7.128906250000000000e-02,8.861694335937500000e-01
-1.700000000000000000e+01,-1.300000000000000000e+01,-1.000000000000000000e+00,-3.000000000000000000e+00,-4.000000000000000000e+00,-3.000000000000000000e+00,-4.000000000000000000e+00,-7.000000000000000000e+00,-6.072998046875000000e-02,4.537963867187500000e-01,-7.128906250000000000e-02,8.861694335937500000e-01
-5.000000000000000000e+00,2.000000000000000000e+00,-2.000000000000000000e+00,1.000000000000000000e+00,4.000000000000000000e+00,-2.000000000000000000e+00,-4.000000000000000000e+00,-4.000000000000000000e+00,-6.072998046875000000e-02,4.537963867187500000e-01,-7.128906250000000000e-02,8.861694335937500000e-01
-2.000000000000000000e+00,-2.000000000000000000e+00,-3.000000000000000000e+00,-1.400000000000000000e+01,-2.500000000000000000e+01,-6.000000000000000000e+00,0.000000000000000000e+00,-1.000000000000000000e+00,-5.944824218750000000e-02,4.539794921875000000e-01,-7.043457031250000000e-02,8.861694335937500000e-01
3.000000000000000000e+00,2.000000000000000000e+00,-2.000000000000000000e+00,8.000000000000000000e+00,1.300000000000000000e+01,3.000000000000000000e+00,1.000000000000000000e+00,1.000000000000000000e+00,-5.944824218750000000e-02,4.539794921875000000e-01,-7.043457031250000000e-02,8.861694335937500000e-01
5.000000000000000000e+00,0.000000000000000000e+00,1.100000000000000000e+01,-8.000000000000000000e+00,-1.000000000000000000e+01,-3.000000000000000000e+00,-2.000000000000000000e+00,2.000000000000000000e+00,-5.944824218750000000e-02,4.539794921875000000e-01,-7.043457031250000000e-02,8.861694335937500000e-01
-5.000000000000000000e+00,4.000000000000000000e+00,1.000000000000000000e+00,0.000000000000000000e+00,9.000000000000000000e+00,0.000000000000000000e+00,-1.000000000000000000e+00,-3.000000000000000000e+00,-5.944824218750000000e-02,4.539794921875000000e-01,-7.043457031250000000e-02,8.861694335937500000e-01
-2.000000000000000000e+00,-5.000000000000000000e+00,2.000000000000000000e+00,-2.100000000000000000e+01,-1.500000000000000000e+01,-4.000000000000000000e+00,-6.000000000000000000e+00,-3.000000000000000000e+00,-5.816650390625000000e-02,4.542846679687500000e-01,-6.933593750000000000e-02,8.862304687500000000e-01
-5.000000000000000000e+00,-2.300000000000000000e+01,-9.000000000000000000e+00,-1.000000000000000000e+00,-3.000000000000000000e+00,-2.000000000000000000e+00,7.000000000000000000e+00,2.000000000000000000e+00,-5.816650390625000000e-02,4.542846679687500000e-01,-6.933593750000000000e-02,8.862304687500000000e-01
4.000000000000000000e+00,2.200000000000000000e+01,-1.000000000000000000e+01,2.200000000000000000e+01,1.400000000000000000e+01,1.000000000000000000e+00,0.000000000000000000e+00,1.000000000000000000e+00,-5.816650390625000000e-02,4.542846679687500000e-01,-6.933593750000000000e-02,8.862304687500000000e-01
-4.000000000000000000e+00,-9.000000000000000000e+00,0.000000000000000000e+00,-4.000000000000000000e+00,-1.100000000000000000e+01,-2.000000000000000000e+00,-5.000000000000000000e+00,-3.000000000000000000e+00,-5.816650390625000000e-02,4.542846679687500000e-01,-6.933593750000000000e-02,8.862304687500000000e-01
-2.000000000000000000e+00,3.000000000000000000e+00,4.000000000000000000e+00,-1.100000000000000000e+01,2.000000000000000000e+00,1.000000000000000000e+00,-5.000000000000000000e+00,-5.000000000000000000e+00,-5.743408203125000000e-02,4.544677734375000000e-01,-6.811523437500000000e-02,8.862915039062500000e-01
-9.000000000000000000e+00,-5.000000000000000000e+00,-1.200000000000000000e+01,3.000000000000000000e+00,-4.000000000000000000e+00,-2.000000000000000000e+00,-3.000000000000000000e+00,-7.000000000000000000e+00,-5.743408203125000000e-02,4.544677734375000000e-01,-6.811523437500000000e-02,8.862915039062500000e-01
8.000000000000000000e+00,3.000000000000000000e+00,1.000000000000000000e+01,-9.000000000000000000e+00,-3.000000000000000000e+00,0.000000000000000000e+00,0.000000000000000000e+00,7.000000000000000000e+00,-5.743408203125000000e-02,4.544677734375000000e-01,-6.811523437500000000e-02,8.862915039062500000e-01
1.000000000000000000e+00,-8.000000000000000000e+00,-1.600000000000000000e+01,-4.000000000000000000e+00,-2.000000000000000000e+00,1.000000000000000000e+00,1.100000000000000000e+01,2.000000000000000000e+00,-5.743408203125000000e-02,4.544677734375000000e-01,-6.811523437500000000e-02,8.862915039062500000e-01
-1.400000000000000000e+01,-7.000000000000000000e+00,3.000000000000000000e+00,1.200000000000000000e+01,1.400000000000000000e+01,2.000000000000000000e+00,3.000000000000000000e+00,2.000000000000000000e+00,-5.682373046875000000e-02,4.545898437500000000e-01,-6.726074218750000000e-02,8.862915039062500000e-01
4.000000000000000000e+00,6.000000000000000000e+00,1.000000000000000000e+00,-1.000000000000000000e+00,-3.000000000000000000e+00,-2.000000000000000000e+00,-5.000000000000000000e+00,-1.000000000000000000e+00,-5.682373046875000000e-02,4.545898437500000000e-01,-6.726074218750000000e-02,8.862915039062500000e-01
-4.000000000000000000e+00,-9.000000000000000000e+00,-3.000000000000000000e+00,-6.000000000000000000e+00,-1.300000000000000000e+01,-7.000000000000000000e+00,-1.200000000000000000e+01,-1.100000000000000000e+01,-5.682373046875000000e-02,4.545898437500000000e-01,-6.726074218750000000e-02,8.862915039062500000e-01
-3.000000000000000000e+00,-1.000000000000000000e+00,-2.000000000000000000e+00,2.000000000000000000e+00,1.200000000000000000e+01,2.000000000000000000e+00,3.000000000000000000e+00,-1.000000000000000000e+00,-5.682373046875000000e-02,4.545898437500000000e-01,-6.726074218750000000e-02,8.862915039062500000e-01
1.000000000000000000e+01,-3.000000000000000000e+00,5.000000000000000000e+00,-4.000000000000000000e+00,-5.000000000000000000e+00,1.000000000000000000e+00,-3.000000000000000000e+00,4.000000000000000000e+00,-5.615234375000000000e-02,4.547119140625000000e-01,-6.665039062500000000e-02,8.863525390625000000e-01
-2.000000000000000000e+00,6.000000000000000000e+00,-9.000000000000000000e+00,8.000000000000000000e+00,5.000000000000000000e+00,1.000000000000000000e+00,1.000000000000000000e+00,0.000000000000000000e+00,-5.615234375000000000e-02,4.547119140625000000e-01,-6.665039062500000000e-02,8.863525390625000000e-01
