0.000000000000000000e+00,-6.000000000000000000e+00,-3.600000000000000000e+01,1.400000000000000000e+01,3.000000000000000000e+00,3.000000000000000000e+00,3.000000000000000000e+00,1.000000000000000000e+00,-3.637084960937500000e-01,3.716430664062500000e-01,4.191894531250000000e-01,7.442016601562500000e-01
0.000000000000000000e+00,-2.000000000000000000e+00,2.000000000000000000e+00,-1.200000000000000000e+01,-4.000000000000000000e+00,-1.000000000000000000e+00,-1.000000000000000000e+00,0.000000000000000000e+00,-3.637084960937500000e-01,3.716430664062500000e-01,4.191894531250000000e-01,7.442016601562500000e-01
-3.000000000000000000e+00,0.000000000000000000e+00,-8.000000000000000000e+00,-2.800000000000000000e+01,-5.000000000000000000e+00,-4.000000000000000000e+00,-5.000000000000000000e+00,-4.000000000000000000e+00,-3.637084960937500000e-01,3.716430664062500000e-01,4.191894531250000000e-01,7.442016601562500000e-01
-2.000000000000000000e+00,1.000000000000000000e+00,2.000000000000000000e+00,2.000000000000000000e+00,-1.000000000000000000e+00,0.000000000000000000e+00,1.000000000000000000e+00,1.000000000000000000e+00,-3.637084960937500000e-01,3.716430664062500000e-01,4.191894531250000000e-01,7.442016601562500000e-01
0.000000000000000000e+00,2.000000000000000000e+00,1.100000000000000000e+01,9.000000000000000000e+00,-2.000000000000000000e+00,-1.000000000000000000e+00,-3.000000000000000000e+00,-1.000000000000000000e+00,-3.647460937500000000e-01,3.701782226562500000e-01,4.194946289062500000e-01,7.442626953125000000e-01
-2.000000000000000000e+00,-4.000000000000000000e+00,-8.000000000000000000e+00,1.000000000000000000e+00,1.000000000000000000e+00,-1.000000000000000000e+00,-2.000000000000000000e+00,-2.000000000000000000e+00,-3.647460937500000000e-01,3.701782226562500000e-01,4.194946289062500000e-01,7.442626953125000000e-01
0.000000000000000000e+00,-2.000000000000000000e+00,-3.000000000000000000e+00,9.000000000000000000e+00,2.000000000000000000e+00,2.000000000000000000e+00,3.000000000000000000e+00,0.000000000000000000e+00,-3.647460937500000000e-01,3.701782226562500000e-01,4.194946289062500000e-01,7.442626953125000000e-01
0.000000000000000000e+00,-3.000000000000000000e+00,-2.000000000000000000e+00,0.000000000000000000e+00,0.000000000000000000e+00,-1.000000000000000000e+00,5.000000000000000000e+00,1.000000000000000000e+00,-3.647460937500000000e-01,3.701782226562500000e-01,4.194946289062500000e-01,7.442626953125000000e-01
-1.000000000000000000e+00,4.000000000000000000e+00,1.800000000000000000e+01,-1.000000000000000000e+01,-3.000000000000000000e+00,-2.000000000000000000e+00,-5.000000000000000000e+00,-2.000000000000000000e+00,-3.654174804687500000e-01,3.690185546875000000e-01,4.193725585937500000e-01,7.445068359375000000e-01
-3.000000000000000000e+00,-5.000000000000000000e+00,-2.400000000000000000e+01,-1.000000000000000000e+00,-2.000000000000000000e+00,-1.000000000000000000e+00,-2.000000000000000000e+00,-1.000000000000000000e+00,-3.654174804687500000e-01,3.690185546875000000e-01,4.193725585937500000e-01,7.445068359375000000e-01
-2.000000000000000000e+00,-4.000000000000000000e+00,0.000000000000000000e+00,6.000000000000000000e+00,-1.000000000000000000e+00,-6.000000000000000000e+00,-9.000000000000000000e+00,-4.000000000000000000e+00,-3.654174804687500000e-01,3.690185546875000000e-01,4.193725585937500000e-01,7.445068359375000000e-01
0.000000000000000000e+00,-1.000000000000000000e+00,5.000000000000000000e+00,3.800000000000000000e+01,7.000000000000000000e+00,1.300000000000000000e+01,1.100000000000000000e+01,1.000000000000000000e+00,-3.654174804687500000e-01,3.690185546875000000e-01,4.193725585937500000e-01,7.445068359375000000e-01
3.000000000000000000e+00,5.000000000000000000e+00,6.000000000000000000e+00,-5.800000000000000000e+01,-5.000000000000000000e+00,0.000000000000000000e+00,2.000000000000000000e+00,0.000000000000000000e+00,-3.655395507812500000e-01,3.683471679687500000e-01,4.191284179687500000e-01,7.449951171875000000e-01
-2.000000000000000000e+00,-3.000000000000000000e+00,1.400000000000000000e+01,-1.000000000000000000e+00,-3.000000000000000000e+00,0.000000000000000000e+00,0.000000000000000000e+00,-2.000000000000000000e+00,-3.655395507812500000e-01,3.683471679687500000e-01,4.191284179687500000e-01,7.449951171875000000e-01
-2.000000000000000000e+00,-2.000000000000000000e+00,-7.000000000000000000e+00,-6.000000000000000000e+00,-1.000000000000000000e+00,-2.000000000000000000e+00,-2.000000000000000000e+00,-3.000000000000000000e+00,-3.655395507812500000e-01,3.683471679687500000e-01,4.191284179687500000e-01,7.449951171875000000e-01
-1.000000000000000000e+00,-4.000000000000000000e+00,-1.000000000000000000e+01,1.200000000000000000e+01,6.000000000000000000e+00,-2.000000000000000000e+00,-3.000000000000000000e+00,-3.000000000000000000e+00,-3.655395507812500000e-01,3.683471679687500000e-01,4.191284179687500000e-01,7.449951171875000000e-01
-1.000000000000000000e+00,-1.000000000000000000e+00,9.000000000000000000e+00,1.000000000000000000e+01,-2.000000000000000000e+00,1.000000000000000000e+00,2.000000000000000000e+00,1.000000000000000000e+00,-3.656005859375000000e-01,3.679809570312500000e-01,4.190063476562500000e-01,7.451782226562500000e-01
1.000000000000000000e+00,5.000000000000000000e+00,5.000000000000000000e+00,-7.000000000000000000e+00,4.000000000000000000e+00,-2.000000000000000000e+00,-2.000000000000000000e+00,0.000000000000000000e+00,-3.656005859375000000e-01,3.679809570312500000e-01,4.190063476562500000e-01,7.451782226562500000e-01
0.000000000000000000e+00,1.000000000000000000e+00,1.000000000000000000e+01,-3.000000000000000000e+00,-4.000000000000000000e+00,-3.000000000000000000e+00,0.000000000000000000e+00,1.000000000000000000e+00,-3.656005859375000000e-01,3.679809570312500000e-01,4.190063476562500000e-01,7.451782226562500000e-01
-2.000000000000000000e+00,-5.000000000000000000e+00,-6.000000000000000000e+00,1.400000000000000000e+01,-2.000000000000000000e+00,-2.000000000000000000e+00,-3.000000000000000000e+00,-1.000000000000000000e+00,-3.656005859375000000e-01,3.679809570312500000e-01,4.190063476562500000e-01,7.451782226562500000e-01
-3.000000000000000000e+00,-4.000000000000000000e+00,-4.000000000000000000e+00,-4.000000000000000000e+00,-5.000000000000000000e+00,-2.000000000000000000e+00,-3.000000000000000000e+00,-4.000000000000000000e+00,-3.654174804687500000e-01,3.679199218750000000e-01,4.190063476562500000e-01,7.453002929687500000e-01
0.000000000000000000e+00,3.000000000000000000e+00,1.300000000000000000e+01,-2.500000000000000000e+01,-2.000000000000000000e+00,1.000000000000000000e+00,1.000000000000000000e+00,-1.000000000000000000e+00,-3.654174804687500000e-01,3.679199218750000000e-01,4.190063476562500000e-01,7.453002929687500000e-01
-1.000000000000000000e+00,-2.000000000000000000e+00,0.000000000000000000e+00,6.000000000000000000e+00,-2.000000000000000000e+00,-2.000000000000000000e+00,-1.000000000000000000e+00,-1.000000000000000000e+00,-3.654174804687500000e-01,3.679199218750000000e-01,4.190063476562500000e-01,7.453002929687500000e-01
0.000000000000000000e+00,3.000000000000000000e+00,2.000000000000000000e+00,-1.600000000000000000e+01,-5.000000000000000000e+00,-3.000000000000000000e+00,1.000000000000000000e+00,1.000000000000000000e+00,-3.654174804687500000e-01,3.679199218750000000e-01,4.190063476562500000e-01,7.453002929687500000e-01
-1.000000000000000000e+00,-3.000000000000000000e+00,-5.000000000000000000e+00,2.500000000000000000e+01,2.000000000000000000e+00,-2.000000000000000000e+00,0.000000000000000000e+00,-1.000000000000000000e+00,-3.654785156250000000e-01,3.674926757812500000e-01,4.190673828125000000e-01,7.454223632812500000e-01
-1.000000000000000000e+00,0.000000000000000000e+00,2.000000000000000000e+00,1.600000000000000000e+01,2.000000000000000000e+00,2.000000000000000000e+00,-3.000000000000000000e+00,-2.000000000000000000e+00,-3.654785156250000000e-01,3.674926757812500000e-01,4.190673828125000000e-01,7.454223632812500000e-01
-2.000000000000000000e+00,-3.000000000000000000e+00,-1.000000000000000000e+01,-1.300000000000000000e+01,-3.000000000000000000e+00,2.000000000000000000e+00,5.000000000000000000e+00,1.000000000000000000e+00,-3.654785156250000000e-01,3.674926757812500000e-01,4.190673828125000000e-01,7.454223632812500000e-01
-1.000000000000000000e+00,0.000000000000000000e+00,1.000000000000000000e+00,-1.900000000000000000e+01,-3.000000000000000000e+00,-3.000000000000000000e+00,-5.000000000000000000e+00,0.000000000000000000e+00,-3.654785156250000000e-01,3.674926757812500000e-01,4.190673828125000000e-01,7.454223632812500000e-01
0.000000000000000000e+00,-1.000000000000000000e+00,0.000000000000000000e+00,-4.000000000000000000e+00,-3.000000000000000000e+00,-3.000000000000000000e+00,-2.000000000000000000e+00,0.000000000000000000e+00,-3.654785156250000000e-01,3.674926757812500000e-01,4.190673828125000000e-01,7.454223632812500000e-01
0.000000000000000000e+00,-2.000000000000000000e+00,0.000000000000000000e+00,1.100000000000000000e+01,2.000000000000000000e+00,-1.000000000000000000e+00,-1.000000000000000000e+00,0.000000000000000000e+00,-3.654785156250000000e-01,3.674926757812500000e-01,4.190673828125000000e-01,7.454223632812500000e-01
1.000000000000000000e+00,2.000000000000000000e+00,1.500000000000000000e+01,1.000000000000000000e+00,1.000000000000000000e+00,2.000000000000000000e+00,-1.000000000000000000e+00,0.000000000000000000e+00,-3.654785156250000000e-01,3.674926757812500000e-01,4.190673828125000000e-01,7.454223632812500000e-01
-2.000000000000000000e+00,-6.000000000000000000e+00,-3.000000000000000000e+01,1.000000000000000000e+00,-3.000000000000000000e+00,-2.000000000000000000e+00,-5.000000000000000000e+00,-2.000000000000000000e+00,-3.654785156250000000e-01,3.674926757812500000e-01,4.190673828125000000e-01,7.454223632812500000e-01
-1.000000000000000000e+00,1.000000000000000000e+00,9.000000000000000000e+00,-1.100000000000000000e+01,1.000000000000000000e+00,-1.000000000000000000e+00,0.000000000000000000e+00,-1.000000000000000000e+00,-3.652954101562500000e-01,3.674926757812500000e-01,4.190673828125000000e-01,7.455444335937500000e-01
-2.000000000000000000e+00,-5.000000000000000000e+00,-3.400000000000000000e+01,-1.500000000000000000e+01,-7.000000000000000000e+00,-3.000000000000000000e+00,-2.000000000000000000e+00,-2.000000000000000000e+00,-3.652954101562500000e-01,3.674926757812500000e-01,4.190673828125000000e-01,7.455444335937500000e-01
-3.000000000000000000e+00,0.000000000000000000e+00,3.000000000000000000e+00,-7.000000000000000000e+00,0.000000000000000000e+00,0.000000000000000000e+00,-2.000000000000000000e+00,-1.000000000000000000e+00,-3.652954101562500000e-01,3.674926757812500000e-01,4.190673828125000000e-01,7.455444335937500000e-01
-2.000000000000000000e+00,2.000000000000000000e+00,7.000000000000000000e+00,-2.000000000000000000e+00,-3.000000000000000000e+00,1.000000000000000000e+00,1.000000000000000000e+00,0.000000000000000000e+00,-3.652954101562500000e-01,3.674926757812500000e-01,4.190673828125000000e-01,7.455444335937500000e-01
-1.000000000000000000e+00,-2.000000000000000000e+00,-4.000000000000000000e+00,2.000000000000000000e+00,-5.000000000000000000e+00,-5.000000000000000000e+00,-3.000000000000000000e+00,-2.000000000000000000e+00,-3.648681640625000000e-01,3.677978515625000000e-01,4.194335937500000000e-01,7.453613281250000000e-01
-1.000000000000000000e+00,0.000000000000000000e+00,-2.000000000000000000e+00,9.000000000000000000e+00,3.000000000000000000e+00,2.000000000000000000e+00,-1.000000000000000000e+00,0.000000000000000000e+00,-3.648681640625000000e-01,3.677978515625000000e-01,4.194335937500000000e-01,7.453613281250000000e-01
-2.000000000000000000e+00,-2.000000000000000000e+00,-1.000000000000000000e+01,1.000000000000000000e+00,3.000000000000000000e+00,-1.000000000000000000e+00,0.000000000000000000e+00,-1.000000000000000000e+00,-3.648681640625000000e-01,3.677978515625000000e-01,4.194335937500000000e-01,7.453613281250000000e-01
-1.000000000000000000e+00,3.000000000000000000e+00,2.300000000000000000e+01,2.500000000000000000e+01,1.000000000000000000e+00,-2.000000000000000000e+00,-5.000000000000000000e+00,-1.000000000000000000e+00,-3.648681640625000000e-01,3.677978515625000000e-01,4.194335937500000000e-01,7.453613281250000000e-01
-1.000000000000000000e+00,-5.000000000000000000e+00,-3.500000000000000000e+01,-3.600000000000000000e+01,-6.000000000000000000e+00,-2.000000000000000000e+00,2.000000000000000000e+00,-1.000000000000000000e+00,-3.651123046875000000e-01,3.677368164062500000e-01,4.202880859375000000e-01,7.448730468750000000e-01
-1.000000000000000000e+00,-6.000000000000000000e+00,6.000000000000000000e+00,2.000000000000000000e+01,2.000000000000000000e+00,0.000000000000000000e+00,2.000000000000000000e+00,0.000000000000000000e+00,-3.651123046875000000e-01,3.677368164062500000e-01,4.202880859375000000e-01,7.448730468750000000e-01
0.000000000000000000e+00,1.000000000000000000e+00,-7.000000000000000000e+00,-8.000000000000000000e+00,-6.000000000000000000e+00,2.000000000000000000e+00,1.000000000000000000e+00,0.000000000000000000e+00,-3.651123046875000000e-01,3.677368164062500000e-01,4.202880859375000000e-01,7.448730468750000000e-01
1.000000000000000000e+00,-2.000000000000000000e+00,1.300000000000000000e+01,-3.000000000000000000e+00,-2.000000000000000000e+00,0.000000000000000000e+00,-1.000000000000000000e+00,0.000000000000000000e+00,-3.651123046875000000e-01,3.677368164062500000e-01,4.202880859375000000e-01,7.448730468750000000e-01
0.000000000000000000e+00,3.000000000000000000e+00,1.100000000000000000e+01,1.500000000000000000e+01,4.000000000000000000e+00,1.000000000000000000e+00,0.000000000000000000e+00,0.000000000000000000e+00,-3.652343750000000000e-01,3.673706054687500000e-01,4.211425781250000000e-01,7.444458007812500000e-01
-1.000000000000000000e+00,-3.000000000000000000e+00,1.200000000000000000e+01,8.000000000000000000e+00,-5.000000000000000000e+00,-4.000000000000000000e+00,-5.000000000000000000e+00,-1.000000000000000000e+00,-3.652343750000000000e-01,3.673706054687500000e-01,4.211425781250000000e-01,7.444458007812500000e-01
-1.000000000000000000e+00,-3.000000000000000000e+00,-1.700000000000000000e+01,-1.800000000000000000e+01,0.000000000000000000e+00,-1.000000000000000000e+00,-2.000000000000000000e+00,0.000000000000000000e+00,-3.652343750000000000e-01,3.673706054687500000e-01,4.211425781250000000e-01,7.444458007812500000e-01
-1.000000000000000000e+00,-1.000000000000000000e+00,-3.000000000000000000e+00,-8.000000000000000000e+00,-3.000000000000000000e+00,-4.000000000000000000e+00,-1.000000000000000000e+00,-2.000000000000000000e+00,-3.652343750000000000e-01,3.673706054687500000e-01,4.211425781250000000e-01,7.444458007812500000e-01
-3.000000000000000000e+00,-3.000000000000000000e+00,6.000000000000000000e+00,1.500000000000000000e+01,2.000000000000000000e+00,-2.000000000000000000e+00,-3.000000000000000000e+00,-2.000000000000000000e+00,-3.651733398437500000e-01,3.671875000000000000e-01,4.218139648437500000e-01,7.442016601562500000e-01
-1.000000000000000000e+00,1.000000000000000000e+00,1.000000000000000000e+00,-1.000000000000000000e+01,0.000000000000000000e+00,8.000000000000000000e+00,1.000000000000000000e+01,0.000000000000000000e+00,-3.651733398437500000e-01,3.671875000000000000e-01,4.218139648437500000e-01,7.442016601562500000e-01
-1.000000000000000000e+00,5.000000000000000000e+00,3.200000000000000000e+01,2.400000000000000000e+01,2.000000000000000000e+00,-3.000000000000000000e+00,-1.000000000000000000e+00,-3.000000000000000000e+00,-3.651733398437500000e-01,3.671875000000000000e-01,4.218139648437500000e-01,7.442016601562500000e-01
-2.000000000000000000e+00,-6.000000000000000000e+00,-5.200000000000000000e+01,-3.000000000000000000e+01,-1.000000000000000000e+00,-1.000000000000000000e+00,-1.000000000000000000e+00,-1.000000000000000000e+00,-3.651733398437500000e-01,3.671875000000000000e-01,4.218139648437500000e-01,7.442016601562500000e-01
1.000000000000000000e+00,-3.000000000000000000e+00,-4.000000000000000000e+00,2.100000000000000000e+01,-2.000000000000000000e+00,-4.000000000000000000e+00,-3.000000000000000000e+00,-1.000000000000000000e+00,-3.646240234375000000e-01,3.673706054687500000e-01,4.222412109375000000e-01,7.441406250000000000e-01
1.000000000000000000e+00,2.000000000000000000e+00,-3.000000000000000000e+00,-3.700000000000000000e+01,0.000000000000000000e+00,-4.000000000000000000e+00,-4.000000000000000000e+00,0.000000000000000000e+00,-3.646240234375000000e-01,3.673706054687500000e-01,4.222412109375000000e-01,7.441406250000000000e-01
-3.000000000000000000e+00,-4.000000000000000000e+00,9.000000000000000000e+00,2.200000000000000000e+01,0.000000000000000000e+00,0.000000000000000000e+00,-2.000000000000000000e+00,-2.000000000000000000e+00,-3.641357421875000000e-01,3.674316406250000000e-01,4.227294921875000000e-01,7.440185546875000000e-01
2.000000000000000000e+00,5.000000000000000000e+00,4.100000000000000000e+01,1.000000000000000000e+01,-7.000000000000000000e+00,-7.000000000000000000e+00,-2.000000000000000000e+00,0.000000000000000000e+00,-3.641357421875000000e-01,3.674316406250000000e-01,4.227294921875000000e-01,7.440185546875000000e-01
-5.000000000000000000e+00,-5.000000000000000000e+00,-1.800000000000000000e+01,-3.000000000000000000e+01,-2.000000000000000000e+00,2.000000000000000000e+00,-3.000000000000000000e+00,-1.000000000000000000e+00,-3.641357421875000000e-01,3.674316406250000000e-01,4.227294921875000000e-01,7.440185546875000000e-01
0.000000000000000000e+00,0.000000000000000000e+00,0.000000000000000000e+00,1.000000000000000000e+00,2.000000000000000000e+00,1.000000000000000000e+00,-2.000000000000000000e+00,-1.000000000000000000e+00,-3.641357421875000000e-01,3.674316406250000000e-01,4.227294921875000000e-01,7.440185546875000000e-01
0.000000000000000000e+00,-3.000000000000000000e+00,-8.000000000000000000e+00,1.000000000000000000e+00,-1.000000000000000000e+00,-2.000000000000000000e+00,3.000000000000000000e+00,-2.000000000000000000e+00,-3.637084960937500000e-01,3.671875000000000000e-01,4.234619140625000000e-01,7.439575195312500000e-01
-1.000000000000000000e+00,2.000000000000000000e+00,2.500000000000000000e+01,4.400000000000000000e+01,7.000000000000000000e+00,-1.000000000000000000e+00,-1.000000000000000000e+00,0.000000000000000000e+00,-3.637084960937500000e-01,3.671875000000000000e-01,4.234619140625000000e-01,7.439575195312500000e-01
-3.000000000000000000e+00,1.000000000000000000e+00,-1.600000000000000000e+01,-2.900000000000000000e+01,-6.000000000000000000e+00,-1.000000000000000000e+00,1.000000000000000000e+00,1.000000000000000000e+00,-3.637084960937500000e-01,3.671875000000000000e-01,4.234619140625000000e-01,7.439575195312500000e-01
-1.000000000000000000e+00,-4.000000000000000000e+00,-1.300000000000000000e+01,0.000000000000000000e+00,-4.000000000000000000e+00,-3.000000000000000000e+00,-2.000000000000000000e+00,-1.000000000000000000e+00,-3.637084960937500000e-01,3.671875000000000000e-01,4.234619140625000000e-01,7.439575195312500000e-01
0.000000000000000000e+00,-3.000000000000000000e+00,-1.300000000000000000e+01,-9.000000000000000000e+00,0.000000000000000000e+00,-1.000000000000000000e+00,1.000000000000000000e+00,-2.000000000000000000e+00,-3.634643554687500000e-01,3.669433593750000000e-01,4.240722656250000000e-01,7.438354492187500000e-01
0.000000000000000000e+00,-1.000000000000000000e+00,1.300000000000000000e+01,8.000000000000000000e+00,0.000000000000000000e+00,2.000000000000000000e+00,-2.000000000000000000e+00,0.000000000000000000e+00,-3.634643554687500000e-01,3.669433593750000000e-01,4.240722656250000000e-01,7.438354492187500000e-01
0.000000000000000000e+00,-2.000000000000000000e+00,0.000000000000000000e+00,-2.000000000000000000e+00,-5.000000000000000000e+00,-6.000000000000000000e+00,-2.000000000000000000e+00,0.000000000000000000e+00,-3.634643554687500000e-01,3.669433593750000000e-01,4.240722656250000000e-01,7.438354492187500000e-01
-1.000000000000000000e+00,2.000000000000000000e+00,3.000000000000000000e+00,2.100000000000000000e+01,7.000000000000000000e+00,3.000000000000000000e+00,1.000000000000000000e+00,-1.000000000000000000e+00,-3.634643554687500000e-01,3.669433593750000000e-01,4.240722656250000000e-01,7.438354492187500000e-01
0.000000000000000000e+00,-1.000000000000000000e+00,-3.000000000000000000e+00,-9.000000000000000000e+00,-8.000000000000000000e+00,-7.000000000000000000e+00,-8.000000000000000000e+00,-1.000000000000000000e+00,-3.633422851562500000e-01,3.668823242187500000e-01,4.244384765625000000e-01,7.437744140625000000e-01
0.000000000000000000e+00,0.000000000000000000e+00,-4.000000000000000000e+00,-2.200000000000000000e+01,0.000000000000000000e+00,1.200000000000000000e+01,1.200000000000000000e+01,0.000000000000000000e+00,-3.633422851562500000e-01,3.668823242187500000e-01,4.244384765625000000e-01,7.437744140625000000e-01
-2.000000000000000000e+00,-3.000000000000000000e+00,4.000000000000000000e+00,2.100000000000000000e+01,1.000000000000000000e+00,-3.000000000000000000e+00,-2.000000000000000000e+00,-2.000000000000000000e+00,-3.633422851562500000e-01,3.668823242187500000e-01,4.244384765625000000e-01,7.437744140625000000e-01
0.000000000000000000e+00,3.000000000000000000e+00,2.000000000000000000e+00,-7.000000000000000000e+00,-1.000000000000000000e+00,-3.000000000000000000e+00,-2.000000000000000000e+00,-1.000000000000000000e+00,-3.633422851562500000e-01,3.668823242187500000e-01,4.244384765625000000e-01,7.437744140625000000e-01
-3.000000000000000000e+00,-2.000000000000000000e+00,-7.000000000000000000e+00,0.000000000000000000e+00,-1.000000000000000000e+00,-3.000000000000000000e+00,-2.000000000000000000e+00,-1.000000000000000000e+00,-3.632812500000000000e-01,3.668212890625000000e-01,4.244384765625000000e-01,7.438354492187500000e-01
-1.000000000000000000e+00,0.000000000000000000e+00,0.000000000000000000e+00,-2.000000000000000000e+01,-7.000000000000000000e+00,-6.000000000000000000e+00,-3.000000000000000000e+00,-3.000000000000000000e+00,-3.632812500000000000e-01,3.668212890625000000e-01,4.244384765625000000e-01,7.438354492187500000e-01
1.000000000000000000e+00,0.000000000000000000e+00,9.000000000000000000e+00,1.100000000000000000e+01,6.000000000000000000e+00,3.000000000000000000e+00,-1.000000000000000000e+00,-1.000000000000000000e+00,-3.632812500000000000e-01,3.668212890625000000e-01,4.244384765625000000e-01,7.438354492187500000e-01
-2.000000000000000000e+00,-1.000000000000000000e+00,-1.000000000000000000e+00,-8.000000000000000000e+00,-6.000000000000000000e+00,-4.000000000000000000e+00,1.000000000000000000e+00,0.000000000000000000e+00,-3.632812500000000000e-01,3.668212890625000000e-01,4.244384765625000000e-01,7.438354492187500000e-01
0.000000000000000000e+00,-1.000000000000000000e+00,1.000000000000000000e+00,9.000000000000000000e+00,0.000000000000000000e+00,1.000000000000000000e+00,-1.000000000000000000e+00,-1.000000000000000000e+00,-3.629760742187500000e-01,3.670654296875000000e-01,4.243164062500000000e-01,7.438964843750000000e-01
-1.000000000000000000e+00,-2.000000000000000000e+00,-3.000000000000000000e+01,-1.200000000000000000e+01,2.000000000000000000e+00,-2.000000000000000000e+00,-2.000000000000000000e+00,-3.000000000000000000e+00,-3.629760742187500000e-01,3.670654296875000000e-01,4.243164062500000000e-01,7.438964843750000000e-01
-1.000000000000000000e+00,-1.000000000000000000e+00,8.000000000000000000e+00,2.600000000000000000e+01,-1.000000000000000000e+00,0.000000000000000000e+00,-2.000000000000000000e+00,-2.000000000000000000e+00,-3.629760742187500000e-01,3.670654296875000000e-01,4.243164062500000000e-01,7.438964843750000000e-01
-3.000000000000000000e+00,-1.000000000000000000e+00,-5.000000000000000000e+00,-4.000000000000000000e+01,-7.000000000000000000e+00,-4.000000000000000000e+00,-2.000000000000000000e+00,-2.000000000000000000e+00,-3.629760742187500000e-01,3.670654296875000000e-01,4.243164062500000000e-01,7.438964843750000000e-01
1.000000000000000000e+00,2.000000000000000000e+00,-2.000000000000000000e+00,9.000000000000000000e+00,4.000000000000000000e+00,4.000000000000000000e+00,3.000000000000000000e+00,2.000000000000000000e+00,-3.631591796875000000e-01,3.672485351562500000e-01,4.242553710937500000e-01,7.437744140625000000e-01
-2.000000000000000000e+00,-1.000000000000000000e+00,8.000000000000000000e+00,1.800000000000000000e+01,1.000000000000000000e+00,-1.000000000000000000e+00,-1.000000000000000000e+00,-2.000000000000000000e+00,-3.631591796875000000e-01,3.672485351562500000e-01,4.242553710937500000e-01,7.437744140625000000e-01
2.000000000000000000e+00,2.000000000000000000e+00,0.000000000000000000e+00,-1.600000000000000000e+01,2.000000000000000000e+00,-1.000000000000000000e+00,1.000000000000000000e+00,-1.000000000000000000e+00,-3.631591796875000000e-01,3.672485351562500000e-01,4.242553710937500000e-01,7.437744140625000000e-01
1.000000000000000000e+00,-2.000000000000000000e+00,6.000000000000000000e+00,1.200000000000000000e+01,-2.000000000000000000e+00,-3.000000000000000000e+00,-2.000000000000000000e+00,-3.000000000000000000e+00,-3.631591796875000000e-01,3.672485351562500000e-01,4.242553710937500000e-01,7.437744140625000000e-01
-1.000000000000000000e+00,0.000000000000000000e+00,-1.600000000000000000e+01,-1.600000000000000000e+01,0.000000000000000000e+00,-1.000000000000000000e+00,3.000000000000000000e+00,0.000000000000000000e+00,-3.634643554687500000e-01,3.671264648437500000e-01,4.242553710937500000e-01,7.436523437500000000e-01
-2.000000000000000000e+00,-2.000000000000000000e+00,-2.000000000000000000e+00,1.200000000000000000e+01,2.000000000000000000e+00,-5.000000000000000000e+00,-4.000000000000000000e+00,-2.000000000000000000e+00,-3.634643554687500000e-01,3.671264648437500000e-01,4.242553710937500000e-01,7.436523437500000000e-01
2.000000000000000000e+00,4.000000000000000000e+00,1.400000000000000000e+01,2.000000000000000000e+00,-1.000000000000000000e+00,4.000000000000000000e+00,5.000000000000000000e+00,2.000000000000000000e+00,-3.634643554687500000e-01,3.671264648437500000e-01,4.242553710937500000e-01,7.436523437500000000e-01
0.000000000000000000e+00,0.000000000000000000e+00,-2.000000000000000000e+00,1.400000000000000000e+01,1.000000000000000000e+00,-2.000000000000000000e+00,-3.000000000000000000e+00,-1.000000000000000000e+00,-3.634643554687500000e-01,3.671264648437500000e-01,4.242553710937500000e-01,7.436523437500000000e-01
0.000000000000000000e+00,-1.000000000000000000e+00,-5.000000000000000000e+00,-1.700000000000000000e+01,-5.000000000000000000e+00,0.000000000000000000e+00,-2.000000000000000000e+00,-2.000000000000000000e+00,-3.638916015625000000e-01,3.671264648437500000e-01,4.241333007812500000e-01,7.435302734375000000e-01
-1.000000000000000000e+00,-3.000000000000000000e+00,0.000000000000000000e+00,0.000000000000000000e+00,1.000000000000000000e+00,0.000000000000000000e+00,0.000000000000000000e+00,1.000000000000000000e+00,-3.638916015625000000e-01,3.671264648437500000e-01,4.241333007812500000e-01,7.435302734375000000e-01
-1.000000000000000000e+00,-3.000000000000000000e+00,-1.100000000000000000e+01,0.000000000000000000e+00,0.000000000000000000e+00,0.000000000000000000e+00,-3.000000000000000000e+00,-3.000000000000000000e+00,-3.638916015625000000e-01,3.671264648437500000e-01,4.241333007812500000e-01,7.435302734375000000e-01
0.000000000000000000e+00,0.000000000000000000e+00,9.000000000000000000e+00,-7.000000000000000000e+00,0.000000000000000000e+00,1.000000000000000000e+00,-1.000000000000000000e+00,-3.000000000000000000e+00,-3.638916015625000000e-01,3.671264648437500000e-01,4.241333007812500000e-01,7.435302734375000000e-01
0.000000000000000000e+00,-2.000000000000000000e+00,1.700000000000000000e+01,2.200000000000000000e+01,6.000000000000000000e+00,-1.000000000000000000e+00,-4.000000000000000000e+00,0.000000000000000000e+00,-3.640136718750000000e-01,3.673706054687500000e-01,4.239501953125000000e-01,7.434692382812500000e-01
-3.000000000000000000e+00,-2.000000000000000000e+00,-2.800000000000000000e+01,-1.400000000000000000e+01,-1.200000000000000000e+01,-6.000000000000000000e+00,-6.000000000000000000e+00,-2.000000000000000000e+00,-3.640136718750000000e-01,3.673706054687500000e-01,4.239501953125000000e-01,7.434692382812500000e-01
-2.000000000000000000e+00,-5.000000000000000000e+00,-3.100000000000000000e+01,-5.700000000000000000e+01,-1.100000000000000000e+01,0.000000000000000000e+00,-1.000000000000000000e+00,-2.000000000000000000e+00,-3.640136718750000000e-01,3.673706054687500000e-01,4.239501953125000000e-01,7.434692382812500000e-01
-1.000000000000000000e+00,1.000000000000000000e+00,1.000000000000000000e+01,9.000000000000000000e+00,0.000000000000000000e+00,-1.000000000000000000e+00,2.000000000000000000e+00,-1.000000000000000000e+00,-3.640136718750000000e-01,3.673706054687500000e-01,4.239501953125000000e-01,7.434692382812500000e-01
-2.000000000000000000e+00,-4.000000000000000000e+00,-4.000000000000000000e+00,7.000000000000000000e+00,1.000000000000000000e+00,-1.000000000000000000e+00,0.000000000000000000e+00,-1.000000000000000000e+00,-3.643798828125000000e-01,3.674926757812500000e-01,4.238281250000000000e-01,7.432861328125000000e-01
1.000000000000000000e+00,2.000000000000000000e+00,1.200000000000000000e+01,-4.000000000000000000e+00,-2.000000000000000000e+00,-1.000000000000000000e+00,-1.000000000000000000e+00,-2.000000000000000000e+00,-3.643798828125000000e-01,3.674926757812500000e-01,4.238281250000000000e-01,7.432861328125000000e-01
-1.000000000000000000e+00,-1.000000000000000000e+00,2.000000000000000000e+00,1.500000000000000000e+01,3.000000000000000000e+00,1.000000000000000000e+00,-1.000000000000000000e+00,-1.000000000000000000e+00,-3.643798828125000000e-01,3.674926757812500000e-01,4.238281250000000000e-01,7.432861328125000000e-01
-2.000000000000000000e+00,-2.000000000000000000e+00,-1.000000000000000000e+01,3.000000000000000000e+00,1.000000000000000000e+00,2.000000000000000000e+00,-1.000000000000000000e+00,-2.000000000000000000e+00,-3.643798828125000000e-01,3.674926757812500000e-01,4.238281250000000000e-01,7.432861328125000000e-01
3.000000000000000000e+00,5.000000000000000000e+00,5.000000000000000000e+00,6.000000000000000000e+00,0.000000000000000000e+00,1.000000000000000000e+00,1.000000000000000000e+00,1.000000000000000000e+00,-3.643188476562500000e-01,3.675537109375000000e-01,4.238281250000000000e-01,7.432861328125000000e-01
1.000000000000000000e+00,5.000000000000000000e+00,4.200000000000000000e+01,1.000000000000000000e+01,7.000000000000000000e+00,2.000000000000000000e+00,-1.000000000000000000e+00,1.000000000000000000e+00,-3.643188476562500000e-01,3.675537109375000000e-01,4.238281250000000000e-01,7.432861328125000000e-01
-4.000000000000000000e+00,-8.000000000000000000e+00,-1.000000000000000000e+01,-1.300000000000000000e+01,-1.100000000000000000e+01,-7.000000000000000000e+00,-3.000000000000000000e+00,-6.000000000000000000e+00,-3.643188476562500000e-01,3.675537109375000000e-01,4.238281250000000000e-01,7.432861328125000000e-01
1.000000000000000000e+00,0.000000000000000000e+00,3.000000000000000000e+00,4.000000000000000000e+00,-2.000000000000000000e+00,-3.000000000000000000e+00,0.000000000000000000e+00,0.000000000000000000e+00,-3.643188476562500000e-01,3.675537109375000000e-01,4.238281250000000000e-01,7.432861328125000000e-01
-4.000000000000000000e+00,-3.000000000000000000e+00,-8.000000000000000000e+00,-1.000000000000000000e+01,-4.000000000000000000e+00,1.000000000000000000e+00,-1.000000000000000000e+00,0.000000000000000000e+00,-3.643188476562500000e-01,3.675537109375000000e-01,4.238281250000000000e-01,7.432861328125000000e-01
2.000000000000000000e+00,0.000000000000000000e+00,1.000000000000000000e+00,1.000000000000000000e+01,2.000000000000000000e+00,-1.000000000000000000e+00,-2.000000000000000000e+00,0.000000000000000000e+00,-3.643188476562500000e-01,3.675537109375000000e-01,4.238281250000000000e-01,7.432861328125000000e-01
0.000000000000000000e+00,3.000000000000000000e+00,1.800000000000000000e+01,2.200000000000000000e+01,1.000000000000000000e+01,4.000000000000000000e+00,3.000000000000000000e+00,2.000000000000000000e+00,-3.643188476562500000e-01,3.675537109375000000e-01,4.238281250000000000e-01,7.432861328125000000e-01
-3.000000000000000000e+00,-4.000000000000000000e+00,-2.000000000000000000e+00,-1.300000000000000000e+01,-4.000000000000000000e+00,-2.000000000000000000e+00,-3.000000000000000000e+00,-1.000000000000000000e+00,-3.643188476562500000e-01,3.675537109375000000e-01,4.238281250000000000e-01,7.432861328125000000e-01
1.000000000000000000e+00,-3.000000000000000000e+00,-1.000000000000000000e+01,7.000000000000000000e+00,3.000000000000000000e+00,2.000000000000000000e+00,-3.000000000000000000e+00,-3.000000000000000000e+00,-3.643188476562500000e-01,3.674926757812500000e-01,4.238281250000000000e-01,7.432861328125000000e-01
1.000000000000000000e+00,2.000000000000000000e+00,2.000000000000000000e+00,2.500000000000000000e+01,-1.000000000000000000e+00,-6.000000000000000000e+00,-1.000000000000000000e+00,0.000000000000000000e+00,-3.643188476562500000e-01,3.674926757812500000e-01,4.238281250000000000e-01,7.432861328125000000e-01
-1.000000000000000000e+00,1.000000000000000000e+00,2.000000000000000000e+01,-1.000000000000000000e+01,-4.000000000000000000e+00,-2.000000000000000000e+00,-3.000000000000000000e+00,-2.000000000000000000e+00,-3.643188476562500000e-01,3.674926757812500000e-01,4.238281250000000000e-01,7.432861328125000000e-01
-2.000000000000000000e+00,-5.000000000000000000e+00,-1.200000000000000000e+01,-1.000000000000000000e+01,-6.000000000000000000e+00,-2.000000000000000000e+00,-1.000000000000000000e+00,-2.000000000000000000e+00,-3.643188476562500000e-01,3.674926757812500000e-01,4.238281250000000000e-01,7.432861328125000000e-01
-4.000000000000000000e+00,-2.000000000000000000e+00,-9.000000000000000000e+00,-1.000000000000000000e+00,-1.000000000000000000e+00,-3.000000000000000000e+00,0.000000000000000000e+00,-2.000000000000000000e+00,-3.643188476562500000e-01,3.674926757812500000e-01,4.238281250000000000e-01,7.433471679687500000e-01
0.000000000000000000e+00,-1.000000000000000000e+00,-5.000000000000000000e+00,-1.000000000000000000e+01,1.000000000000000000e+00,3.000000000000000000e+00,2.000000000000000000e+00,-2.000000000000000000e+00,-3.643188476562500000e-01,3.674926757812500000e-01,4.238281250000000000e-01,7.433471679687500000e-01
-1.000000000000000000e+00,0.000000000000000000e+00,-3.000000000000000000e+00,1.200000000000000000e+01,2.000000000000000000e+00,0.000000000000000000e+00,-1.000000000000000000e+00,1.000000000000000000e+00,-3.643188476562500000e-01,3.674926757812500000e-01,4.238281250000000000e-01,7.433471679687500000e-01
0.000000000000000000e+00,2.000000000000000000e+00,9.000000000000000000e+00,1.200000000000000000e+01,2.000000000000000000e+00,2.000000000000000000e+00,0.000000000000000000e+00,-1.000000000000000000e+00,-3.643188476562500000e-01,3.674926757812500000e-01,4.238281250000000000e-01,7.433471679687500000e-01
-1.000000000000000000e+00,-1.000000000000000000e+00,4.000000000000000000e+00,-6.000000000000000000e+00,-2.000000000000000000e+00,-2.000000000000000000e+00,-2.000000000000000000e+00,-1.000000000000000000e+00,-3.640747070312500000e-01,3.674926757812500000e-01,4.238891601562500000e-01,7.434082031250000000e-01
-1.000000000000000000e+00,-8.000000000000000000e+00,-1.300000000000000000e+01,9.000000000000000000e+00,4.000000000000000000e+00,5.000000000000000000e+00,3.000000000000000000e+00,0.000000000000000000e+00,-3.640747070312500000e-01,3.674926757812500000e-01,4.238891601562500000e-01,7.434082031250000000e-01
-1.000000000000000000e+00,7.000000000000000000e+00,5.000000000000000000e+00,-9.000000000000000000e+00,-5.000000000000000000e+00,-5.000000000000000000e+00,-4.000000000000000000e+00,-3.000000000000000000e+00,-3.640747070312500000e-01,3.674926757812500000e-01,4.238891601562500000e-01,7.434082031250000000e-01
-3.000000000000000000e+00,-8.000000000000000000e+00,-2.100000000000000000e+01,-2.200000000000000000e+01,-8.000000000000000000e+00,-6.000000000000000000e+00,-4.000000000000000000e+00,-2.000000000000000000e+00,-3.640747070312500000e-01,3.674926757812500000e-01,4.238891601562500000e-01,7.434082031250000000e-01
-2.000000000000000000e+00,-1.000000000000000000e+00,8.000000000000000000e+00,-5.000000000000000000e+00,-6.000000000000000000e+00,-2.000000000000000000e+00,0.000000000000000000e+00,-1.000000000000000000e+00,-3.641357421875000000e-01,3.674926757812500000e-01,4.241333007812500000e-01,7.432250976562500000e-01
-1.000000000000000000e+00,-2.000000000000000000e+00,-1.900000000000000000e+01,-9.000000000000000000e+00,-3.000000000000000000e+00,0.000000000000000000e+00,0.000000000000000000e+00,-3.000000000000000000e+00,-3.641357421875000000e-01,3.674926757812500000e-01,4.241333007812500000e-01,7.432250976562500000e-01
1.000000000000000000e+00,-2.000000000000000000e+00,5.000000000000000000e+00,2.400000000000000000e+01,7.000000000000000000e+00,3.000000000000000000e+00,0.000000000000000000e+00,1.000000000000000000e+00,-3.641357421875000000e-01,3.674926757812500000e-01,4.241333007812500000e-01,7.432250976562500000e-01
2.000000000000000000e+00,3.000000000000000000e+00,1.000000000000000000e+01,9.000000000000000000e+00,5.000000000000000000e+00,-1.000000000000000000e+00,-1.000000000000000000e+00,1.000000000000000000e+00,-3.641357421875000000e-01,3.674926757812500000e-01,4.241333007812500000e-01,7.432250976562500000e-01
0.000000000000000000e+00,-2.000000000000000000e+00,-5.000000000000000000e+00,-1.100000000000000000e+01,-4.000000000000000000e+00,2.000000000000000000e+00,2.000000000000000000e+00,-2.000000000000000000e+00,-3.639526367187500000e-01,3.673706054687500000e-01,4.243774414062500000e-01,7.432250976562500000e-01
-2.000000000000000000e+00,0.000000000000000000e+00,2.000000000000000000e+00,1.200000000000000000e+01,2.000000000000000000e+00,-2.000000000000000000e+00,-2.000000000000000000e+00,-2.000000000000000000e+00,-3.639526367187500000e-01,3.673706054687500000e-01,4.243774414062500000e-01,7.432250976562500000e-01
1.000000000000000000e+00,1.000000000000000000e+00,1.800000000000000000e+01,-5.000000000000000000e+00,-4.000000000000000000e+00,-3.000000000000000000e+00,-4.000000000000000000e+00,-1.000000000000000000e+00,-3.639526367187500000e-01,3.673706054687500000e-01,4.243774414062500000e-01,7.432250976562500000e-01
-2.000000000000000000e+00,-3.000000000000000000e+00,-3.500000000000000000e+01,-3.000000000000000000e+01,-4.000000000000000000e+00,-3.000000000000000000e+00,-1.000000000000000000e+00,-1.000000000000000000e+00,-3.639526367187500000e-01,3.673706054687500000e-01,4.243774414062500000e-01,7.432250976562500000e-01
-2.000000000000000000e+00,-5.000000000000000000e+00,-1.000000000000000000e+00,-3.000000000000000000e+00,-1.000000000000000000e+00,-2.000000000000000000e+00,0.000000000000000000e+00,-1.000000000000000000e+00,-3.638916015625000000e-01,3.670043945312500000e-01,4.243774414062500000e-01,7.434082031250000000e-01
0.000000000000000000e+00,0.000000000000000000e+00,1.000000000000000000e+00,-3.000000000000000000e+00,-2.000000000000000000e+00,0.000000000000000000e+00,-1.000000000000000000e+00,-1.000000000000000000e+00,-3.638916015625000000e-01,3.670043945312500000e-01,4.243774414062500000e-01,7.434082031250000000e-01
-1.000000000000000000e+00,-2.000000000000000000e+00,-1.000000000000000000e+00,1.000000000000000000e+00,-1.000000000000000000e+00,-1.100000000000000000e+01,-3.000000000000000000e+00,0.000000000000000000e+00,-3.638916015625000000e-01,3.670043945312500000e-01,4.243774414062500000e-01,7.434082031250000000e-01
1.000000000000000000e+00,0.000000000000000000e+00,1.200000000000000000e+01,1.500000000000000000e+01,2.000000000000000000e+00,7.000000000000000000e+00,1.000000000000000000e+00,0.000000000000000000e+00,-3.638916015625000000e-01,3.670043945312500000e-01,4.243774414062500000e-01,7.434082031250000000e-01
0.000000000000000000e+00,0.000000000000000000e+00,-1.600000000000000000e+01,6.000000000000000000e+00,3.000000000000000000e+00,1.000000000000000000e+00,3.000000000000000000e+00,-1.000000000000000000e+00,-3.636474609375000000e-01,3.670043945312500000e-01,4.242553710937500000e-01,7.436523437500000000e-01
-2.000000000000000000e+00,1.000000000000000000e+00,6.000000000000000000e+00,-2.400000000000000000e+01,-6.000000000000000000e+00,-2.000000000000000000e+00,-3.000000000000000000e+00,-1.000000000000000000e+00,-3.636474609375000000e-01,3.670043945312500000e-01,4.242553710937500000e-01,7.436523437500000000e-01
1.000000000000000000e+00,-1.000000000000000000e+00,-1.100000000000000000e+01,1.800000000000000000e+01,2.000000000000000000e+00,4.000000000000000000e+00,3.000000000000000000e+00,-1.000000000000000000e+00,-3.636474609375000000e-01,3.670043945312500000e-01,4.242553710937500000e-01,7.436523437500000000e-01
0.000000000000000000e+00,-1.000000000000000000e+00,1.400000000000000000e+01,-1.000000000000000000e+00,-2.000000000000000000e+00,-5.000000000000000000e+00,-4.000000000000000000e+00,0.000000000000000000e+00,-3.636474609375000000e-01,3.670043945312500000e-01,4.242553710937500000e-01,7.436523437500000000e-01
1.000000000000000000e+00,0.000000000000000000e+00,5.000000000000000000e+00,3.000000000000000000e+00,1.000000000000000000e+00,-1.000000000000000000e+00,-1.000000000000000000e+00,-1.000000000000000000e+00,-3.635864257812500000e-01,3.670043945312500000e-01,4.242553710937500000e-01,7.436523437500000000e-01
-1.000000000000000000e+00,1.000000000000000000e+00,-1.000000000000000000e+00,-2.000000000000000000e+01,-5.000000000000000000e+00,-1.000000000000000000e+00,1.000000000000000000e+00,0.000000000000000000e+00,-3.635864257812500000e-01,3.670043945312500000e-01,4.242553710937500000e-01,7.436523437500000000e-01
-1.000000000000000000e+00,-1.000000000000000000e+00,-1.000000000000000000e+01,1.500000000000000000e+01,4.000000000000000000e+00,0.000000000000000000e+00,1.000000000000000000e+00,1.000000000000000000e+00,-3.635864257812500000e-01,3.670043945312500000e-01,4.242553710937500000e-01,7.436523437500000000e-01
-2.000000000000000000e+00,3.000000000000000000e+00,-5.000000000000000000e+00,4.000000000000000000e+00,-2.000000000000000000e+00,-3.000000000000000000e+00,-1.000000000000000000e+00,-3.000000000000000000e+00,-3.635864257812500000e-01,3.670043945312500000e-01,4.242553710937500000e-01,7.436523437500000000e-01
-4.000000000000000000e+00,-4.000000000000000000e+00,-5.000000000000000000e+00,-1.000000000000000000e+01,-2.000000000000000000e+00,0.000000000000000000e+00,0.000000000000000000e+00,-1.000000000000000000e+00,-3.638305664062500000e-01,3.669433593750000000e-01,4.244995117187500000e-01,7.434692382812500000e-01
-2.000000000000000000e+00,-2.000000000000000000e+00,-4.000000000000000000e+00,-1.400000000000000000e+01,-3.000000000000000000e+00,-3.000000000000000000e+00,-2.000000000000000000e+00,-1.000000000000000000e+00,-3.638305664062500000e-01,3.669433593750000000e-01,4.244995117187500000e-01,7.434692382812500000e-01
-1.000000000000000000e+00,-5.000000000000000000e+00,-1.100000000000000000e+01,6.000000000000000000e+00,-2.000000000000000000e+00,1.000000000000000000e+00,-1.000000000000000000e+00,-2.000000000000000000e+00,-3.638305664062500000e-01,3.669433593750000000e-01,4.244995117187500000e-01,7.434692382812500000e-01
0.000000000000000000e+00,3.000000000000000000e+00,9.000000000000000000e+00,6.000000000000000000e+00,4.000000000000000000e+00,2.000000000000000000e+00,-1.000000000000000000e+00,0.000000000000000000e+00,-3.638305664062500000e-01,3.669433593750000000e-01,4.244995117187500000e-01,7.434692382812500000e-01
-1.000000000000000000e+00,3.000000000000000000e+00,7.000000000000000000e+00,-5.000000000000000000e+00,1.000000000000000000e+00,-2.000000000000000000e+00,-3.000000000000000000e+00,-3.000000000000000000e+00,-3.641967773437500000e-01,3.666381835937500000e-01,4.247436523437500000e-01,7.432861328125000000e-01
-2.000000000000000000e+00,-5.000000000000000000e+00,-1.500000000000000000e+01,0.000000000000000000e+00,-2.000000000000000000e+00,-2.000000000000000000e+00,0.000000000000000000e+00,0.000000000000000000e+00,-3.641967773437500000e-01,3.666381835937500000e-01,4.247436523437500000e-01,7.432861328125000000e-01
-1.000000000000000000e+00,-2.000000000000000000e+00,5.000000000000000000e+00,-6.000000000000000000e+00,-4.000000000000000000e+00,0.000000000000000000e+00,-2.000000000000000000e+00,-1.000000000000000000e+00,-3.641967773437500000e-01,3.666381835937500000e-01,4.247436523437500000e-01,7.432861328125000000e-01
0.000000000000000000e+00,0.000000000000000000e+00,7.000000000000000000e+00,5.000000000000000000e+00,-1.000000000000000000e+00,-2.000000000000000000e+00,-2.000000000000000000e+00,-2.000000000000000000e+00,-3.641967773437500000e-01,3.666381835937500000e-01,4.247436523437500000e-01,7.432861328125000000e-01
1.000000000000000000e+00,-1.000000000000000000e+00,-1.000000000000000000e+01,-4.000000000000000000e+00,-1.000000000000000000e+00,-2.000000000000000000e+00,-1.000000000000000000e+00,-2.000000000000000000e+00,-3.643798828125000000e-01,3.662719726562500000e-01,4.247436523437500000e-01,7.433471679687500000e-01
0.000000000000000000e+00,0.000000000000000000e+00,1.000000000000000000e+01,-3.000000000000000000e+00,-1.000000000000000000e+00,-1.000000000000000000e+00,-1.000000000000000000e+00,0.000000000000000000e+00,-3.643798828125000000e-01,3.662719726562500000e-01,4.247436523437500000e-01,7.433471679687500000e-01
-1.000000000000000000e+00,1.000000000000000000e+00,-4.000000000000000000e+00,4.000000000000000000e+00,3.000000000000000000e+00,2.000000000000000000e+00,2.000000000000000000e+00,0.000000000000000000e+00,-3.643798828125000000e-01,3.662719726562500000e-01,4.247436523437500000e-01,7.433471679687500000e-01
-1.000000000000000000e+00,-1.000000000000000000e+00,-4.000000000000000000e+00,-1.400000000000000000e+01,1.000000000000000000e+00,-7.000000000000000000e+00,-5.000000000000000000e+00,0.000000000000000000e+00,-3.643798828125000000e-01,3.662719726562500000e-01,4.247436523437500000e-01,7.433471679687500000e-01
-2.000000000000000000e+00,-5.000000000000000000e+00,-3.000000000000000000e+00,1.100000000000000000e+01,-6.000000000000000000e+00,1.000000000000000000e+00,-6.000000000000000000e+00,-4.000000000000000000e+00,-3.643798828125000000e-01,3.662109375000000000e-01,4.247436523437500000e-01,7.434082031250000000e-01
0.000000000000000000e+00,0.000000000000000000e+00,8.000000000000000000e+00,-2.400000000000000000e+01,-2.000000000000000000e+00,0.000000000000000000e+00,2.000000000000000000e+00,-2.000000000000000000e+00,-3.643798828125000000e-01,3.662109375000000000e-01,4.247436523437500000e-01,7.434082031250000000e-01
1.000000000000000000e+00,-4.000000000000000000e+00,-3.200000000000000000e+01,-1.400000000000000000e+01,-5.000000000000000000e+00,0.000000000000000000e+00,0.000000000000000000e+00,0.000000000000000000e+00,-3.643798828125000000e-01,3.662109375000000000e-01,4.247436523437500000e-01,7.434082031250000000e-01
-2.000000000000000000e+00,0.000000000000000000e+00,1.100000000000000000e+01,8.000000000000000000e+00,0.000000000000000000e+00,-2.000000000000000000e+00,-1.000000000000000000e+00,-2.000000000000000000e+00,-3.643798828125000000e-01,3.662109375000000000e-01,4.247436523437500000e-01,7.434082031250000000e-01
2.000000000000000000e+00,3.000000000000000000e+00,7.000000000000000000e+00,6.000000000000000000e+00,1.000000000000000000e+00,-4.000000000000000000e+00,-3.000000000000000000e+00,1.000000000000000000e+00,-3.643798828125000000e-01,3.662109375000000000e-01,4.247436523437500000e-01,7.434082031250000000e-01
0.000000000000000000e+00,-2.000000000000000000e+00,0.000000000000000000e+00,0.000000000000000000e+00,-1.000000000000000000e+00,-4.000000000000000000e+00,-4.000000000000000000e+00,-1.000000000000000000e+00,-3.643798828125000000e-01,3.662109375000000000e-01,4.247436523437500000e-01,7.434082031250000000e-01
-2.000000000000000000e+00,-3.000000000000000000e+00,0.000000000000000000e+00,-5.000000000000000000e+00,3.000000000000000000e+00,4.000000000000000000e+00,1.000000000000000000e+00,-2.000000000000000000e+00,-3.643798828125000000e-01,3.662109375000000000e-01,4.247436523437500000e-01,7.434082031250000000e-01
-1.000000000000000000e+00,0.000000000000000000e+00,6.000000000000000000e+00,3.000000000000000000e+00,-1.000000000000000000e+00,-2.000000000000000000e+00,-1.000000000000000000e+00,1.000000000000000000e+00,-3.643798828125000000e-01,3.662109375000000000e-01,4.247436523437500000e-01,7.434082031250000000e-01
0.000000000000000000e+00,-3.000000000000000000e+00,-2.300000000000000000e+01,-3.000000000000000000e+00,-1.000000000000000000e+00,-1.000000000000000000e+00,0.000000000000000000e+00,0.000000000000000000e+00,-3.646850585937500000e-01,3.659057617187500000e-01,4.253540039062500000e-01,7.430419921875000000e-01
-1.000000000000000000e+00,-1.000000000000000000e+00,4.000000000000000000e+00,1.400000000000000000e+01,-1.000000000000000000e+00,0.000000000000000000e+00,-1.000000000000000000e+00,-2.000000000000000000e+00,-3.646850585937500000e-01,3.659057617187500000e-01,4.253540039062500000e-01,7.430419921875000000e-01
3.000000000000000000e+00,2.000000000000000000e+00,1.200000000000000000e+01,-9.000000000000000000e+00,-3.000000000000000000e+00,-2.000000000000000000e+00,0.000000000000000000e+00,-1.000000000000000000e+00,-3.646850585937500000e-01,3.659057617187500000e-01,4.253540039062500000e-01,7.430419921875000000e-01
-1.000000000000000000e+00,-4.000000000000000000e+00,-1.600000000000000000e+01,-7.000000000000000000e+00,-1.000000000000000000e+00,1.000000000000000000e+00,-1.000000000000000000e+00,0.000000000000000000e+00,-3.646850585937500000e-01,3.659057617187500000e-01,4.253540039062500000e-01,7.430419921875000000e-01
1.000000000000000000e+00,2.000000000000000000e+00,1.000000000000000000e+01,-4.000000000000000000e+00,-3.000000000000000000e+00,-3.000000000000000000e+00,1.000000000000000000e+00,-1.000000000000000000e+00,-3.654174804687500000e-01,3.651123046875000000e-01,4.262084960937500000e-01,7.426147460937500000e-01
0.000000000000000000e+00,-2.000000000000000000e+00,-4.000000000000000000e+00,1.300000000000000000e+01,1.000000000000000000e+00,1.000000000000000000e+00,-2.000000000000000000e+00,-3.000000000000000000e+00,-3.654174804687500000e-01,3.651123046875000000e-01,4.262084960937500000e-01,7.426147460937500000e-01
-1.000000000000000000e+00,-2.000000000000000000e+00,-6.000000000000000000e+00,-1.700000000000000000e+01,-2.000000000000000000e+00,-1.000000000000000000e+00,-1.000000000000000000e+00,-1.000000000000000000e+00,-3.654174804687500000e-01,3.651123046875000000e-01,4.262084960937500000e-01,7.426147460937500000e-01
-1.000000000000000000e+00,-2.000000000000000000e+00,9.000000000000000000e+00,9.000000000000000000e+00,-1.000000000000000000e+00,0.000000000000000000e+00,0.000000000000000000e+00,0.000000000000000000e+00,-3.654174804687500000e-01,3.651123046875000000e-01,4.262084960937500000e-01,7.426147460937500000e-01
0.000000000000000000e+00,1.000000000000000000e+00,-2.000000000000000000e+00,-1.500000000000000000e+01,-2.000000000000000000e+00,-1.000000000000000000e+00,-1.000000000000000000e+00,0.000000000000000000e+00,-3.659667968750000000e-01,3.645019531250000000e-01,4.266357421875000000e-01,7.423706054687500000e-01
-1.000000000000000000e+00,-3.000000000000000000e+00,-1.000000000000000000e+01,-5.000000000000000000e+00,-2.000000000000000000e+00,-3.000000000000000000e+00,-2.000000000000000000e+00,-1.000000000000000000e+00,-3.659667968750000000e-01,3.645019531250000000e-01,4.266357421875000000e-01,7.423706054687500000e-01
0.000000000000000000e+00,0.000000000000000000e+00,5.000000000000000000e+00,1.100000000000000000e+01,3.000000000000000000e+00,0.000000000000000000e+00,-1.000000000000000000e+00,-2.000000000000000000e+00,-3.659667968750000000e-01,3.645019531250000000e-01,4.266357421875000000e-01,7.423706054687500000e-01
-1.000000000000000000e+00,-2.000000000000000000e+00,-1.000000000000000000e+01,1.000000000000000000e+01,0.000000000000000000e+00,-1.000000000000000000e+00,1.000000000000000000e+00,-3.000000000000000000e+00,-3.659667968750000000e-01,3.645019531250000000e-01,4.266357421875000000e-01,7.423706054687500000e-01
-1.000000000000000000e+00,0.000000000000000000e+00,9.000000000000000000e+00,-1.200000000000000000e+01,-2.000000000000000000e+00,2.000000000000000000e+00,-1.000000000000000000e+00,-1.000000000000000000e+00,-3.660278320312500000e-01,3.646240234375000000e-01,4.263305664062500000e-01,7.424316406250000000e-01
-1.000000000000000000e+00,3.000000000000000000e+00,0.000000000000000000e+00,1.800000000000000000e+01,7.000000000000000000e+00,5.000000000000000000e+00,0.000000000000000000e+00,-1.000000000000000000e+00,-3.660278320312500000e-01,3.646240234375000000e-01,4.263305664062500000e-01,7.424316406250000000e-01
-2.000000000000000000e+00,-2.000000000000000000e+00,1.000000000000000000e+00,-4.500000000000000000e+01,-1.000000000000000000e+01,-5.000000000000000000e+00,-6.000000000000000000e+00,0.000000000000000000e+00,-3.660278320312500000e-01,3.646240234375000000e-01,4.263305664062500000e-01,7.424316406250000000e-01
-1.000000000000000000e+00,-5.000000000000000000e+00,1.000000000000000000e+00,-2.000000000000000000e+00,-3.000000000000000000e+00,1.000000000000000000e+00,1.000000000000000000e+00,-1.000000000000000000e+00,-3.660278320312500000e-01,3.646240234375000000e-01,4.263305664062500000e-01,7.424316406250000000e-01
-1.000000000000000000e+00,0.000000000000000000e+00,0.000000000000000000e+00,1.200000000000000000e+01,1.000000000000000000e+00,-1.000000000000000000e+00,-1.000000000000000000e+00,-1.000000000000000000e+00,-3.655395507812500000e-01,3.653564453125000000e-01,4.259033203125000000e-01,7.426147460937500000e-01
1.000000000000000000e+00,5.000000000000000000e+00,3.100000000000000000e+01,-1.500000000000000000e+01,-5.000000000000000000e+00,-3.000000000000000000e+00,0.000000000000000000e+00,1.000000000000000000e+00,-3.655395507812500000e-01,3.653564453125000000e-01,4.259033203125000000e-01,7.426147460937500000e-01
-3.000000000000000000e+00,-9.000000000000000000e+00,-4.200000000000000000e+01,2.100000000000000000e+01,4.000000000000000000e+00,1.000000000000000000e+00,-1.000000000000000000e+00,-2.000000000000000000e+00,-3.655395507812500000e-01,3.653564453125000000e-01,4.259033203125000000e-01,7.426147460937500000e-01
2.000000000000000000e+00,0.000000000000000000e+00,2.000000000000000000e+00,-8.000000000000000000e+00,0.000000000000000000e+00,-1.000000000000000000e+00,3.000000000000000000e+00,0.000000000000000000e+00,-3.655395507812500000e-01,3.653564453125000000e-01,4.259033203125000000e-01,7.426147460937500000e-01
-2.000000000000000000e+00,1.000000000000000000e+00,1.200000000000000000e+01,1.000000000000000000e+00,1.000000000000000000e+00,0.000000000000000000e+00,2.000000000000000000e+00,-1.000000000000000000e+00,-3.654785156250000000e-01,3.654174804687500000e-01,4.259033203125000000e-01,7.425537109375000000e-01
-4.000000000000000000e+00,-3.000000000000000000e+00,-7.000000000000000000e+00,6.000000000000000000e+00,-1.000000000000000000e+00,-1.000000000000000000e+00,-3.000000000000000000e+00,0.000000000000000000e+00,-3.654785156250000000e-01,3.654174804687500000e-01,4.259033203125000000e-01,7.425537109375000000e-01
-1.000000000000000000e+00,4.000000000000000000e+00,1.300000000000000000e+01,1.000000000000000000e+00,0.000000000000000000e+00,1.000000000000000000e+00,1.000000000000000000e+00,1.000000000000000000e+00,-3.654785156250000000e-01,3.654174804687500000e-01,4.259033203125000000e-01,7.425537109375000000e-01
0.000000000000000000e+00,2.000000000000000000e+00,-2.000000000000000000e+00,0.000000000000000000e+00,-3.000000000000000000e+00,-2.000000000000000000e+00,-4.000000000000000000e+00,0.000000000000000000e+00,-3.654785156250000000e-01,3.654174804687500000e-01,4.259033203125000000e-01,7.425537109375000000e-01
-1.000000000000000000e+00,-2.000000000000000000e+00,-7.000000000000000000e+00,-3.000000000000000000e+00,-3.000000000000000000e+00,-1.000000000000000000e+00,0.000000000000000000e+00,-1.000000000000000000e+00,-3.660278320312500000e-01,3.651733398437500000e-01,4.259033203125000000e-01,7.424316406250000000e-01
1.000000000000000000e+00,-1.000000000000000000e+00,3.000000000000000000e+00,2.500000000000000000e+01,2.000000000000000000e+00,0.000000000000000000e+00,1.000000000000000000e+00,0.000000000000000000e+00,-3.660278320312500000e-01,3.651733398437500000e-01,4.259033203125000000e-01,7.424316406250000000e-01
-3.000000000000000000e+00,-1.000000000000000000e+00,5.000000000000000000e+00,-2.500000000000000000e+01,-3.000000000000000000e+00,0.000000000000000000e+00,-2.000000000000000000e+00,-3.000000000000000000e+00,-3.660278320312500000e-01,3.651733398437500000e-01,4.259033203125000000e-01,7.424316406250000000e-01
-1.000000000000000000e+00,2.000000000000000000e+00,-5.000000000000000000e+00,8.000000000000000000e+00,-1.000000000000000000e+00,1.000000000000000000e+00,1.000000000000000000e+00,0.000000000000000000e+00,-3.660278320312500000e-01,3.651733398437500000e-01,4.259033203125000000e-01,7.424316406250000000e-01
-1.000000000000000000e+00,0.000000000000000000e+00,9.000000000000000000e+00,5.000000000000000000e+00,-1.000000000000000000e+00,-1.000000000000000000e+00,0.000000000000000000e+00,-1.000000000000000000e+00,-3.669433593750000000e-01,3.646850585937500000e-01,4.256591796875000000e-01,7.423706054687500000e-01
-2.000000000000000000e+00,-3.000000000000000000e+00,-1.700000000000000000e+01,-1.100000000000000000e+01,-2.000000000000000000e+00,-5.000000000000000000e+00,-7.000000000000000000e+00,-2.000000000000000000e+00,-3.669433593750000000e-01,3.646850585937500000e-01,4.256591796875000000e-01,7.423706054687500000e-01
0.000000000000000000e+00,0.000000000000000000e+00,8.000000000000000000e+00,1.600000000000000000e+01,-1.000000000000000000e+00,-3.000000000000000000e+00,-2.000000000000000000e+00,0.000000000000000000e+00,-3.669433593750000000e-01,3.646850585937500000e-01,4.256591796875000000e-01,7.423706054687500000e-01
-3.000000000000000000e+00,-1.000000000000000000e+00,-1.400000000000000000e+01,1.000000000000000000e+01,3.000000000000000000e+00,3.000000000000000000e+00,-1.000000000000000000e+00,-4.000000000000000000e+00,-3.669433593750000000e-01,3.646850585937500000e-01,4.256591796875000000e-01,7.423706054687500000e-01
-2.000000000000000000e+00,-5.000000000000000000e+00,-1.500000000000000000e+01,-1.500000000000000000e+01,-5.000000000000000000e+00,-3.000000000000000000e+00,-2.000000000000000000e+00,-1.000000000000000000e+00,-3.674316406250000000e-01,3.645019531250000000e-01,4.251708984375000000e-01,7.424926757812500000e-01
-2.000000000000000000e+00,-3.000000000000000000e+00,-1.700000000000000000e+01,-3.100000000000000000e+01,-3.000000000000000000e+00,0.000000000000000000e+00,2.000000000000000000e+00,-2.000000000000000000e+00,-3.674316406250000000e-01,3.645019531250000000e-01,4.251708984375000000e-01,7.424926757812500000e-01
0.000000000000000000e+00,-2.000000000000000000e+00,-1.200000000000000000e+01,-2.000000000000000000e+00,3.000000000000000000e+00,1.000000000000000000e+00,0.000000000000000000e+00,0.000000000000000000e+00,-3.674316406250000000e-01,3.645019531250000000e-01,4.251708984375000000e-01,7.424926757812500000e-01
1.000000000000000000e+00,6.000000000000000000e+00,4.300000000000000000e+01,3.300000000000000000e+01,1.000000000000000000e+00,-1.000000000000000000e+00,0.000000000000000000e+00,0.000000000000000000e+00,-3.674316406250000000e-01,3.645019531250000000e-01,4.251708984375000000e-01,7.424926757812500000e-01
-1.000000000000000000e+00,-1.000000000000000000e+00,-9.000000000000000000e+00,4.000000000000000000e+00,0.000000000000000000e+00,-2.000000000000000000e+00,-1.000000000000000000e+00,-1.000000000000000000e+00,-3.679199218750000000e-01,3.644409179687500000e-01,4.244384765625000000e-01,7.427368164062500000e-01
-2.000000000000000000e+00,2.000000000000000000e+00,1.000000000000000000e+00,-1.300000000000000000e+01,-6.000000000000000000e+00,-3.000000000000000000e+00,-2.000000000000000000e+00,-2.000000000000000000e+00,-3.679199218750000000e-01,3.644409179687500000e-01,4.244384765625000000e-01,7.427368164062500000e-01
-1.000000000000000000e+00,0.000000000000000000e+00,-8.000000000000000000e+00,2.500000000000000000e+01,3.000000000000000000e+00,-1.000000000000000000e+00,-1.000000000000000000e+00,-1.000000000000000000e+00,-3.679199218750000000e-01,3.644409179687500000e-01,4.244384765625000000e-01,7.427368164062500000e-01
-2.000000000000000000e+00,-4.000000000000000000e+00,1.000000000000000000e+00,-3.900000000000000000e+01,-5.000000000000000000e+00,0.000000000000000000e+00,1.000000000000000000e+00,-1.000000000000000000e+00,-3.679199218750000000e-01,3.644409179687500000e-01,4.244384765625000000e-01,7.427368164062500000e-01
-2.000000000000000000e+00,-1.000000000000000000e+00,-9.000000000000000000e+00,5.000000000000000000e+00,1.000000000000000000e+00,0.000000000000000000e+00,-4.000000000000000000e+00,-1.000000000000000000e+00,-3.679199218750000000e-01,3.643798828125000000e-01,4.237060546875000000e-01,7.431640625000000000e-01
1.000000000000000000e+00,-2.000000000000000000e+00,-2.000000000000000000e+00,-3.000000000000000000e+00,-3.000000000000000000e+00,-1.000000000000000000e+00,-1.000000000000000000e+00,0.000000000000000000e+00,-3.679199218750000000e-01,3.643798828125000000e-01,4.237060546875000000e-01,7.431640625000000000e-01
0.000000000000000000e+00,3.000000000000000000e+00,1.800000000000000000e+01,2.800000000000000000e+01,1.000000000000000000e+00,-1.000000000000000000e+00,0.000000000000000000e+00,0.000000000000000000e+00,-3.679199218750000000e-01,3.643798828125000000e-01,4.237060546875000000e-01,7.431640625000000000e-01
-2.000000000000000000e+00,-4.000000000000000000e+00,-2.100000000000000000e+01,-2.300000000000000000e+01,-5.000000000000000000e+00,-2.000000000000000000e+00,-3.000000000000000000e+00,-1.000000000000000000e+00,-3.679199218750000000e-01,3.643798828125000000e-01,4.237060546875000000e-01,7.431640625000000000e-01
1.000000000000000000e+00,1.000000000000000000e+00,-4.000000000000000000e+00,-1.200000000000000000e+01,-4.000000000000000000e+00,-2.000000000000000000e+00,-2.000000000000000000e+00,-2.000000000000000000e+00,-3.677368164062500000e-01,3.641357421875000000e-01,4.230957031250000000e-01,7.437133789062500000e-01
-2.000000000000000000e+00,0.000000000000000000e+00,4.000000000000000000e+00,2.000000000000000000e+00,0.000000000000000000e+00,0.000000000000000000e+00,-1.000000000000000000e+00,-2.000000000000000000e+00,-3.677368164062500000e-01,3.641357421875000000e-01,4.230957031250000000e-01,7.437133789062500000e-01
-1.000000000000000000e+00,0.000000000000000000e+00,7.000000000000000000e+00,8.000000000000000000e+00,1.000000000000000000e+00,-3.000000000000000000e+00,2.000000000000000000e+00,0.000000000000000000e+00,-3.677368164062500000e-01,3.641357421875000000e-01,4.230957031250000000e-01,7.437133789062500000e-01
0.000000000000000000e+00,-1.000000000000000000e+00,-6.000000000000000000e+00,1.200000000000000000e+01,-1.000000000000000000e+00,1.000000000000000000e+00,0.000000000000000000e+00,0.000000000000000000e+00,-3.677368164062500000e-01,3.641357421875000000e-01,4.230957031250000000e-01,7.437133789062500000e-01
0.000000000000000000e+00,2.000000000000000000e+00,2.500000000000000000e+01,2.100000000000000000e+01,0.000000000000000000e+00,-1.000000000000000000e+00,0.000000000000000000e+00,0.000000000000000000e+00,-3.674316406250000000e-01,3.637084960937500000e-01,4.229736328125000000e-01,7.441406250000000000e-01
-3.000000000000000000e+00,-3.000000000000000000e+00,-2.800000000000000000e+01,-4.000000000000000000e+01,-5.000000000000000000e+00,1.000000000000000000e+00,1.000000000000000000e+00,-1.000000000000000000e+00,-3.674316406250000000e-01,3.637084960937500000e-01,4.229736328125000000e-01,7.441406250000000000e-01
-1.000000000000000000e+00,-3.000000000000000000e+00,1.500000000000000000e+01,-4.000000000000000000e+00,-1.000000000000000000e+00,0.000000000000000000e+00,-1.000000000000000000e+00,-2.000000000000000000e+00,-3.674316406250000000e-01,3.637084960937500000e-01,4.229736328125000000e-01,7.441406250000000000e-01
-2.000000000000000000e+00,-2.000000000000000000e+00,-1.200000000000000000e+01,8.000000000000000000e+00,0.000000000000000000e+00,-3.000000000000000000e+00,1.000000000000000000e+00,1.000000000000000000e+00,-3.674316406250000000e-01,3.637084960937500000e-01,4.229736328125000000e-01,7.441406250000000000e-01
-1.000000000000000000e+00,-1.000000000000000000e+00,-3.000000000000000000e+00,4.000000000000000000e+00,-1.000000000000000000e+00,1.000000000000000000e+00,-1.000000000000000000e+00,-1.000000000000000000e+00,-3.676147460937500000e-01,3.629760742187500000e-01,4.231567382812500000e-01,7.443237304687500000e-01
0.000000000000000000e+00,1.000000000000000000e+00,1.000000000000000000e+01,2.300000000000000000e+01,1.000000000000000000e+00,1.000000000000000000e+00,0.000000000000000000e+00,0.000000000000000000e+00,-3.676147460937500000e-01,3.629760742187500000e-01,4.231567382812500000e-01,7.443237304687500000e-01
1.000000000000000000e+00,2.000000000000000000e+00,6.000000000000000000e+00,9.000000000000000000e+00,4.000000000000000000e+00,1.000000000000000000e+00,1.000000000000000000e+00,1.000000000000000000e+00,-3.676147460937500000e-01,3.629760742187500000e-01,4.231567382812500000e-01,7.443237304687500000e-01
-4.000000000000000000e+00,-4.000000000000000000e+00,-4.100000000000000000e+01,-4.500000000000000000e+01,-7.000000000000000000e+00,-3.000000000000000000e+00,-5.000000000000000000e+00,-3.000000000000000000e+00,-3.676147460937500000e-01,3.629760742187500000e-01,4.231567382812500000e-01,7.443237304687500000e-01
-1.000000000000000000e+00,-2.000000000000000000e+00,-3.000000000000000000e+00,6.000000000000000000e+00,-1.000000000000000000e+00,-4.000000000000000000e+00,-3.000000000000000000e+00,-3.000000000000000000e+00,-3.674926757812500000e-01,3.621826171875000000e-01,4.233398437500000000e-01,7.446289062500000000e-01
-1.000000000000000000e+00,-2.000000000000000000e+00,1.000000000000000000e+00,-2.000000000000000000e+00,0.000000000000000000e+00,-1.000000000000000000e+00,-3.000000000000000000e+00,-2.000000000000000000e+00,-3.674926757812500000e-01,3.621826171875000000e-01,4.233398437500000000e-01,7.446289062500000000e-01
-1.000000000000000000e+00,0.000000000000000000e+00,1.000000000000000000e+00,-7.000000000000000000e+00,0.000000000000000000e+00,2.000000000000000000e+00,0.000000000000000000e+00,0.000000000000000000e+00,-3.674926757812500000e-01,3.621826171875000000e-01,4.233398437500000000e-01,7.446289062500000000e-01
1.000000000000000000e+00,2.000000000000000000e+00,2.300000000000000000e+01,1.200000000000000000e+01,2.000000000000000000e+00,0.000000000000000000e+00,0.000000000000000000e+00,0.000000000000000000e+00,-3.674926757812500000e-01,3.621826171875000000e-01,4.233398437500000000e-01,7.446289062500000000e-01
-1.000000000000000000e+00,-2.000000000000000000e+00,-5.000000000000000000e+00,-6.000000000000000000e+00,0.000000000000000000e+00,-3.000000000000000000e+00,-2.000000000000000000e+00,-1.000000000000000000e+00,-3.668823242187500000e-01,3.617553710937500000e-01,4.232177734375000000e-01,7.452392578125000000e-01
-1.000000000000000000e+00,-3.000000000000000000e+00,-9.000000000000000000e+00,4.000000000000000000e+00,0.000000000000000000e+00,1.000000000000000000e+00,0.000000000000000000e+00,1.000000000000000000e+00,-3.668823242187500000e-01,3.617553710937500000e-01,4.232177734375000000e-01,7.452392578125000000e-01
-3.000000000000000000e+00,-1.000000000000000000e+00,1.000000000000000000e+00,-1.500000000000000000e+01,-4.000000000000000000e+00,-1.000000000000000000e+00,-2.000000000000000000e+00,-2.000000000000000000e+00,-3.668823242187500000e-01,3.617553710937500000e-01,4.232177734375000000e-01,7.452392578125000000e-01
-2.000000000000000000e+00,2.000000000000000000e+00,4.000000000000000000e+00,1.000000000000000000e+01,2.000000000000000000e+00,-3.000000000000000000e+00,-3.000000000000000000e+00,-1.000000000000000000e+00,-3.668823242187500000e-01,3.617553710937500000e-01,4.232177734375000000e-01,7.452392578125000000e-01
-1.000000000000000000e+00,-4.000000000000000000e+00,-3.000000000000000000e+00,-7.000000000000000000e+00,-1.000000000000000000e+00,-1.000000000000000000e+00,0.000000000000000000e+00,0.000000000000000000e+00,-3.656005859375000000e-01,3.615722656250000000e-01,4.230346679687500000e-01,7.460327148437500000e-01
-2.000000000000000000e+00,-2.000000000000000000e+00,-1.500000000000000000e+01,-1.100000000000000000e+01,-3.000000000000000000e+00,-4.000000000000000000e+00,3.000000000000000000e+00,-1.000000000000000000e+00,-3.656005859375000000e-01,3.615722656250000000e-01,4.230346679687500000e-01,7.460327148437500000e-01
-2.000000000000000000e+00,-1.000000000000000000e+00,-6.000000000000000000e+00,2.000000000000000000e+00,-5.000000000000000000e+00,-1.000000000000000000e+00,-3.000000000000000000e+00,-1.000000000000000000e+00,-3.656005859375000000e-01,3.615722656250000000e-01,4.230346679687500000e-01,7.460327148437500000e-01
1.000000000000000000e+00,0.000000000000000000e+00,7.000000000000000000e+00,5.000000000000000000e+00,0.000000000000000000e+00,0.000000000000000000e+00,1.000000000000000000e+00,-1.000000000000000000e+00,-3.656005859375000000e-01,3.615722656250000000e-01,4.230346679687500000e-01,7.460327148437500000e-01
-3.000000000000000000e+00,-5.000000000000000000e+00,-2.000000000000000000e+01,-1.200000000000000000e+01,-5.000000000000000000e+00,-3.000000000000000000e+00,-5.000000000000000000e+00,-3.000000000000000000e+00,-3.646240234375000000e-01,3.615112304687500000e-01,4.230957031250000000e-01,7.465209960937500000e-01
-1.000000000000000000e+00,0.000000000000000000e+00,1.700000000000000000e+01,3.000000000000000000e+00,1.000000000000000000e+00,0.000000000000000000e+00,-4.000000000000000000e+00,-4.000000000000000000e+00,-3.646240234375000000e-01,3.615112304687500000e-01,4.230957031250000000e-01,7.465209960937500000e-01
1.000000000000000000e+00,1.000000000000000000e+00,-9.000000000000000000e+00,-2.000000000000000000e+00,-4.000000000000000000e+00,-4.000000000000000000e+00,3.000000000000000000e+00,1.000000000000000000e+00,-3.646240234375000000e-01,3.615112304687500000e-01,4.230957031250000000e-01,7.465209960937500000e-01
-1.000000000000000000e+00,-3.000000000000000000e+00,0.000000000000000000e+00,-4.000000000000000000e+00,0.000000000000000000e+00,1.000000000000000000e+00,0.000000000000000000e+00,1.000000000000000000e+00,-3.646240234375000000e-01,3.615112304687500000e-01,4.230957031250000000e-01,7.465209960937500000e-01
0.000000000000000000e+00,2.000000000000000000e+00,-2.000000000000000000e+00,1.000000000000000000e+01,-2.000000000000000000e+00,-3.000000000000000000e+00,1.000000000000000000e+00,0.000000000000000000e+00,-3.638916015625000000e-01,3.616943359375000000e-01,4.234008789062500000e-01,7.465820312500000000e-01
-1.000000000000000000e+00,-5.000000000000000000e+00,1.400000000000000000e+01,2.200000000000000000e+01,3.000000000000000000e+00,0.000000000000000000e+00,-1.000000000000000000e+00,0.000000000000000000e+00,-3.638916015625000000e-01,3.616943359375000000e-01,4.234008789062500000e-01,7.465820312500000000e-01
-5.000000000000000000e+00,-6.000000000000000000e+00,-4.300000000000000000e+01,-4.600000000000000000e+01,-9.000000000000000000e+00,-4.000000000000000000e+00,-3.000000000000000000e+00,-4.000000000000000000e+00,-3.638916015625000000e-01,3.616943359375000000e-01,4.234008789062500000e-01,7.465820312500000000e-01
1.000000000000000000e+00,1.000000000000000000e+00,5.000000000000000000e+00,4.000000000000000000e+00,0.000000000000000000e+00,-2.000000000000000000e+00,-1.000000000000000000e+00,-1.000000000000000000e+00,-3.638916015625000000e-01,3.616943359375000000e-01,4.234008789062500000e-01,7.465820312500000000e-01
1.000000000000000000e+00,-1.000000000000000000e+00,1.000000000000000000e+01,-8.000000000000000000e+00,2.000000000000000000e+00,1.000000000000000000e+00,0.000000000000000000e+00,1.000000000000000000e+00,-3.638916015625000000e-01,3.619995117187500000e-01,4.237060546875000000e-01,7.462768554687500000e-01
0.000000000000000000e+00,0.000000000000000000e+00,3.000000000000000000e+00,2.200000000000000000e+01,1.000000000000000000e+00,-3.000000000000000000e+00,0.000000000000000000e+00,-1.000000000000000000e+00,-3.638916015625000000e-01,3.619995117187500000e-01,4.237060546875000000e-01,7.462768554687500000e-01
-3.000000000000000000e+00,-2.000000000000000000e+00,1.100000000000000000e+01,-6.000000000000000000e+00,-6.000000000000000000e+00,-3.000000000000000000e+00,-3.000000000000000000e+00,0.000000000000000000e+00,-3.638916015625000000e-01,3.619995117187500000e-01,4.237060546875000000e-01,7.462768554687500000e-01
0.000000000000000000e+00,0.000000000000000000e+00,-1.000000000000000000e+00,1.000000000000000000e+00,1.000000000000000000e+00,2.000000000000000000e+00,0.000000000000000000e+00,1.000000000000000000e+00,-3.638916015625000000e-01,3.619995117187500000e-01,4.237060546875000000e-01,7.462768554687500000e-01
-2.000000000000000000e+00,0.000000000000000000e+00,1.000000000000000000e+00,-6.000000000000000000e+00,0.000000000000000000e+00,-3.000000000000000000e+00,-2.000000000000000000e+00,0.000000000000000000e+00,-3.638916015625000000e-01,3.624877929687500000e-01,4.238891601562500000e-01,7.459106445312500000e-01
-1.000000000000000000e+00,-2.000000000000000000e+00,-4.000000000000000000e+00,-1.500000000000000000e+01,-2.000000000000000000e+00,-2.000000000000000000e+00,-1.000000000000000000e+00,-1.000000000000000000e+00,-3.638916015625000000e-01,3.624877929687500000e-01,4.238891601562500000e-01,7.459106445312500000e-01
1.000000000000000000e+00,1.000000000000000000e+00,0.000000000000000000e+00,2.700000000000000000e+01,4.000000000000000000e+00,1.000000000000000000e+00,-1.000000000000000000e+00,-1.000000000000000000e+00,-3.638916015625000000e-01,3.624877929687500000e-01,4.238891601562500000e-01,7.459106445312500000e-01
0.000000000000000000e+00,1.000000000000000000e+00,2.000000000000000000e+01,-1.800000000000000000e+01,-4.000000000000000000e+00,-4.000000000000000000e+00,1.000000000000000000e+00,-3.000000000000000000e+00,-3.638916015625000000e-01,3.624877929687500000e-01,4.238891601562500000e-01,7.459106445312500000e-01
-2.000000000000000000e+00,-3.000000000000000000e+00,-7.000000000000000000e+00,4.000000000000000000e+00,-2.000000000000000000e+00,0.000000000000000000e+00,-1.000000000000000000e+00,-3.000000000000000000e+00,-3.634643554687500000e-01,3.631591796875000000e-01,4.240722656250000000e-01,7.457275390625000000e-01
-2.000000000000000000e+00,1.000000000000000000e+00,1.000000000000000000e+00,5.000000000000000000e+00,1.000000000000000000e+00,2.000000000000000000e+00,1.000000000000000000e+00,-1.000000000000000000e+00,-3.634643554687500000e-01,3.631591796875000000e-01,4.240722656250000000e-01,7.457275390625000000e-01
-2.000000000000000000e+00,-4.000000000000000000e+00,-9.000000000000000000e+00,-1.800000000000000000e+01,-4.000000000000000000e+00,-4.000000000000000000e+00,-3.000000000000000000e+00,-2.000000000000000000e+00,-3.634643554687500000e-01,3.631591796875000000e-01,4.240722656250000000e-01,7.457275390625000000e-01
0.000000000000000000e+00,2.000000000000000000e+00,2.800000000000000000e+01,1.000000000000000000e+01,1.000000000000000000e+00,1.000000000000000000e+00,-3.000000000000000000e+00,1.000000000000000000e+00,-3.634643554687500000e-01,3.631591796875000000e-01,4.240722656250000000e-01,7.457275390625000000e-01
-2.000000000000000000e+00,-3.000000000000000000e+00,-9.000000000000000000e+00,3.000000000000000000e+00,-3.000000000000000000e+00,-2.000000000000000000e+00,1.000000000000000000e+00,-2.000000000000000000e+00,-3.634033203125000000e-01,3.637695312500000000e-01,4.243774414062500000e-01,7.453002929687500000e-01
-2.000000000000000000e+00,-3.000000000000000000e+00,-3.400000000000000000e+01,-1.600000000000000000e+01,-2.000000000000000000e+00,-4.000000000000000000e+00,-3.000000000000000000e+00,-1.000000000000000000e+00,-3.634033203125000000e-01,3.637695312500000000e-01,4.243774414062500000e-01,7.453002929687500000e-01
1.000000000000000000e+00,0.000000000000000000e+00,4.000000000000000000e+00,4.000000000000000000e+00,-2.000000000000000000e+00,0.000000000000000000e+00,2.000000000000000000e+00,-1.000000000000000000e+00,-3.634033203125000000e-01,3.637695312500000000e-01,4.243774414062500000e-01,7.453002929687500000e-01
-2.000000000000000000e+00,0.000000000000000000e+00,-5.000000000000000000e+00,1.700000000000000000e+01,0.000000000000000000e+00,-2.000000000000000000e+00,-4.000000000000000000e+00,-1.000000000000000000e+00,-3.634033203125000000e-01,3.637695312500000000e-01,4.243774414062500000e-01,7.453002929687500000e-01
