3.000000000000000000e+00,7.000000000000000000e+00,1.300000000000000000e+01,-2.600000000000000000e+01,-4.000000000000000000e+00,4.000000000000000000e+00,3.000000000000000000e+00,3.000000000000000000e+00,-1.353759765625000000e-01,4.449462890625000000e-01,-1.676025390625000000e-01,8.692626953125000000e-01
-2.000000000000000000e+00,-5.000000000000000000e+00,-1.100000000000000000e+01,5.700000000000000000e+01,2.000000000000000000e+00,-2.000000000000000000e+00,-3.000000000000000000e+00,-5.000000000000000000e+00,-1.353759765625000000e-01,4.449462890625000000e-01,-1.676025390625000000e-01,8.692626953125000000e-01
2.000000000000000000e+00,2.000000000000000000e+00,4.000000000000000000e+01,-3.000000000000000000e+00,2.000000000000000000e+00,4.000000000000000000e+00,-3.000000000000000000e+00,-3.000000000000000000e+00,-1.353759765625000000e-01,4.449462890625000000e-01,-1.676025390625000000e-01,8.692626953125000000e-01
-1.000000000000000000e+00,2.000000000000000000e+00,-3.000000000000000000e+01,-3.000000000000000000e+00,-4.000000000000000000e+00,-6.000000000000000000e+00,-1.300000000000000000e+01,-4.000000000000000000e+00,-1.353759765625000000e-01,4.449462890625000000e-01,-1.676025390625000000e-01,8.692626953125000000e-01
-7.000000000000000000e+00,-1.000000000000000000e+01,-2.700000000000000000e+01,1.200000000000000000e+01,8.000000000000000000e+00,3.000000000000000000e+00,3.000000000000000000e+00,-4.000000000000000000e+00,-1.355590820312500000e-01,4.442138671875000000e-01,-1.671142578125000000e-01,8.696899414062500000e-01
2.000000000000000000e+00,7.000000000000000000e+00,2.100000000000000000e+01,-4.000000000000000000e+01,-7.000000000000000000e+00,0.000000000000000000e+00,6.000000000000000000e+00,0.000000000000000000e+00,-1.355590820312500000e-01,4.442138671875000000e-01,-1.671142578125000000e-01,8.696899414062500000e-01
0.000000000000000000e+00,4.000000000000000000e+00,8.000000000000000000e+00,3.400000000000000000e+01,-1.000000000000000000e+00,-3.000000000000000000e+00,-4.000000000000000000e+00,2.000000000000000000e+00,-1.355590820312500000e-01,4.442138671875000000e-01,-1.671142578125000000e-01,8.696899414062500000e-01
-4.000000000000000000e+00,-5.000000000000000000e+00,-9.000000000000000000e+00,-3.300000000000000000e+01,0.000000000000000000e+00,2.000000000000000000e+00,-2.000000000000000000e+00,2.000000000000000000e+00,-1.355590820312500000e-01,4.442138671875000000e-01,-1.671142578125000000e-01,8.696899414062500000e-01
-2.000000000000000000e+00,-2.000000000000000000e+00,1.800000000000000000e+01,2.200000000000000000e+01,4.000000000000000000e+00,3.000000000000000000e+00,7.000000000000000000e+00,1.000000000000000000e+00,-1.359252929687500000e-01,4.436035156250000000e-01,-1.668701171875000000e-01,8.699340820312500000e-01
-4.000000000000000000e+00,-5.000000000000000000e+00,-2.200000000000000000e+01,-9.000000000000000000e+00,0.000000000000000000e+00,2.000000000000000000e+00,-1.000000000000000000e+00,-4.000000000000000000e+00,-1.359252929687500000e-01,4.436035156250000000e-01,-1.668701171875000000e-01,8.699340820312500000e-01
-2.000000000000000000e+00,-5.000000000000000000e+00,0.000000000000000000e+00,4.500000000000000000e+01,3.000000000000000000e+00,-6.000000000000000000e+00,-5.000000000000000000e+00,-2.000000000000000000e+00,-1.359252929687500000e-01,4.436035156250000000e-01,-1.668701171875000000e-01,8.699340820312500000e-01
2.000000000000000000e+00,4.000000000000000000e+00,-1.200000000000000000e+01,-2.100000000000000000e+01,-8.000000000000000000e+00,-2.000000000000000000e+00,-3.000000000000000000e+00,0.000000000000000000e+00,-1.359252929687500000e-01,4.436035156250000000e-01,-1.668701171875000000e-01,8.699340820312500000e-01
0.000000000000000000e+00,-1.000000000000000000e+00,-3.000000000000000000e+00,-1.800000000000000000e+01,-5.000000000000000000e+00,-1.000000000000000000e+00,1.000000000000000000e+00,3.000000000000000000e+00,-1.355590820312500000e-01,4.432373046875000000e-01,-1.671752929687500000e-01,8.701171875000000000e-01
2.000000000000000000e+00,5.000000000000000000e+00,3.800000000000000000e+01,8.000000000000000000e+00,-4.000000000000000000e+00,1.000000000000000000e+00,-3.000000000000000000e+00,-1.000000000000000000e+00,-1.355590820312500000e-01,4.432373046875000000e-01,-1.671752929687500000e-01,8.701171875000000000e-01
1.000000000000000000e+00,-4.000000000000000000e+00,-3.200000000000000000e+01,-4.000000000000000000e+00,4.000000000000000000e+00,1.000000000000000000e+00,2.000000000000000000e+00,0.000000000000000000e+00,-1.355590820312500000e-01,4.432373046875000000e-01,-1.671752929687500000e-01,8.701171875000000000e-01
-1.000000000000000000e+00,0.000000000000000000e+00,-2.000000000000000000e+00,5.000000000000000000e+00,7.000000000000000000e+00,1.000000000000000000e+00,-5.000000000000000000e+00,-3.000000000000000000e+00,-1.355590820312500000e-01,4.432373046875000000e-01,-1.671752929687500000e-01,8.701171875000000000e-01
-1.000000000000000000e+00,-2.000000000000000000e+00,-8.000000000000000000e+00,1.200000000000000000e+01,3.000000000000000000e+00,-1.000000000000000000e+00,2.000000000000000000e+00,-4.000000000000000000e+00,-1.345825195312500000e-01,4.431762695312500000e-01,-1.674194335937500000e-01,8.703002929687500000e-01
0.000000000000000000e+00,2.000000000000000000e+00,-7.000000000000000000e+00,-2.300000000000000000e+01,-6.000000000000000000e+00,-3.000000000000000000e+00,0.000000000000000000e+00,-2.000000000000000000e+00,-1.345825195312500000e-01,4.431762695312500000e-01,-1.674194335937500000e-01,8.703002929687500000e-01
-1.000000000000000000e+00,2.000000000000000000e+00,1.400000000000000000e+01,0.000000000000000000e+00,5.000000000000000000e+00,2.000000000000000000e+00,1.000000000000000000e+00,1.000000000000000000e+00,-1.339111328125000000e-01,4.434204101562500000e-01,-1.672363281250000000e-01,8.703002929687500000e-01
1.000000000000000000e+00,1.000000000000000000e+00,8.000000000000000000e+00,2.500000000000000000e+01,1.000000000000000000e+00,-1.000000000000000000e+00,-2.000000000000000000e+00,0.000000000000000000e+00,-1.339111328125000000e-01,4.434204101562500000e-01,-1.672363281250000000e-01,8.703002929687500000e-01
-5.000000000000000000e+00,-7.000000000000000000e+00,-4.100000000000000000e+01,-3.000000000000000000e+01,-2.000000000000000000e+00,-2.000000000000000000e+00,1.000000000000000000e+00,0.000000000000000000e+00,-1.339111328125000000e-01,4.434204101562500000e-01,-1.672363281250000000e-01,8.703002929687500000e-01
0.000000000000000000e+00,-2.000000000000000000e+00,2.100000000000000000e+01,9.000000000000000000e+00,0.000000000000000000e+00,3.000000000000000000e+00,-2.000000000000000000e+00,0.000000000000000000e+00,-1.339111328125000000e-01,4.434204101562500000e-01,-1.672363281250000000e-01,8.703002929687500000e-01
-6.000000000000000000e+00,-7.000000000000000000e+00,-3.000000000000000000e+00,-1.600000000000000000e+01,-4.000000000000000000e+00,1.000000000000000000e+00,-2.000000000000000000e+00,-1.000000000000000000e+00,-1.336059570312500000e-01,4.438476562500000000e-01,-1.671142578125000000e-01,8.701782226562500000e-01
-1.000000000000000000e+00,-2.000000000000000000e+00,4.000000000000000000e+00,3.500000000000000000e+01,4.000000000000000000e+00,0.000000000000000000e+00,-3.000000000000000000e+00,-3.000000000000000000e+00,-1.336059570312500000e-01,4.438476562500000000e-01,-1.671142578125000000e-01,8.701782226562500000e-01
0.000000000000000000e+00,1.000000000000000000e+00,-1.000000000000000000e+00,-2.500000000000000000e+01,-6.000000000000000000e+00,-1.000000000000000000e+00,-1.000000000000000000e+00,1.000000000000000000e+00,-1.336059570312500000e-01,4.438476562500000000e-01,-1.671142578125000000e-01,8.701782226562500000e-01
0.000000000000000000e+00,-2.000000000000000000e+00,-5.000000000000000000e+00,-1.000000000000000000e+00,4.000000000000000000e+00,-3.000000000000000000e+00,2.000000000000000000e+00,1.000000000000000000e+00,-1.336059570312500000e-01,4.438476562500000000e-01,-1.671142578125000000e-01,8.701782226562500000e-01
-2.000000000000000000e+00,-4.000000000000000000e+00,0.000000000000000000e+00,-1.500000000000000000e+01,-4.000000000000000000e+00,-2.000000000000000000e+00,-2.000000000000000000e+00,-2.000000000000000000e+00,-1.330566406250000000e-01,4.442138671875000000e-01,-1.672363281250000000e-01,8.700561523437500000e-01
0.000000000000000000e+00,5.000000000000000000e+00,-2.000000000000000000e+00,6.000000000000000000e+00,2.000000000000000000e+00,0.000000000000000000e+00,2.000000000000000000e+00,-2.000000000000000000e+00,-1.330566406250000000e-01,4.442138671875000000e-01,-1.672363281250000000e-01,8.700561523437500000e-01
-2.000000000000000000e+00,-7.000000000000000000e+00,-3.000000000000000000e+00,3.800000000000000000e+01,1.000000000000000000e+00,-2.000000000000000000e+00,-3.000000000000000000e+00,-1.000000000000000000e+00,-1.330566406250000000e-01,4.442138671875000000e-01,-1.672363281250000000e-01,8.700561523437500000e-01
2.000000000000000000e+00,7.000000000000000000e+00,2.800000000000000000e+01,-2.900000000000000000e+01,-9.000000000000000000e+00,-5.000000000000000000e+00,-5.000000000000000000e+00,1.000000000000000000e+00,-1.330566406250000000e-01,4.442138671875000000e-01,-1.672363281250000000e-01,8.700561523437500000e-01
1.000000000000000000e+00,2.000000000000000000e+00,-3.000000000000000000e+00,3.000000000000000000e+00,0.000000000000000000e+00,0.000000000000000000e+00,-1.000000000000000000e+00,0.000000000000000000e+00,-1.327514648437500000e-01,4.443969726562500000e-01,-1.671142578125000000e-01,8.699951171875000000e-01
0.000000000000000000e+00,-2.000000000000000000e+00,2.300000000000000000e+01,-1.000000000000000000e+00,-5.000000000000000000e+00,0.000000000000000000e+00,-1.000000000000000000e+00,-1.000000000000000000e+00,-1.327514648437500000e-01,4.443969726562500000e-01,-1.671142578125000000e-01,8.699951171875000000e-01
1.000000000000000000e+00,4.000000000000000000e+00,1.100000000000000000e+01,1.800000000000000000e+01,-5.000000000000000000e+00,-2.000000000000000000e+00,-1.000000000000000000e+00,-2.000000000000000000e+00,-1.327514648437500000e-01,4.443969726562500000e-01,-1.671142578125000000e-01,8.699951171875000000e-01
0.000000000000000000e+00,-5.000000000000000000e+00,-5.700000000000000000e+01,1.500000000000000000e+01,2.000000000000000000e+00,0.000000000000000000e+00,-4.000000000000000000e+00,-3.000000000000000000e+00,-1.327514648437500000e-01,4.443969726562500000e-01,-1.671142578125000000e-01,8.699951171875000000e-01
-1.000000000000000000e+00,0.000000000000000000e+00,-3.000000000000000000e+00,-3.400000000000000000e+01,-7.000000000000000000e+00,1.000000000000000000e+00,-1.000000000000000000e+00,-3.000000000000000000e+00,-1.325073242187500000e-01,4.441528320312500000e-01,-1.669311523437500000e-01,8.701782226562500000e-01
-2.000000000000000000e+00,1.000000000000000000e+00,1.100000000000000000e+01,1.300000000000000000e+01,0.000000000000000000e+00,1.000000000000000000e+00,2.000000000000000000e+00,-1.000000000000000000e+00,-1.325073242187500000e-01,4.441528320312500000e-01,-1.669311523437500000e-01,8.701782226562500000e-01
-4.000000000000000000e+00,-9.000000000000000000e+00,-3.700000000000000000e+01,-1.000000000000000000e+01,1.000000000000000000e+00,-5.000000000000000000e+00,-5.000000000000000000e+00,-1.000000000000000000e+00,-1.325073242187500000e-01,4.441528320312500000e-01,-1.669311523437500000e-01,8.701782226562500000e-01
-2.000000000000000000e+00,-3.000000000000000000e+00,1.800000000000000000e+01,1.900000000000000000e+01,3.000000000000000000e+00,2.000000000000000000e+00,-2.000000000000000000e+00,2.000000000000000000e+00,-1.325073242187500000e-01,4.441528320312500000e-01,-1.669311523437500000e-01,8.701782226562500000e-01
-1.000000000000000000e+00,-1.000000000000000000e+00,-8.000000000000000000e+00,4.000000000000000000e+00,2.000000000000000000e+00,4.000000000000000000e+00,-2.000000000000000000e+00,-3.000000000000000000e+00,-1.326293945312500000e-01,4.437866210937500000e-01,-1.668090820312500000e-01,8.704223632812500000e-01
1.000000000000000000e+00,-3.000000000000000000e+00,-1.800000000000000000e+01,-6.000000000000000000e+00,-1.000000000000000000e+00,0.000000000000000000e+00,0.000000000000000000e+00,0.000000000000000000e+00,-1.326293945312500000e-01,4.437866210937500000e-01,-1.668090820312500000e-01,8.704223632812500000e-01
1.000000000000000000e+00,5.000000000000000000e+00,3.700000000000000000e+01,-1.000000000000000000e+01,-1.200000000000000000e+01,-3.000000000000000000e+00,1.000000000000000000e+00,-1.000000000000000000e+00,-1.326293945312500000e-01,4.437866210937500000e-01,-1.668090820312500000e-01,8.704223632812500000e-01
-3.000000000000000000e+00,-6.000000000000000000e+00,-1.700000000000000000e+01,-7.000000000000000000e+00,3.000000000000000000e+00,-4.000000000000000000e+00,1.000000000000000000e+00,-2.000000000000000000e+00,-1.326293945312500000e-01,4.437866210937500000e-01,-1.668090820312500000e-01,8.704223632812500000e-01
0.000000000000000000e+00,-1.000000000000000000e+00,-9.000000000000000000e+00,2.000000000000000000e+00,-3.000000000000000000e+00,-4.000000000000000000e+00,-1.000000000000000000e+00,-1.000000000000000000e+00,-1.326293945312500000e-01,4.435424804687500000e-01,-1.667480468750000000e-01,8.705444335937500000e-01
-3.000000000000000000e+00,-3.000000000000000000e+00,7.000000000000000000e+00,-2.000000000000000000e+00,-1.000000000000000000e+00,-2.000000000000000000e+00,-2.000000000000000000e+00,0.000000000000000000e+00,-1.326293945312500000e-01,4.435424804687500000e-01,-1.667480468750000000e-01,8.705444335937500000e-01
1.000000000000000000e+00,-1.000000000000000000e+00,-3.100000000000000000e+01,-2.000000000000000000e+01,-2.000000000000000000e+00,0.000000000000000000e+00,1.000000000000000000e+00,-3.000000000000000000e+00,-1.326293945312500000e-01,4.435424804687500000e-01,-1.667480468750000000e-01,8.705444335937500000e-01
-2.000000000000000000e+00,-1.000000000000000000e+00,1.700000000000000000e+01,3.300000000000000000e+01,-1.000000000000000000e+00,0.000000000000000000e+00,-3.000000000000000000e+00,0.000000000000000000e+00,-1.326293945312500000e-01,4.435424804687500000e-01,-1.667480468750000000e-01,8.705444335937500000e-01
1.000000000000000000e+00,4.000000000000000000e+00,7.000000000000000000e+00,-1.200000000000000000e+01,4.000000000000000000e+00,-1.000000000000000000e+00,-1.000000000000000000e+00,2.000000000000000000e+00,-1.326904296875000000e-01,4.436035156250000000e-01,-1.667480468750000000e-01,8.704833984375000000e-01
-2.000000000000000000e+00,0.000000000000000000e+00,-2.700000000000000000e+01,-3.000000000000000000e+01,-5.000000000000000000e+00,-2.000000000000000000e+00,0.000000000000000000e+00,0.000000000000000000e+00,-1.326904296875000000e-01,4.436035156250000000e-01,-1.667480468750000000e-01,8.704833984375000000e-01
-2.000000000000000000e+00,0.000000000000000000e+00,0.000000000000000000e+00,3.000000000000000000e+00,0.000000000000000000e+00,1.000000000000000000e+00,1.000000000000000000e+00,0.000000000000000000e+00,-1.326904296875000000e-01,4.436035156250000000e-01,-1.667480468750000000e-01,8.704833984375000000e-01
-1.000000000000000000e+00,2.000000000000000000e+00,0.000000000000000000e+00,-1.800000000000000000e+01,-1.000000000000000000e+00,-1.000000000000000000e+00,0.000000000000000000e+00,-3.000000000000000000e+00,-1.326904296875000000e-01,4.436035156250000000e-01,-1.667480468750000000e-01,8.704833984375000000e-01
-5.000000000000000000e+00,-5.000000000000000000e+00,1.200000000000000000e+01,5.000000000000000000e+01,-2.000000000000000000e+00,-3.000000000000000000e+00,-5.000000000000000000e+00,-1.000000000000000000e+00,-1.321411132812500000e-01,4.437255859375000000e-01,-1.665039062500000000e-01,8.705444335937500000e-01
-4.000000000000000000e+00,-4.000000000000000000e+00,-1.000000000000000000e+00,-2.200000000000000000e+01,2.000000000000000000e+00,-1.000000000000000000e+00,-1.000000000000000000e+00,0.000000000000000000e+00,-1.321411132812500000e-01,4.437255859375000000e-01,-1.665039062500000000e-01,8.705444335937500000e-01
0.000000000000000000e+00,1.000000000000000000e+00,9.000000000000000000e+00,0.000000000000000000e+00,0.000000000000000000e+00,1.000000000000000000e+00,0.000000000000000000e+00,1.000000000000000000e+00,-1.321411132812500000e-01,4.437255859375000000e-01,-1.665039062500000000e-01,8.705444335937500000e-01
1.000000000000000000e+00,-2.000000000000000000e+00,-2.000000000000000000e+00,-1.500000000000000000e+01,-4.000000000000000000e+00,-1.000000000000000000e+00,2.000000000000000000e+00,-1.000000000000000000e+00,-1.321411132812500000e-01,4.437255859375000000e-01,-1.665039062500000000e-01,8.705444335937500000e-01
-1.000000000000000000e+00,-2.000000000000000000e+00,-2.000000000000000000e+00,1.400000000000000000e+01,-2.000000000000000000e+00,0.000000000000000000e+00,-1.000000000000000000e+00,-2.000000000000000000e+00,-1.319580078125000000e-01,4.433593750000000000e-01,-1.657104492187500000e-01,8.709106445312500000e-01
3.000000000000000000e+00,-1.000000000000000000e+00,-1.600000000000000000e+01,-2.900000000000000000e+01,-1.800000000000000000e+01,-7.000000000000000000e+00,-4.000000000000000000e+00,1.000000000000000000e+00,-1.319580078125000000e-01,4.433593750000000000e-01,-1.657104492187500000e-01,8.709106445312500000e-01
-5.000000000000000000e+00,-5.000000000000000000e+00,3.100000000000000000e+01,4.000000000000000000e+01,1.400000000000000000e+01,3.000000000000000000e+00,-1.000000000000000000e+00,-1.000000000000000000e+00,-1.319580078125000000e-01,4.433593750000000000e-01,-1.657104492187500000e-01,8.709106445312500000e-01
2.000000000000000000e+00,2.000000000000000000e+00,-2.000000000000000000e+01,-2.900000000000000000e+01,-7.000000000000000000e+00,-3.000000000000000000e+00,-1.000000000000000000e+00,2.000000000000000000e+00,-1.319580078125000000e-01,4.433593750000000000e-01,-1.657104492187500000e-01,8.709106445312500000e-01
-2.000000000000000000e+00,-3.000000000000000000e+00,-1.500000000000000000e+01,-9.000000000000000000e+00,1.000000000000000000e+00,-2.000000000000000000e+00,1.000000000000000000e+00,-1.000000000000000000e+00,-1.318359375000000000e-01,4.433593750000000000e-01,-1.651611328125000000e-01,8.710327148437500000e-01
0.000000000000000000e+00,-2.000000000000000000e+00,7.000000000000000000e+00,1.100000000000000000e+01,-3.000000000000000000e+00,0.000000000000000000e+00,-1.000000000000000000e+00,0.000000000000000000e+00,-1.318359375000000000e-01,4.433593750000000000e-01,-1.651611328125000000e-01,8.710327148437500000e-01
0.000000000000000000e+00,-3.000000000000000000e+00,1.000000000000000000e+00,-5.000000000000000000e+00,-5.000000000000000000e+00,-1.000000000000000000e+00,-2.000000000000000000e+00,-1.000000000000000000e+00,-1.318359375000000000e-01,4.433593750000000000e-01,-1.651611328125000000e-01,8.710327148437500000e-01
-4.000000000000000000e+00,-7.000000000000000000e+00,-1.000000000000000000e+00,-1.500000000000000000e+01,-6.000000000000000000e+00,-4.000000000000000000e+00,-3.000000000000000000e+00,-3.000000000000000000e+00,-1.318359375000000000e-01,4.433593750000000000e-01,-1.651611328125000000e-01,8.710327148437500000e-01
1.000000000000000000e+00,2.000000000000000000e+00,-4.000000000000000000e+00,2.100000000000000000e+01,2.000000000000000000e+00,0.000000000000000000e+00,0.000000000000000000e+00,-2.000000000000000000e+00,-1.306762695312500000e-01,4.435424804687500000e-01,-1.648559570312500000e-01,8.712158203125000000e-01
-1.000000000000000000e+00,0.000000000000000000e+00,-1.500000000000000000e+01,-4.700000000000000000e+01,1.000000000000000000e+00,2.000000000000000000e+00,0.000000000000000000e+00,-2.000000000000000000e+00,-1.306762695312500000e-01,4.435424804687500000e-01,-1.648559570312500000e-01,8.712158203125000000e-01
3.000000000000000000e+00,5.000000000000000000e+00,2.400000000000000000e+01,-2.000000000000000000e+00,-9.000000000000000000e+00,-3.000000000000000000e+00,1.000000000000000000e+00,1.000000000000000000e+00,-1.306762695312500000e-01,4.435424804687500000e-01,-1.648559570312500000e-01,8.712158203125000000e-01
-3.000000000000000000e+00,-2.000000000000000000e+00,3.000000000000000000e+00,1.200000000000000000e+01,3.000000000000000000e+00,-1.000000000000000000e+00,0.000000000000000000e+00,1.000000000000000000e+00,-1.306762695312500000e-01,4.435424804687500000e-01,-1.648559570312500000e-01,8.712158203125000000e-01
1.000000000000000000e+00,-1.000000000000000000e+00,-4.000000000000000000e+00,-4.000000000000000000e+00,-3.000000000000000000e+00,-2.000000000000000000e+00,-1.000000000000000000e+00,2.000000000000000000e+00,-1.305541992187500000e-01,4.439697265625000000e-01,-1.635131835937500000e-01,8.712158203125000000e-01
-2.000000000000000000e+00,-3.000000000000000000e+00,2.000000000000000000e+00,2.800000000000000000e+01,8.000000000000000000e+00,2.000000000000000000e+00,-1.000000000000000000e+00,-4.000000000000000000e+00,-1.305541992187500000e-01,4.439697265625000000e-01,-1.635131835937500000e-01,8.712158203125000000e-01
1.000000000000000000e+00,4.000000000000000000e+00,-3.000000000000000000e+00,-7.000000000000000000e+00,1.000000000000000000e+00,0.000000000000000000e+00,-2.000000000000000000e+00,-1.000000000000000000e+00,-1.305541992187500000e-01,4.439697265625000000e-01,-1.635131835937500000e-01,8.712158203125000000e-01
-2.000000000000000000e+00,2.000000000000000000e+00,2.000000000000000000e+01,-1.700000000000000000e+01,-1.100000000000000000e+01,-1.000000000000000000e+00,-2.000000000000000000e+00,-1.000000000000000000e+00,-1.305541992187500000e-01,4.439697265625000000e-01,-1.635131835937500000e-01,8.712158203125000000e-01
-1.000000000000000000e+00,-8.000000000000000000e+00,-6.600000000000000000e+01,-5.000000000000000000e+00,0.000000000000000000e+00,3.000000000000000000e+00,1.000000000000000000e+00,-2.000000000000000000e+00,-1.307983398437500000e-01,4.439697265625000000e-01,-1.625976562500000000e-01,8.713989257812500000e-01
3.000000000000000000e+00,1.000000000000000000e+00,3.500000000000000000e+01,1.900000000000000000e+01,1.600000000000000000e+01,0.000000000000000000e+00,0.000000000000000000e+00,-1.000000000000000000e+00,-1.307983398437500000e-01,4.439697265625000000e-01,-1.625976562500000000e-01,8.713989257812500000e-01
-2.000000000000000000e+00,-2.000000000000000000e+00,-1.000000000000000000e+00,3.400000000000000000e+01,0.000000000000000000e+00,-2.000000000000000000e+00,-2.000000000000000000e+00,-2.000000000000000000e+00,-1.307983398437500000e-01,4.439697265625000000e-01,-1.625976562500000000e-01,8.713989257812500000e-01
0.000000000000000000e+00,4.000000000000000000e+00,1.100000000000000000e+01,-4.600000000000000000e+01,-4.000000000000000000e+00,-4.000000000000000000e+00,-3.000000000000000000e+00,-2.000000000000000000e+00,-1.307983398437500000e-01,4.439697265625000000e-01,-1.625976562500000000e-01,8.713989257812500000e-01
-3.000000000000000000e+00,0.000000000000000000e+00,4.000000000000000000e+00,-1.100000000000000000e+01,-3.000000000000000000e+00,-2.000000000000000000e+00,-1.000000000000000000e+00,0.000000000000000000e+00,-1.312255859375000000e-01,4.437255859375000000e-01,-1.621093750000000000e-01,8.715209960937500000e-01
0.000000000000000000e+00,-2.000000000000000000e+00,-1.000000000000000000e+00,5.000000000000000000e+00,-2.000000000000000000e+00,-3.000000000000000000e+00,-3.000000000000000000e+00,0.000000000000000000e+00,-1.312255859375000000e-01,4.437255859375000000e-01,-1.621093750000000000e-01,8.715209960937500000e-01
-1.000000000000000000e+00,-3.000000000000000000e+00,-5.000000000000000000e+00,1.200000000000000000e+01,2.000000000000000000e+00,0.000000000000000000e+00,0.000000000000000000e+00,-1.000000000000000000e+00,-1.312255859375000000e-01,4.437255859375000000e-01,-1.621093750000000000e-01,8.715209960937500000e-01
-2.000000000000000000e+00,-2.000000000000000000e+00,2.000000000000000000e+00,7.000000000000000000e+00,-1.000000000000000000e+00,-2.000000000000000000e+00,-2.000000000000000000e+00,-2.000000000000000000e+00,-1.312255859375000000e-01,4.437255859375000000e-01,-1.621093750000000000e-01,8.715209960937500000e-01
-2.000000000000000000e+00,2.000000000000000000e+00,5.000000000000000000e+00,-1.500000000000000000e+01,-2.000000000000000000e+00,-1.000000000000000000e+00,-2.000000000000000000e+00,-1.000000000000000000e+00,-1.308593750000000000e-01,4.433593750000000000e-01,-1.621704101562500000e-01,8.717651367187500000e-01
-1.000000000000000000e+00,0.000000000000000000e+00,2.000000000000000000e+00,2.000000000000000000e+00,-3.000000000000000000e+00,-2.000000000000000000e+00,1.000000000000000000e+00,1.000000000000000000e+00,-1.308593750000000000e-01,4.433593750000000000e-01,-1.621704101562500000e-01,8.717651367187500000e-01
-2.000000000000000000e+00,-3.000000000000000000e+00,-4.000000000000000000e+00,0.000000000000000000e+00,0.000000000000000000e+00,-1.000000000000000000e+00,1.000000000000000000e+00,-1.000000000000000000e+00,-1.308593750000000000e-01,4.433593750000000000e-01,-1.621704101562500000e-01,8.717651367187500000e-01
-2.000000000000000000e+00,4.000000000000000000e+00,0.000000000000000000e+00,2.000000000000000000e+01,2.000000000000000000e+00,4.000000000000000000e+00,0.000000000000000000e+00,-2.000000000000000000e+00,-1.308593750000000000e-01,4.433593750000000000e-01,-1.621704101562500000e-01,8.717651367187500000e-01
2.000000000000000000e+00,3.000000000000000000e+00,4.000000000000000000e+00,2.900000000000000000e+01,0.000000000000000000e+00,-7.000000000000000000e+00,-2.000000000000000000e+00,0.000000000000000000e+00,-1.295776367187500000e-01,4.428710937500000000e-01,-1.623535156250000000e-01,8.721923828125000000e-01
-2.000000000000000000e+00,-2.000000000000000000e+00,-4.000000000000000000e+00,-1.700000000000000000e+01,-9.000000000000000000e+00,-4.000000000000000000e+00,-1.000000000000000000e+00,1.000000000000000000e+00,-1.295776367187500000e-01,4.428710937500000000e-01,-1.623535156250000000e-01,8.721923828125000000e-01
-5.000000000000000000e+00,-8.000000000000000000e+00,6.000000000000000000e+00,-5.000000000000000000e+00,6.000000000000000000e+00,3.000000000000000000e+00,0.000000000000000000e+00,1.000000000000000000e+00,-1.295776367187500000e-01,4.428710937500000000e-01,-1.623535156250000000e-01,8.721923828125000000e-01
-1.000000000000000000e+00,-4.000000000000000000e+00,-1.200000000000000000e+01,-1.000000000000000000e+00,0.000000000000000000e+00,-3.000000000000000000e+00,-2.000000000000000000e+00,-2.000000000000000000e+00,-1.295776367187500000e-01,4.428710937500000000e-01,-1.623535156250000000e-01,8.721923828125000000e-01
-1.000000000000000000e+00,2.000000000000000000e+00,1.000000000000000000e+01,-5.000000000000000000e+00,6.000000000000000000e+00,6.000000000000000000e+00,1.000000000000000000e+00,0.000000000000000000e+00,-1.289062500000000000e-01,4.426269531250000000e-01,-1.618652343750000000e-01,8.724365234375000000e-01
-3.000000000000000000e+00,-4.000000000000000000e+00,-2.000000000000000000e+00,3.200000000000000000e+01,-1.000000000000000000e+00,1.000000000000000000e+00,-2.000000000000000000e+00,-4.000000000000000000e+00,-1.289062500000000000e-01,4.426269531250000000e-01,-1.618652343750000000e-01,8.724365234375000000e-01
2.000000000000000000e+00,3.000000000000000000e+00,-1.300000000000000000e+01,-2.700000000000000000e+01,-3.000000000000000000e+00,-4.000000000000000000e+00,-2.000000000000000000e+00,0.000000000000000000e+00,-1.289062500000000000e-01,4.426269531250000000e-01,-1.618652343750000000e-01,8.724365234375000000e-01
-1.000000000000000000e+00,-7.000000000000000000e+00,-1.400000000000000000e+01,8.000000000000000000e+00,-1.000000000000000000e+00,-1.000000000000000000e+00,0.000000000000000000e+00,-1.000000000000000000e+00,-1.289062500000000000e-01,4.426269531250000000e-01,-1.618652343750000000e-01,8.724365234375000000e-01
1.000000000000000000e+00,4.000000000000000000e+00,4.000000000000000000e+01,-6.000000000000000000e+00,-6.000000000000000000e+00,-1.000000000000000000e+00,1.000000000000000000e+00,2.000000000000000000e+00,-1.296386718750000000e-01,4.426879882812500000e-01,-1.615600585937500000e-01,8.723754882812500000e-01
-2.000000000000000000e+00,-7.000000000000000000e+00,-2.500000000000000000e+01,1.000000000000000000e+01,1.000000000000000000e+00,-1.000000000000000000e+00,-2.000000000000000000e+00,0.000000000000000000e+00,-1.296386718750000000e-01,4.426879882812500000e-01,-1.615600585937500000e-01,8.723754882812500000e-01
0.000000000000000000e+00,1.000000000000000000e+00,-4.000000000000000000e+00,-2.800000000000000000e+01,-5.000000000000000000e+00,2.000000000000000000e+00,1.000000000000000000e+00,1.000000000000000000e+00,-1.296386718750000000e-01,4.426879882812500000e-01,-1.615600585937500000e-01,8.723754882812500000e-01
1.000000000000000000e+00,0.000000000000000000e+00,-8.000000000000000000e+00,1.200000000000000000e+01,2.000000000000000000e+00,-2.000000000000000000e+00,0.000000000000000000e+00,0.000000000000000000e+00,-1.296386718750000000e-01,4.426879882812500000e-01,-1.615600585937500000e-01,8.723754882812500000e-01
-3.000000000000000000e+00,-4.000000000000000000e+00,8.000000000000000000e+00,-2.200000000000000000e+01,-1.000000000000000000e+01,-6.000000000000000000e+00,-2.000000000000000000e+00,-6.000000000000000000e+00,-1.303100585937500000e-01,4.426879882812500000e-01,-1.614990234375000000e-01,8.723144531250000000e-01
-2.000000000000000000e+00,4.000000000000000000e+00,0.000000000000000000e+00,2.300000000000000000e+01,0.000000000000000000e+00,2.000000000000000000e+00,0.000000000000000000e+00,-1.000000000000000000e+00,-1.303100585937500000e-01,4.426879882812500000e-01,-1.614990234375000000e-01,8.723144531250000000e-01
1.000000000000000000e+00,0.000000000000000000e+00,2.100000000000000000e+01,1.700000000000000000e+01,1.100000000000000000e+01,3.000000000000000000e+00,-1.000000000000000000e+00,0.000000000000000000e+00,-1.303100585937500000e-01,4.426879882812500000e-01,-1.614990234375000000e-01,8.723144531250000000e-01
-4.000000000000000000e+00,-5.000000000000000000e+00,-2.800000000000000000e+01,-3.200000000000000000e+01,-1.000000000000000000e+00,-1.000000000000000000e+00,-3.000000000000000000e+00,-4.000000000000000000e+00,-1.303100585937500000e-01,4.426879882812500000e-01,-1.614990234375000000e-01,8.723144531250000000e-01
1.000000000000000000e+00,1.000000000000000000e+00,4.000000000000000000e+00,-2.300000000000000000e+01,-3.000000000000000000e+00,-2.000000000000000000e+00,-3.000000000000000000e+00,0.000000000000000000e+00,-1.311035156250000000e-01,4.428710937500000000e-01,-1.622314453125000000e-01,8.719482421875000000e-01
-1.000000000000000000e+00,0.000000000000000000e+00,-8.000000000000000000e+00,-1.100000000000000000e+01,-3.000000000000000000e+00,-5.000000000000000000e+00,-2.000000000000000000e+00,-1.000000000000000000e+00,-1.311035156250000000e-01,4.428710937500000000e-01,-1.622314453125000000e-01,8.719482421875000000e-01
0.000000000000000000e+00,-3.000000000000000000e+00,-1.100000000000000000e+01,-4.000000000000000000e+00,-4.000000000000000000e+00,-3.000000000000000000e+00,-1.000000000000000000e+00,0.000000000000000000e+00,-1.311035156250000000e-01,4.428710937500000000e-01,-1.622314453125000000e-01,8.719482421875000000e-01
0.000000000000000000e+00,2.000000000000000000e+00,2.000000000000000000e+01,2.500000000000000000e+01,1.000000000000000000e+00,-1.000000000000000000e+00,0.000000000000000000e+00,2.000000000000000000e+00,-1.311035156250000000e-01,4.428710937500000000e-01,-1.622314453125000000e-01,8.719482421875000000e-01
-1.000000000000000000e+00,0.000000000000000000e+00,-2.000000000000000000e+00,-2.000000000000000000e+00,-3.000000000000000000e+00,-1.000000000000000000e+00,-1.000000000000000000e+00,-1.000000000000000000e+00,-1.309814453125000000e-01,4.428710937500000000e-01,-1.632690429687500000e-01,8.717651367187500000e-01
-7.000000000000000000e+00,-1.100000000000000000e+01,-3.400000000000000000e+01,-1.600000000000000000e+01,2.000000000000000000e+00,0.000000000000000000e+00,-3.000000000000000000e+00,-2.000000000000000000e+00,-1.309814453125000000e-01,4.428710937500000000e-01,-1.632690429687500000e-01,8.717651367187500000e-01
-3.000000000000000000e+00,-3.000000000000000000e+00,-2.300000000000000000e+01,-1.600000000000000000e+01,-2.000000000000000000e+00,1.000000000000000000e+00,0.000000000000000000e+00,0.000000000000000000e+00,-1.309814453125000000e-01,4.428710937500000000e-01,-1.632690429687500000e-01,8.717651367187500000e-01
0.000000000000000000e+00,2.000000000000000000e+00,2.000000000000000000e+01,3.000000000000000000e+01,-1.000000000000000000e+00,-4.000000000000000000e+00,-1.000000000000000000e+00,-1.000000000000000000e+00,-1.309814453125000000e-01,4.428710937500000000e-01,-1.632690429687500000e-01,8.717651367187500000e-01
1.000000000000000000e+00,0.000000000000000000e+00,1.000000000000000000e+00,9.000000000000000000e+00,4.000000000000000000e+00,0.000000000000000000e+00,-1.000000000000000000e+00,-1.000000000000000000e+00,-1.313476562500000000e-01,4.431152343750000000e-01,-1.640014648437500000e-01,8.714599609375000000e-01
1.000000000000000000e+00,1.000000000000000000e+00,1.600000000000000000e+01,3.000000000000000000e+00,-4.000000000000000000e+00,-3.000000000000000000e+00,0.000000000000000000e+00,1.000000000000000000e+00,-1.313476562500000000e-01,4.431152343750000000e-01,-1.640014648437500000e-01,8.714599609375000000e-01
0.000000000000000000e+00,-5.000000000000000000e+00,3.000000000000000000e+00,8.000000000000000000e+00,2.000000000000000000e+00,0.000000000000000000e+00,0.000000000000000000e+00,-1.000000000000000000e+00,-1.313476562500000000e-01,4.431152343750000000e-01,-1.640014648437500000e-01,8.714599609375000000e-01
2.000000000000000000e+00,1.200000000000000000e+01,9.000000000000000000e+00,2.000000000000000000e+00,4.000000000000000000e+00,0.000000000000000000e+00,-3.000000000000000000e+00,1.000000000000000000e+00,-1.313476562500000000e-01,4.431152343750000000e-01,-1.640014648437500000e-01,8.714599609375000000e-01
-1.000000000000000000e+00,-5.000000000000000000e+00,-2.200000000000000000e+01,-4.200000000000000000e+01,-1.100000000000000000e+01,-1.000000000000000000e+00,-1.000000000000000000e+00,-2.000000000000000000e+00,-1.318359375000000000e-01,4.434204101562500000e-01,-1.642456054687500000e-01,8.711547851562500000e-01
1.000000000000000000e+00,5.000000000000000000e+00,1.400000000000000000e+01,4.300000000000000000e+01,0.000000000000000000e+00,4.000000000000000000e+00,0.000000000000000000e+00,-1.000000000000000000e+00,-1.318359375000000000e-01,4.434204101562500000e-01,-1.642456054687500000e-01,8.711547851562500000e-01
0.000000000000000000e+00,0.000000000000000000e+00,6.000000000000000000e+00,-1.100000000000000000e+01,1.000000000000000000e+00,0.000000000000000000e+00,-3.000000000000000000e+00,-2.000000000000000000e+00,-1.318359375000000000e-01,4.434204101562500000e-01,-1.642456054687500000e-01,8.711547851562500000e-01
2.000000000000000000e+00,0.000000000000000000e+00,3.000000000000000000e+00,0.000000000000000000e+00,-2.000000000000000000e+00,-1.000000000000000000e+00,1.000000000000000000e+00,0.000000000000000000e+00,-1.318359375000000000e-01,4.434204101562500000e-01,-1.642456054687500000e-01,8.711547851562500000e-01
-3.000000000000000000e+00,-4.000000000000000000e+00,-6.000000000000000000e+00,1.400000000000000000e+01,3.000000000000000000e+00,-2.000000000000000000e+00,0.000000000000000000e+00,-1.000000000000000000e+00,-1.323852539062500000e-01,4.437255859375000000e-01,-1.641845703125000000e-01,8.709716796875000000e-01
-1.000000000000000000e+00,-1.000000000000000000e+00,2.000000000000000000e+00,-1.800000000000000000e+01,-8.000000000000000000e+00,-2.000000000000000000e+00,-1.000000000000000000e+00,-3.000000000000000000e+00,-1.323852539062500000e-01,4.437255859375000000e-01,-1.641845703125000000e-01,8.709716796875000000e-01
0.000000000000000000e+00,4.000000000000000000e+00,6.000000000000000000e+00,-1.900000000000000000e+01,-7.000000000000000000e+00,-4.000000000000000000e+00,-1.000000000000000000e+00,0.000000000000000000e+00,-1.323852539062500000e-01,4.437255859375000000e-01,-1.641845703125000000e-01,8.709716796875000000e-01
-3.000000000000000000e+00,-4.000000000000000000e+00,-1.200000000000000000e+01,2.000000000000000000e+01,-3.000000000000000000e+00,-1.000000000000000000e+00,0.000000000000000000e+00,-1.000000000000000000e+00,-1.323852539062500000e-01,4.437255859375000000e-01,-1.641845703125000000e-01,8.709716796875000000e-01
-1.000000000000000000e+00,-3.000000000000000000e+00,-2.400000000000000000e+01,1.200000000000000000e+01,7.000000000000000000e+00,2.000000000000000000e+00,0.000000000000000000e+00,-4.000000000000000000e+00,-1.328125000000000000e-01,4.438476562500000000e-01,-1.640625000000000000e-01,8.708496093750000000e-01
-2.000000000000000000e+00,1.000000000000000000e+00,-5.000000000000000000e+00,-1.100000000000000000e+01,1.000000000000000000e+00,2.000000000000000000e+00,0.000000000000000000e+00,-1.000000000000000000e+00,-1.328125000000000000e-01,4.438476562500000000e-01,-1.640625000000000000e-01,8.708496093750000000e-01
-2.000000000000000000e+00,-1.000000000000000000e+00,1.000000000000000000e+01,-1.900000000000000000e+01,-1.000000000000000000e+01,-9.000000000000000000e+00,-4.000000000000000000e+00,-1.000000000000000000e+00,-1.328125000000000000e-01,4.438476562500000000e-01,-1.640625000000000000e-01,8.708496093750000000e-01
-3.000000000000000000e+00,-6.000000000000000000e+00,-2.100000000000000000e+01,8.000000000000000000e+00,1.000000000000000000e+00,1.000000000000000000e+00,1.000000000000000000e+00,-1.000000000000000000e+00,-1.328125000000000000e-01,4.438476562500000000e-01,-1.640625000000000000e-01,8.708496093750000000e-01
0.000000000000000000e+00,-3.000000000000000000e+00,-1.000000000000000000e+00,-1.500000000000000000e+01,-1.100000000000000000e+01,-6.000000000000000000e+00,-1.000000000000000000e+00,-1.000000000000000000e+00,-1.328735351562500000e-01,4.438476562500000000e-01,-1.640625000000000000e-01,8.708496093750000000e-01
3.000000000000000000e+00,2.000000000000000000e+00,1.000000000000000000e+01,7.000000000000000000e+00,4.000000000000000000e+00,2.000000000000000000e+00,-2.000000000000000000e+00,2.000000000000000000e+00,-1.328735351562500000e-01,4.438476562500000000e-01,-1.640625000000000000e-01,8.708496093750000000e-01
-1.000000000000000000e+00,3.000000000000000000e+00,-7.000000000000000000e+00,2.100000000000000000e+01,4.000000000000000000e+00,-1.000000000000000000e+00,-1.000000000000000000e+00,0.000000000000000000e+00,-1.328735351562500000e-01,4.438476562500000000e-01,-1.640625000000000000e-01,8.708496093750000000e-01
-2.000000000000000000e+00,-5.000000000000000000e+00,5.000000000000000000e+00,-1.900000000000000000e+01,-8.000000000000000000e+00,0.000000000000000000e+00,0.000000000000000000e+00,-1.000000000000000000e+00,-1.328735351562500000e-01,4.438476562500000000e-01,-1.640625000000000000e-01,8.708496093750000000e-01
-2.000000000000000000e+00,-1.000000000000000000e+00,7.000000000000000000e+00,1.200000000000000000e+01,4.000000000000000000e+00,0.000000000000000000e+00,0.000000000000000000e+00,-1.000000000000000000e+00,-1.328735351562500000e-01,4.442138671875000000e-01,-1.637573242187500000e-01,8.707275390625000000e-01
-3.000000000000000000e+00,-2.000000000000000000e+00,1.700000000000000000e+01,-9.000000000000000000e+00,-2.000000000000000000e+00,-2.000000000000000000e+00,-3.000000000000000000e+00,-3.000000000000000000e+00,-1.328735351562500000e-01,4.442138671875000000e-01,-1.637573242187500000e-01,8.707275390625000000e-01
-3.000000000000000000e+00,-5.000000000000000000e+00,5.000000000000000000e+00,3.600000000000000000e+01,0.000000000000000000e+00,2.000000000000000000e+00,0.000000000000000000e+00,-4.000000000000000000e+00,-1.328735351562500000e-01,4.442138671875000000e-01,-1.637573242187500000e-01,8.707275390625000000e-01
1.000000000000000000e+00,-2.000000000000000000e+00,3.000000000000000000e+00,-5.300000000000000000e+01,-4.000000000000000000e+00,-4.000000000000000000e+00,-2.000000000000000000e+00,-2.000000000000000000e+00,-1.328735351562500000e-01,4.442138671875000000e-01,-1.637573242187500000e-01,8.707275390625000000e-01
1.000000000000000000e+00,3.000000000000000000e+00,6.000000000000000000e+00,3.500000000000000000e+01,1.300000000000000000e+01,8.000000000000000000e+00,3.000000000000000000e+00,1.000000000000000000e+00,-1.332397460937500000e-01,4.445190429687500000e-01,-1.632690429687500000e-01,8.706054687500000000e-01
-1.000000000000000000e+00,1.000000000000000000e+00,7.000000000000000000e+00,7.000000000000000000e+00,-7.000000000000000000e+00,-9.000000000000000000e+00,0.000000000000000000e+00,1.000000000000000000e+00,-1.332397460937500000e-01,4.445190429687500000e-01,-1.632690429687500000e-01,8.706054687500000000e-01
-3.000000000000000000e+00,-8.000000000000000000e+00,-6.000000000000000000e+00,-3.600000000000000000e+01,-1.000000000000000000e+01,-2.000000000000000000e+00,-1.000000000000000000e+00,-1.000000000000000000e+00,-1.332397460937500000e-01,4.445190429687500000e-01,-1.632690429687500000e-01,8.706054687500000000e-01
1.000000000000000000e+00,-1.000000000000000000e+00,-2.100000000000000000e+01,6.000000000000000000e+00,1.000000000000000000e+01,1.000000000000000000e+00,0.000000000000000000e+00,0.000000000000000000e+00,-1.332397460937500000e-01,4.445190429687500000e-01,-1.632690429687500000e-01,8.706054687500000000e-01
1.000000000000000000e+00,-2.000000000000000000e+00,2.200000000000000000e+01,8.000000000000000000e+00,3.000000000000000000e+00,-2.000000000000000000e+00,-3.000000000000000000e+00,-1.000000000000000000e+00,-1.338500976562500000e-01,4.447631835937500000e-01,-1.629028320312500000e-01,8.704223632812500000e-01
1.000000000000000000e+00,1.000000000000000000e+00,-9.000000000000000000e+00,-1.100000000000000000e+01,-6.000000000000000000e+00,1.000000000000000000e+00,2.000000000000000000e+00,2.000000000000000000e+00,-1.338500976562500000e-01,4.447631835937500000e-01,-1.629028320312500000e-01,8.704223632812500000e-01
-4.000000000000000000e+00,-1.000000000000000000e+00,-2.900000000000000000e+01,-3.000000000000000000e+00,5.000000000000000000e+00,2.000000000000000000e+00,-1.000000000000000000e+00,-3.000000000000000000e+00,-1.338500976562500000e-01,4.447631835937500000e-01,-1.629028320312500000e-01,8.704223632812500000e-01
2.000000000000000000e+00,3.000000000000000000e+00,1.500000000000000000e+01,9.000000000000000000e+00,-2.000000000000000000e+00,0.000000000000000000e+00,-1.000000000000000000e+00,-1.000000000000000000e+00,-1.338500976562500000e-01,4.447631835937500000e-01,-1.629028320312500000e-01,8.704223632812500000e-01
-1.000000000000000000e+00,4.000000000000000000e+00,-6.000000000000000000e+00,-2.900000000000000000e+01,-3.000000000000000000e+00,-4.000000000000000000e+00,-1.000000000000000000e+00,0.000000000000000000e+00,-1.346435546875000000e-01,4.448852539062500000e-01,-1.628417968750000000e-01,8.703002929687500000e-01
-5.000000000000000000e+00,-9.000000000000000000e+00,-1.700000000000000000e+01,-2.000000000000000000e+00,2.000000000000000000e+00,0.000000000000000000e+00,-3.000000000000000000e+00,-3.000000000000000000e+00,-1.346435546875000000e-01,4.448852539062500000e-01,-1.628417968750000000e-01,8.703002929687500000e-01
-2.000000000000000000e+00,-2.000000000000000000e+00,1.100000000000000000e+01,3.600000000000000000e+01,0.000000000000000000e+00,-3.000000000000000000e+00,-2.000000000000000000e+00,-1.000000000000000000e+00,-1.346435546875000000e-01,4.448852539062500000e-01,-1.628417968750000000e-01,8.703002929687500000e-01
1.000000000000000000e+00,1.000000000000000000e+00,-1.000000000000000000e+00,-2.600000000000000000e+01,-1.000000000000000000e+01,-1.000000000000000000e+00,0.000000000000000000e+00,0.000000000000000000e+00,-1.346435546875000000e-01,4.448852539062500000e-01,-1.628417968750000000e-01,8.703002929687500000e-01
0.000000000000000000e+00,0.000000000000000000e+00,-8.000000000000000000e+00,-4.000000000000000000e+00,0.000000000000000000e+00,-2.000000000000000000e+00,0.000000000000000000e+00,-1.000000000000000000e+00,-1.349487304687500000e-01,4.450073242187500000e-01,-1.633911132812500000e-01,8.700561523437500000e-01
1.000000000000000000e+00,3.000000000000000000e+00,1.200000000000000000e+01,1.000000000000000000e+01,3.000000000000000000e+00,2.000000000000000000e+00,1.000000000000000000e+00,-1.000000000000000000e+00,-1.349487304687500000e-01,4.450073242187500000e-01,-1.633911132812500000e-01,8.700561523437500000e-01
0.000000000000000000e+00,-1.000000000000000000e+00,-4.000000000000000000e+00,-1.600000000000000000e+01,-1.000000000000000000e+01,-2.000000000000000000e+00,-2.000000000000000000e+00,-3.000000000000000000e+00,-1.349487304687500000e-01,4.450073242187500000e-01,-1.633911132812500000e-01,8.700561523437500000e-01
-3.000000000000000000e+00,-2.000000000000000000e+00,-7.000000000000000000e+00,-5.000000000000000000e+00,2.000000000000000000e+00,-3.000000000000000000e+00,-5.000000000000000000e+00,-3.000000000000000000e+00,-1.349487304687500000e-01,4.450073242187500000e-01,-1.633911132812500000e-01,8.700561523437500000e-01
-2.000000000000000000e+00,-3.000000000000000000e+00,-8.000000000000000000e+00,-8.000000000000000000e+00,0.000000000000000000e+00,2.000000000000000000e+00,1.000000000000000000e+00,3.000000000000000000e+00,-1.347656250000000000e-01,4.451293945312500000e-01,-1.639404296875000000e-01,8.699340820312500000e-01
-1.000000000000000000e+00,-2.000000000000000000e+00,-2.000000000000000000e+00,8.000000000000000000e+00,2.000000000000000000e+00,-2.000000000000000000e+00,-1.000000000000000000e+00,-2.000000000000000000e+00,-1.347656250000000000e-01,4.451293945312500000e-01,-1.639404296875000000e-01,8.699340820312500000e-01
1.000000000000000000e+00,2.000000000000000000e+00,1.100000000000000000e+01,1.700000000000000000e+01,4.000000000000000000e+00,-1.000000000000000000e+00,1.000000000000000000e+00,0.000000000000000000e+00,-1.347656250000000000e-01,4.451293945312500000e-01,-1.639404296875000000e-01,8.699340820312500000e-01
-4.000000000000000000e+00,0.000000000000000000e+00,2.900000000000000000e+01,1.800000000000000000e+01,-8.000000000000000000e+00,-9.000000000000000000e+00,-2.000000000000000000e+00,-2.000000000000000000e+00,-1.347656250000000000e-01,4.451293945312500000e-01,-1.639404296875000000e-01,8.699340820312500000e-01
-2.000000000000000000e+00,-7.000000000000000000e+00,-1.600000000000000000e+01,3.000000000000000000e+00,-3.000000000000000000e+00,-1.000000000000000000e+00,-2.000000000000000000e+00,-3.000000000000000000e+00,-1.351928710937500000e-01,4.451904296875000000e-01,-1.640625000000000000e-01,8.698120117187500000e-01
-2.000000000000000000e+00,-2.000000000000000000e+00,-6.000000000000000000e+00,6.000000000000000000e+00,5.000000000000000000e+00,0.000000000000000000e+00,-1.000000000000000000e+00,-2.000000000000000000e+00,-1.351928710937500000e-01,4.451904296875000000e-01,-1.640625000000000000e-01,8.698120117187500000e-01
2.000000000000000000e+00,2.000000000000000000e+00,-1.000000000000000000e+00,-3.700000000000000000e+01,-8.000000000000000000e+00,-3.000000000000000000e+00,0.000000000000000000e+00,2.000000000000000000e+00,-1.351928710937500000e-01,4.451904296875000000e-01,-1.640625000000000000e-01,8.698120117187500000e-01
0.000000000000000000e+00,0.000000000000000000e+00,3.000000000000000000e+00,-3.000000000000000000e+00,0.000000000000000000e+00,3.000000000000000000e+00,3.000000000000000000e+00,-1.000000000000000000e+00,-1.351928710937500000e-01,4.451904296875000000e-01,-1.640625000000000000e-01,8.698120117187500000e-01
-4.000000000000000000e+00,-3.000000000000000000e+00,1.500000000000000000e+01,1.600000000000000000e+01,3.000000000000000000e+00,4.000000000000000000e+00,-2.000000000000000000e+00,-3.000000000000000000e+00,-1.362915039062500000e-01,4.450683593750000000e-01,-1.640625000000000000e-01,8.696899414062500000e-01
0.000000000000000000e+00,-1.000000000000000000e+00,-1.300000000000000000e+01,-3.800000000000000000e+01,-3.000000000000000000e+00,-1.000000000000000000e+00,0.000000000000000000e+00,3.000000000000000000e+00,-1.362915039062500000e-01,4.450683593750000000e-01,-1.640625000000000000e-01,8.696899414062500000e-01
0.000000000000000000e+00,-2.000000000000000000e+00,-4.000000000000000000e+00,2.100000000000000000e+01,1.000000000000000000e+00,-3.000000000000000000e+00,-4.000000000000000000e+00,-4.000000000000000000e+00,-1.362915039062500000e-01,4.450683593750000000e-01,-1.640625000000000000e-01,8.696899414062500000e-01
1.000000000000000000e+00,0.000000000000000000e+00,5.000000000000000000e+00,1.000000000000000000e+01,5.000000000000000000e+00,3.000000000000000000e+00,1.000000000000000000e+00,0.000000000000000000e+00,-1.362915039062500000e-01,4.450683593750000000e-01,-1.640625000000000000e-01,8.696899414062500000e-01
-3.000000000000000000e+00,-2.000000000000000000e+00,-1.800000000000000000e+01,-3.300000000000000000e+01,-1.000000000000000000e+01,-5.000000000000000000e+00,0.000000000000000000e+00,0.000000000000000000e+00,-1.370239257812500000e-01,4.448852539062500000e-01,-1.642456054687500000e-01,8.696289062500000000e-01
1.000000000000000000e+00,0.000000000000000000e+00,1.600000000000000000e+01,2.300000000000000000e+01,5.000000000000000000e+00,1.000000000000000000e+00,-1.000000000000000000e+00,-1.000000000000000000e+00,-1.370239257812500000e-01,4.448852539062500000e-01,-1.642456054687500000e-01,8.696289062500000000e-01
-1.000000000000000000e+00,-3.000000000000000000e+00,-1.300000000000000000e+01,-1.400000000000000000e+01,-5.000000000000000000e+00,-1.000000000000000000e+00,-1.000000000000000000e+00,0.000000000000000000e+00,-1.370239257812500000e-01,4.448852539062500000e-01,-1.642456054687500000e-01,8.696289062500000000e-01
0.000000000000000000e+00,1.000000000000000000e+00,-3.000000000000000000e+00,-4.000000000000000000e+00,-3.000000000000000000e+00,-1.000000000000000000e+00,0.000000000000000000e+00,1.000000000000000000e+00,-1.370239257812500000e-01,4.448852539062500000e-01,-1.642456054687500000e-01,8.696289062500000000e-01
-1.000000000000000000e+00,-2.000000000000000000e+00,-1.900000000000000000e+01,1.600000000000000000e+01,5.000000000000000000e+00,0.000000000000000000e+00,2.000000000000000000e+00,-2.000000000000000000e+00,-1.366577148437500000e-01,4.448242187500000000e-01,-1.648559570312500000e-01,8.696289062500000000e-01
-3.000000000000000000e+00,1.000000000000000000e+00,1.300000000000000000e+01,-1.200000000000000000e+01,-2.000000000000000000e+00,0.000000000000000000e+00,-2.000000000000000000e+00,-1.000000000000000000e+00,-1.366577148437500000e-01,4.448242187500000000e-01,-1.648559570312500000e-01,8.696289062500000000e-01
-1.000000000000000000e+00,-2.000000000000000000e+00,-2.300000000000000000e+01,6.000000000000000000e+00,-5.000000000000000000e+00,-1.000000000000000000e+00,-1.000000000000000000e+00,0.000000000000000000e+00,-1.366577148437500000e-01,4.448242187500000000e-01,-1.648559570312500000e-01,8.696289062500000000e-01
3.000000000000000000e+00,4.000000000000000000e+00,8.000000000000000000e+00,2.300000000000000000e+01,1.800000000000000000e+01,5.000000000000000000e+00,0.000000000000000000e+00,-2.000000000000000000e+00,-1.366577148437500000e-01,4.448242187500000000e-01,-1.648559570312500000e-01,8.696289062500000000e-01
-1.000000000000000000e+00,2.000000000000000000e+00,1.700000000000000000e+01,4.000000000000000000e+00,-2.000000000000000000e+00,1.000000000000000000e+00,-1.000000000000000000e+00,-2.000000000000000000e+00,-1.360473632812500000e-01,4.448852539062500000e-01,-1.650390625000000000e-01,8.696289062500000000e-01
-2.000000000000000000e+00,-1.000000000000000000e+00,-1.000000000000000000e+01,1.500000000000000000e+01,-1.000000000000000000e+00,0.000000000000000000e+00,1.000000000000000000e+00,-1.000000000000000000e+00,-1.360473632812500000e-01,4.448852539062500000e-01,-1.650390625000000000e-01,8.696289062500000000e-01
1.000000000000000000e+00,2.000000000000000000e+00,9.000000000000000000e+00,-1.300000000000000000e+01,-6.000000000000000000e+00,0.000000000000000000e+00,-2.000000000000000000e+00,1.000000000000000000e+00,-1.360473632812500000e-01,4.448852539062500000e-01,-1.650390625000000000e-01,8.696289062500000000e-01
-5.000000000000000000e+00,-5.000000000000000000e+00,-2.400000000000000000e+01,2.000000000000000000e+00,1.000000000000000000e+00,0.000000000000000000e+00,-2.000000000000000000e+00,0.000000000000000000e+00,-1.360473632812500000e-01,4.448852539062500000e-01,-1.650390625000000000e-01,8.696289062500000000e-01
2.000000000000000000e+00,5.000000000000000000e+00,1.900000000000000000e+01,1.900000000000000000e+01,-7.000000000000000000e+00,-9.000000000000000000e+00,-3.000000000000000000e+00,0.000000000000000000e+00,-1.361083984375000000e-01,4.447021484375000000e-01,-1.648559570312500000e-01,8.697509765625000000e-01
-2.000000000000000000e+00,-3.000000000000000000e+00,-2.000000000000000000e+00,-3.900000000000000000e+01,-8.000000000000000000e+00,-3.000000000000000000e+00,2.000000000000000000e+00,0.000000000000000000e+00,-1.361083984375000000e-01,4.447021484375000000e-01,-1.648559570312500000e-01,8.697509765625000000e-01
-2.000000000000000000e+00,-2.000000000000000000e+00,-9.000000000000000000e+00,1.000000000000000000e+01,3.000000000000000000e+00,0.000000000000000000e+00,-2.000000000000000000e+00,-1.000000000000000000e+00,-1.361083984375000000e-01,4.447021484375000000e-01,-1.648559570312500000e-01,8.697509765625000000e-01
-3.000000000000000000e+00,-7.000000000000000000e+00,6.000000000000000000e+00,-2.000000000000000000e+00,-8.000000000000000000e+00,-6.000000000000000000e+00,-4.000000000000000000e+00,-1.000000000000000000e+00,-1.361083984375000000e-01,4.447021484375000000e-01,-1.648559570312500000e-01,8.697509765625000000e-01
-2.000000000000000000e+00,-4.000000000000000000e+00,-7.000000000000000000e+00,-6.000000000000000000e+00,0.000000000000000000e+00,-3.000000000000000000e+00,-1.000000000000000000e+00,0.000000000000000000e+00,-1.368408203125000000e-01,4.444580078125000000e-01,-1.645507812500000000e-01,8.698120117187500000e-01
-1.000000000000000000e+00,-3.000000000000000000e+00,-7.000000000000000000e+00,6.000000000000000000e+00,0.000000000000000000e+00,2.000000000000000000e+00,0.000000000000000000e+00,-2.000000000000000000e+00,-1.368408203125000000e-01,4.444580078125000000e-01,-1.645507812500000000e-01,8.698120117187500000e-01
1.000000000000000000e+00,4.000000000000000000e+00,1.000000000000000000e+01,7.000000000000000000e+00,0.000000000000000000e+00,1.000000000000000000e+00,1.000000000000000000e+00,1.000000000000000000e+00,-1.368408203125000000e-01,4.444580078125000000e-01,-1.645507812500000000e-01,8.698120117187500000e-01
-2.000000000000000000e+00,-2.000000000000000000e+00,-1.200000000000000000e+01,-2.100000000000000000e+01,-5.000000000000000000e+00,0.000000000000000000e+00,0.000000000000000000e+00,-2.000000000000000000e+00,-1.368408203125000000e-01,4.444580078125000000e-01,-1.645507812500000000e-01,8.698120117187500000e-01
0.000000000000000000e+00,-1.000000000000000000e+00,0.000000000000000000e+00,-2.000000000000000000e+00,-2.000000000000000000e+00,1.000000000000000000e+00,-1.000000000000000000e+00,0.000000000000000000e+00,-1.369018554687500000e-01,4.443969726562500000e-01,-1.646118164062500000e-01,8.698120117187500000e-01
0.000000000000000000e+00,0.000000000000000000e+00,-1.100000000000000000e+01,3.000000000000000000e+00,-1.000000000000000000e+00,-4.000000000000000000e+00,0.000000000000000000e+00,0.000000000000000000e+00,-1.369018554687500000e-01,4.443969726562500000e-01,-1.646118164062500000e-01,8.698120117187500000e-01
-1.000000000000000000e+00,-2.000000000000000000e+00,-6.000000000000000000e+00,3.000000000000000000e+00,7.000000000000000000e+00,1.000000000000000000e+00,2.000000000000000000e+00,-1.000000000000000000e+00,-1.369018554687500000e-01,4.443969726562500000e-01,-1.646118164062500000e-01,8.698120117187500000e-01
-2.000000000000000000e+00,-3.000000000000000000e+00,0.000000000000000000e+00,2.400000000000000000e+01,-2.000000000000000000e+00,-1.000000000000000000e+00,-1.000000000000000000e+00,-2.000000000000000000e+00,-1.369018554687500000e-01,4.443969726562500000e-01,-1.646118164062500000e-01,8.698120117187500000e-01
0.000000000000000000e+00,7.000000000000000000e+00,2.000000000000000000e+01,7.000000000000000000e+00,-7.000000000000000000e+00,3.000000000000000000e+00,1.000000000000000000e+00,1.000000000000000000e+00,-1.364746093750000000e-01,4.444580078125000000e-01,-1.647338867187500000e-01,8.698730468750000000e-01
3.000000000000000000e+00,3.000000000000000000e+00,2.800000000000000000e+01,0.000000000000000000e+00,3.000000000000000000e+00,-2.000000000000000000e+00,-2.000000000000000000e+00,0.000000000000000000e+00,-1.364746093750000000e-01,4.444580078125000000e-01,-1.647338867187500000e-01,8.698730468750000000e-01
-3.000000000000000000e+00,-5.000000000000000000e+00,-2.000000000000000000e+00,-3.000000000000000000e+00,0.000000000000000000e+00,-3.000000000000000000e+00,-2.000000000000000000e+00,-3.000000000000000000e+00,-1.364746093750000000e-01,4.444580078125000000e-01,-1.647338867187500000e-01,8.698730468750000000e-01
1.000000000000000000e+00,-3.000000000000000000e+00,-1.300000000000000000e+01,-1.800000000000000000e+01,-4.000000000000000000e+00,-1.000000000000000000e+00,-2.000000000000000000e+00,2.000000000000000000e+00,-1.364746093750000000e-01,4.444580078125000000e-01,-1.647338867187500000e-01,8.698730468750000000e-01
-1.000000000000000000e+00,-4.000000000000000000e+00,-4.000000000000000000e+00,-2.000000000000000000e+00,-7.000000000000000000e+00,-7.000000000000000000e+00,-4.000000000000000000e+00,-2.000000000000000000e+00,-1.364746093750000000e-01,4.445190429687500000e-01,-1.647338867187500000e-01,8.698120117187500000e-01
-2.000000000000000000e+00,-3.000000000000000000e+00,-2.000000000000000000e+01,-6.000000000000000000e+00,-5.000000000000000000e+00,-6.000000000000000000e+00,-3.000000000000000000e+00,-2.000000000000000000e+00,-1.364746093750000000e-01,4.445190429687500000e-01,-1.647338867187500000e-01,8.698120117187500000e-01
0.000000000000000000e+00,0.000000000000000000e+00,5.000000000000000000e+00,2.400000000000000000e+01,5.000000000000000000e+00,3.000000000000000000e+00,-2.000000000000000000e+00,-3.000000000000000000e+00,-1.364746093750000000e-01,4.445190429687500000e-01,-1.647338867187500000e-01,8.698120117187500000e-01
-6.000000000000000000e+00,-4.000000000000000000e+00,3.600000000000000000e+01,-2.200000000000000000e+01,-3.000000000000000000e+00,1.000000000000000000e+00,-2.000000000000000000e+00,-4.000000000000000000e+00,-1.364746093750000000e-01,4.445190429687500000e-01,-1.647338867187500000e-01,8.698120117187500000e-01
1.000000000000000000e+00,7.000000000000000000e+00,-1.000000000000000000e+00,-1.900000000000000000e+01,-4.000000000000000000e+00,-4.000000000000000000e+00,-1.000000000000000000e+00,1.000000000000000000e+00,-1.366577148437500000e-01,4.444580078125000000e-01,-1.645507812500000000e-01,8.698730468750000000e-01
0.000000000000000000e+00,0.000000000000000000e+00,6.000000000000000000e+00,6.000000000000000000e+00,0.000000000000000000e+00,1.000000000000000000e+00,0.000000000000000000e+00,-2.000000000000000000e+00,-1.366577148437500000e-01,4.444580078125000000e-01,-1.645507812500000000e-01,8.698730468750000000e-01
-2.000000000000000000e+00,1.000000000000000000e+00,-3.000000000000000000e+00,1.000000000000000000e+00,-5.000000000000000000e+00,-8.000000000000000000e+00,-4.000000000000000000e+00,-1.000000000000000000e+00,-1.366577148437500000e-01,4.444580078125000000e-01,-1.645507812500000000e-01,8.698730468750000000e-01
0.000000000000000000e+00,-2.000000000000000000e+00,-1.800000000000000000e+01,-9.000000000000000000e+00,-2.000000000000000000e+00,2.000000000000000000e+00,1.000000000000000000e+00,2.000000000000000000e+00,-1.366577148437500000e-01,4.444580078125000000e-01,-1.645507812500000000e-01,8.698730468750000000e-01
-4.000000000000000000e+00,-5.000000000000000000e+00,0.000000000000000000e+00,4.000000000000000000e+00,2.000000000000000000e+00,0.000000000000000000e+00,-2.000000000000000000e+00,-1.000000000000000000e+00,-1.370849609375000000e-01,4.443969726562500000e-01,-1.642456054687500000e-01,8.698730468750000000e-01
1.000000000000000000e+00,1.000000000000000000e+00,-9.000000000000000000e+00,-1.300000000000000000e+01,-3.000000000000000000e+00,-3.000000000000000000e+00,-4.000000000000000000e+00,-1.000000000000000000e+00,-1.370849609375000000e-01,4.443969726562500000e-01,-1.642456054687500000e-01,8.698730468750000000e-01
1.000000000000000000e+00,3.000000000000000000e+00,1.300000000000000000e+01,-2.000000000000000000e+00,-1.000000000000000000e+00,1.000000000000000000e+00,0.000000000000000000e+00,-1.000000000000000000e+00,-1.370849609375000000e-01,4.443969726562500000e-01,-1.642456054687500000e-01,8.698730468750000000e-01
2.000000000000000000e+00,2.000000000000000000e+00,-6.000000000000000000e+00,-8.000000000000000000e+00,-2.000000000000000000e+00,-2.000000000000000000e+00,-3.000000000000000000e+00,0.000000000000000000e+00,-1.370849609375000000e-01,4.443969726562500000e-01,-1.642456054687500000e-01,8.698730468750000000e-01
-1.000000000000000000e+00,-7.000000000000000000e+00,-1.600000000000000000e+01,-1.000000000000000000e+01,-2.000000000000000000e+00,-3.000000000000000000e+00,-1.000000000000000000e+00,-1.000000000000000000e+00,-1.370849609375000000e-01,4.445190429687500000e-01,-1.643066406250000000e-01,8.698120117187500000e-01
-1.000000000000000000e+00,-2.000000000000000000e+00,-1.200000000000000000e+01,1.200000000000000000e+01,4.000000000000000000e+00,0.000000000000000000e+00,-1.000000000000000000e+00,-1.000000000000000000e+00,-1.370849609375000000e-01,4.445190429687500000e-01,-1.643066406250000000e-01,8.698120117187500000e-01
-3.000000000000000000e+00,-2.000000000000000000e+00,-9.000000000000000000e+00,-2.100000000000000000e+01,0.000000000000000000e+00,1.000000000000000000e+00,2.000000000000000000e+00,0.000000000000000000e+00,-1.370849609375000000e-01,4.445190429687500000e-01,-1.643066406250000000e-01,8.698120117187500000e-01
0.000000000000000000e+00,0.000000000000000000e+00,-1.000000000000000000e+00,2.400000000000000000e+01,-1.000000000000000000e+00,-2.000000000000000000e+00,0.000000000000000000e+00,-1.000000000000000000e+00,-1.370849609375000000e-01,4.445190429687500000e-01,-1.643066406250000000e-01,8.698120117187500000e-01
1.000000000000000000e+00,-4.000000000000000000e+00,-4.000000000000000000e+00,-1.700000000000000000e+01,1.000000000000000000e+00,1.000000000000000000e+00,-1.000000000000000000e+00,-1.000000000000000000e+00,-1.367797851562500000e-01,4.446411132812500000e-01,-1.643676757812500000e-01,8.697509765625000000e-01
-3.000000000000000000e+00,0.000000000000000000e+00,-2.200000000000000000e+01,-7.000000000000000000e+01,-2.500000000000000000e+01,-8.000000000000000000e+00,-6.000000000000000000e+00,-6.000000000000000000e+00,-1.367797851562500000e-01,4.446411132812500000e-01,-1.643676757812500000e-01,8.697509765625000000e-01
1.000000000000000000e+00,-7.000000000000000000e+00,5.000000000000000000e+00,1.900000000000000000e+01,1.300000000000000000e+01,4.000000000000000000e+00,3.000000000000000000e+00,1.000000000000000000e+00,-1.367797851562500000e-01,4.446411132812500000e-01,-1.643676757812500000e-01,8.697509765625000000e-01
-1.000000000000000000e+00,-1.000000000000000000e+00,3.000000000000000000e+00,4.000000000000000000e+00,-3.000000000000000000e+00,-4.000000000000000000e+00,-1.000000000000000000e+00,-3.000000000000000000e+00,-1.367797851562500000e-01,4.446411132812500000e-01,-1.643676757812500000e-01,8.697509765625000000e-01
-1.000000000000000000e+00,0.000000000000000000e+00,-1.000000000000000000e+00,1.400000000000000000e+01,0.000000000000000000e+00,-2.000000000000000000e+00,-2.000000000000000000e+00,-4.000000000000000000e+00,-1.366577148437500000e-01,4.448242187500000000e-01,-1.638793945312500000e-01,8.697509765625000000e-01
-1.000000000000000000e+00,-2.000000000000000000e+00,-7.000000000000000000e+00,9.000000000000000000e+00,5.000000000000000000e+00,2.000000000000000000e+00,0.000000000000000000e+00,0.000000000000000000e+00,-1.366577148437500000e-01,4.448242187500000000e-01,-1.638793945312500000e-01,8.697509765625000000e-01
1.000000000000000000e+00,3.000000000000000000e+00,0.000000000000000000e+00,-1.000000000000000000e+01,-4.000000000000000000e+00,0.000000000000000000e+00,0.000000000000000000e+00,0.000000000000000000e+00,-1.366577148437500000e-01,4.448242187500000000e-01,-1.638793945312500000e-01,8.697509765625000000e-01
-2.000000000000000000e+00,-1.000000000000000000e+00,1.000000000000000000e+00,1.100000000000000000e+01,-1.000000000000000000e+00,-1.000000000000000000e+00,-4.000000000000000000e+00,1.000000000000000000e+00,-1.366577148437500000e-01,4.448242187500000000e-01,-1.638793945312500000e-01,8.697509765625000000e-01
1.000000000000000000e+00,4.000000000000000000e+00,9.000000000000000000e+00,-1.000000000000000000e+00,2.000000000000000000e+00,2.000000000000000000e+00,1.000000000000000000e+00,1.000000000000000000e+00,-1.371459960937500000e-01,4.448242187500000000e-01,-1.636352539062500000e-01,8.697509765625000000e-01
-3.000000000000000000e+00,-4.000000000000000000e+00,2.400000000000000000e+01,-5.000000000000000000e+00,-1.000000000000000000e+01,-4.000000000000000000e+00,0.000000000000000000e+00,-2.000000000000000000e+00,-1.371459960937500000e-01,4.448242187500000000e-01,-1.636352539062500000e-01,8.697509765625000000e-01
-1.000000000000000000e+00,0.000000000000000000e+00,-7.000000000000000000e+00,-2.000000000000000000e+00,-5.000000000000000000e+00,-7.000000000000000000e+00,-3.000000000000000000e+00,-1.000000000000000000e+00,-1.371459960937500000e-01,4.448242187500000000e-01,-1.636352539062500000e-01,8.697509765625000000e-01
-1.000000000000000000e+00,-2.000000000000000000e+00,0.000000000000000000e+00,1.000000000000000000e+01,4.000000000000000000e+00,4.000000000000000000e+00,4.000000000000000000e+00,1.000000000000000000e+00,-1.371459960937500000e-01,4.448242187500000000e-01,-1.636352539062500000e-01,8.697509765625000000e-01
2.000000000000000000e+00,3.000000000000000000e+00,3.000000000000000000e+00,0.000000000000000000e+00,0.000000000000000000e+00,-1.000000000000000000e+00,-1.000000000000000000e+00,0.000000000000000000e+00,-1.376953125000000000e-01,4.445800781250000000e-01,-1.634521484375000000e-01,8.698120117187500000e-01
1.000000000000000000e+00,0.000000000000000000e+00,2.000000000000000000e+00,1.100000000000000000e+01,6.000000000000000000e+00,2.000000000000000000e+00,3.000000000000000000e+00,1.000000000000000000e+00,-1.376953125000000000e-01,4.445800781250000000e-01,-1.634521484375000000e-01,8.698120117187500000e-01
-1.000000000000000000e+00,-1.000000000000000000e+00,3.000000000000000000e+00,1.800000000000000000e+01,-2.000000000000000000e+00,-2.000000000000000000e+00,-2.000000000000000000e+00,-2.000000000000000000e+00,-1.376953125000000000e-01,4.445800781250000000e-01,-1.634521484375000000e-01,8.698120117187500000e-01
-2.000000000000000000e+00,0.000000000000000000e+00,-7.000000000000000000e+00,-2.900000000000000000e+01,-7.000000000000000000e+00,-2.000000000000000000e+00,-1.000000000000000000e+00,-2.000000000000000000e+00,-1.376953125000000000e-01,4.445800781250000000e-01,-1.634521484375000000e-01,8.698120117187500000e-01
-3.000000000000000000e+00,-2.000000000000000000e+00,-1.000000000000000000e+01,0.000000000000000000e+00,-1.000000000000000000e+00,2.000000000000000000e+00,0.000000000000000000e+00,-1.000000000000000000e+00,-1.375732421875000000e-01,4.444580078125000000e-01,-1.635131835937500000e-01,8.698730468750000000e-01
0.000000000000000000e+00,-2.000000000000000000e+00,-3.000000000000000000e+00,6.000000000000000000e+00,2.000000000000000000e+00,-2.000000000000000000e+00,-4.000000000000000000e+00,-3.000000000000000000e+00,-1.375732421875000000e-01,4.444580078125000000e-01,-1.635131835937500000e-01,8.698730468750000000e-01
0.000000000000000000e+00,-3.000000000000000000e+00,0.000000000000000000e+00,-1.500000000000000000e+01,-2.000000000000000000e+00,1.000000000000000000e+00,0.000000000000000000e+00,0.000000000000000000e+00,-1.375732421875000000e-01,4.444580078125000000e-01,-1.635131835937500000e-01,8.698730468750000000e-01
-1.000000000000000000e+00,-1.000000000000000000e+00,-6.000000000000000000e+00,1.700000000000000000e+01,-4.000000000000000000e+00,-3.000000000000000000e+00,-2.000000000000000000e+00,-1.000000000000000000e+00,-1.375732421875000000e-01,4.444580078125000000e-01,-1.635131835937500000e-01,8.698730468750000000e-01
-1.000000000000000000e+00,-4.000000000000000000e+00,-1.800000000000000000e+01,-3.900000000000000000e+01,-8.000000000000000000e+00,-2.000000000000000000e+00,-2.000000000000000000e+00,-1.000000000000000000e+00,-1.375122070312500000e-01,4.444580078125000000e-01,-1.635131835937500000e-01,8.699340820312500000e-01
-1.000000000000000000e+00,-5.000000000000000000e+00,1.100000000000000000e+01,1.800000000000000000e+01,2.000000000000000000e+00,2.000000000000000000e+00,0.000000000000000000e+00,-1.000000000000000000e+00,-1.375122070312500000e-01,4.444580078125000000e-01,-1.635131835937500000e-01,8.699340820312500000e-01
-2.000000000000000000e+00,0.000000000000000000e+00,-3.000000000000000000e+00,5.000000000000000000e+00,1.000000000000000000e+00,-1.000000000000000000e+00,-3.000000000000000000e+00,-2.000000000000000000e+00,-1.375122070312500000e-01,4.444580078125000000e-01,-1.635131835937500000e-01,8.699340820312500000e-01
2.000000000000000000e+00,4.000000000000000000e+00,1.600000000000000000e+01,3.200000000000000000e+01,7.000000000000000000e+00,5.000000000000000000e+00,1.000000000000000000e+00,0.000000000000000000e+00,-1.375122070312500000e-01,4.444580078125000000e-01,-1.635131835937500000e-01,8.699340820312500000e-01
-4.000000000000000000e+00,-2.000000000000000000e+00,7.000000000000000000e+00,0.000000000000000000e+00,-1.100000000000000000e+01,-3.000000000000000000e+00,-1.000000000000000000e+00,-1.000000000000000000e+00,-1.374511718750000000e-01,4.443359375000000000e-01,-1.631469726562500000e-01,8.700561523437500000e-01
-1.000000000000000000e+00,2.000000000000000000e+00,-2.000000000000000000e+00,4.000000000000000000e+00,1.100000000000000000e+01,1.000000000000000000e+00,2.000000000000000000e+00,4.000000000000000000e+00,-1.374511718750000000e-01,4.443359375000000000e-01,-1.631469726562500000e-01,8.700561523437500000e-01
-1.000000000000000000e+00,-2.000000000000000000e+00,-1.100000000000000000e+01,-1.100000000000000000e+01,-3.000000000000000000e+00,-3.000000000000000000e+00,2.000000000000000000e+00,-1.000000000000000000e+00,-1.374511718750000000e-01,4.443359375000000000e-01,-1.631469726562500000e-01,8.700561523437500000e-01
-2.000000000000000000e+00,-3.000000000000000000e+00,7.000000000000000000e+00,-8.000000000000000000e+00,-3.000000000000000000e+00,-4.000000000000000000e+00,-2.000000000000000000e+00,-2.000000000000000000e+00,-1.374511718750000000e-01,4.443359375000000000e-01,-1.631469726562500000e-01,8.700561523437500000e-01
2.000000000000000000e+00,-4.000000000000000000e+00,5.000000000000000000e+00,2.200000000000000000e+01,0.000000000000000000e+00,0.000000000000000000e+00,0.000000000000000000e+00,-1.000000000000000000e+00,-1.377563476562500000e-01,4.442138671875000000e-01,-1.629638671875000000e-01,8.701171875000000000e-01
-3.000000000000000000e+00,-1.000000000000000000e+00,-1.300000000000000000e+01,-2.800000000000000000e+01,-4.000000000000000000e+00,-2.000000000000000000e+00,-4.000000000000000000e+00,-3.000000000000000000e+00,-1.377563476562500000e-01,4.442138671875000000e-01,-1.629638671875000000e-01,8.701171875000000000e-01
-1.000000000000000000e+00,5.000000000000000000e+00,1.200000000000000000e+01,1.000000000000000000e+00,-2.000000000000000000e+00,0.000000000000000000e+00,-1.000000000000000000e+00,-1.000000000000000000e+00,-1.377563476562500000e-01,4.442138671875000000e-01,-1.629638671875000000e-01,8.701171875000000000e-01
-2.000000000000000000e+00,-3.000000000000000000e+00,-4.000000000000000000e+00,-1.000000000000000000e+00,2.000000000000000000e+00,0.000000000000000000e+00,0.000000000000000000e+00,0.000000000000000000e+00,-1.377563476562500000e-01,4.442138671875000000e-01,-1.629638671875000000e-01,8.701171875000000000e-01
-2.000000000000000000e+00,-1.000000000000000000e+00,-1.000000000000000000e+00,1.300000000000000000e+01,5.000000000000000000e+00,-1.000000000000000000e+00,-2.000000000000000000e+00,-2.000000000000000000e+00,-1.378173828125000000e-01,4.437866210937500000e-01,-1.629638671875000000e-01,8.703002929687500000e-01
-3.000000000000000000e+00,-5.000000000000000000e+00,0.000000000000000000e+00,-1.400000000000000000e+01,-6.000000000000000000e+00,-4.000000000000000000e+00,-1.000000000000000000e+00,1.000000000000000000e+00,-1.378173828125000000e-01,4.437866210937500000e-01,-1.629638671875000000e-01,8.703002929687500000e-01
-1.000000000000000000e+00,-3.000000000000000000e+00,1.000000000000000000e+00,3.000000000000000000e+00,-1.000000000000000000e+00,0.000000000000000000e+00,-3.000000000000000000e+00,-2.000000000000000000e+00,-1.378173828125000000e-01,4.437866210937500000e-01,-1.629638671875000000e-01,8.703002929687500000e-01
-2.000000000000000000e+00,-1.000000000000000000e+00,-1.000000000000000000e+01,-2.800000000000000000e+01,-5.000000000000000000e+00,0.000000000000000000e+00,-1.000000000000000000e+00,-1.000000000000000000e+00,-1.378173828125000000e-01,4.437866210937500000e-01,-1.629638671875000000e-01,8.703002929687500000e-01
-2.000000000000000000e+00,-5.000000000000000000e+00,-8.000000000000000000e+00,9.000000000000000000e+00,8.000000000000000000e+00,4.000000000000000000e+00,1.000000000000000000e+00,0.000000000000000000e+00,-1.373291015625000000e-01,4.436035156250000000e-01,-1.628417968750000000e-01,8.704833984375000000e-01
2.000000000000000000e+00,6.000000000000000000e+00,3.000000000000000000e+01,3.400000000000000000e+01,2.000000000000000000e+00,2.000000000000000000e+00,-2.000000000000000000e+00,2.000000000000000000e+00,-1.373291015625000000e-01,4.436035156250000000e-01,-1.628417968750000000e-01,8.704833984375000000e-01
-1.000000000000000000e+00,-4.000000000000000000e+00,-1.400000000000000000e+01,-1.400000000000000000e+01,0.000000000000000000e+00,0.000000000000000000e+00,-2.000000000000000000e+00,0.000000000000000000e+00,-1.373291015625000000e-01,4.436035156250000000e-01,-1.628417968750000000e-01,8.704833984375000000e-01
0.000000000000000000e+00,0.000000000000000000e+00,2.200000000000000000e+01,2.200000000000000000e+01,2.000000000000000000e+00,-2.000000000000000000e+00,2.000000000000000000e+00,-1.000000000000000000e+00,-1.373291015625000000e-01,4.436035156250000000e-01,-1.628417968750000000e-01,8.704833984375000000e-01
1.000000000000000000e+00,-1.000000000000000000e+00,-9.000000000000000000e+00,-2.700000000000000000e+01,-3.000000000000000000e+00,-1.000000000000000000e+00,0.000000000000000000e+00,-2.000000000000000000e+00,-1.375122070312500000e-01,4.436645507812500000e-01,-1.625976562500000000e-01,8.704833984375000000e-01
2.000000000000000000e+00,3.000000000000000000e+00,1.000000000000000000e+01,1.100000000000000000e+01,-4.000000000000000000e+00,0.000000000000000000e+00,0.000000000000000000e+00,1.000000000000000000e+00,-1.375122070312500000e-01,4.436645507812500000e-01,-1.625976562500000000e-01,8.704833984375000000e-01
-3.000000000000000000e+00,2.000000000000000000e+00,2.500000000000000000e+01,1.800000000000000000e+01,1.000000000000000000e+00,0.000000000000000000e+00,-2.000000000000000000e+00,-1.000000000000000000e+00,-1.375122070312500000e-01,4.436645507812500000e-01,-1.625976562500000000e-01,8.704833984375000000e-01
-3.000000000000000000e+00,-5.000000000000000000e+00,-4.100000000000000000e+01,-3.900000000000000000e+01,-4.000000000000000000e+00,-2.000000000000000000e+00,-2.000000000000000000e+00,-1.000000000000000000e+00,-1.375122070312500000e-01,4.436645507812500000e-01,-1.625976562500000000e-01,8.704833984375000000e-01
-1.000000000000000000e+00,1.000000000000000000e+00,9.000000000000000000e+00,-4.000000000000000000e+00,-1.000000000000000000e+00,-2.000000000000000000e+00,2.000000000000000000e+00,0.000000000000000000e+00,-1.376342773437500000e-01,4.437255859375000000e-01,-1.624145507812500000e-01,8.704833984375000000e-01
0.000000000000000000e+00,-5.000000000000000000e+00,-1.900000000000000000e+01,-6.000000000000000000e+00,-8.000000000000000000e+00,-2.000000000000000000e+00,0.000000000000000000e+00,-2.000000000000000000e+00,-1.376342773437500000e-01,4.437255859375000000e-01,-1.624145507812500000e-01,8.704833984375000000e-01
-2.000000000000000000e+00,-2.000000000000000000e+00,-7.000000000000000000e+00,-2.000000000000000000e+01,-3.000000000000000000e+00,-2.000000000000000000e+00,0.000000000000000000e+00,-2.000000000000000000e+00,-1.376342773437500000e-01,4.437255859375000000e-01,-1.624145507812500000e-01,8.704833984375000000e-01
1.000000000000000000e+00,4.000000000000000000e+00,4.000000000000000000e+00,8.000000000000000000e+00,0.000000000000000000e+00,-1.000000000000000000e+00,-1.000000000000000000e+00,-1.000000000000000000e+00,-1.376342773437500000e-01,4.437255859375000000e-01,-1.624145507812500000e-01,8.704833984375000000e-01
