1.000000000000000000e+00,2.000000000000000000e+00,1.100000000000000000e+01,2.000000000000000000e+00,1.000000000000000000e+00,1.000000000000000000e+00,1.000000000000000000e+00,-1.000000000000000000e+00,-2.254638671875000000e-01,4.669799804687500000e-01,4.620971679687500000e-01,7.193603515625000000e-01
-2.000000000000000000e+00,2.500000000000000000e+01,1.000000000000000000e+00,-3.000000000000000000e+00,-3.000000000000000000e+00,-1.000000000000000000e+00,-1.000000000000000000e+00,-4.000000000000000000e+00,-2.254638671875000000e-01,4.669799804687500000e-01,4.620971679687500000e-01,7.193603515625000000e-01
1.000000000000000000e+00,-9.000000000000000000e+00,0.000000000000000000e+00,3.000000000000000000e+00,2.000000000000000000e+00,1.000000000000000000e+00,-2.000000000000000000e+00,0.000000000000000000e+00,-2.254638671875000000e-01,4.669799804687500000e-01,4.620971679687500000e-01,7.193603515625000000e-01
-3.000000000000000000e+00,-4.000000000000000000e+00,-6.000000000000000000e+00,-4.000000000000000000e+00,2.000000000000000000e+00,1.000000000000000000e+00,-2.000000000000000000e+00,-1.000000000000000000e+00,-2.254638671875000000e-01,4.669799804687500000e-01,4.620971679687500000e-01,7.193603515625000000e-01
0.000000000000000000e+00,1.000000000000000000e+00,-9.000000000000000000e+00,-6.000000000000000000e+00,-5.000000000000000000e+00,-2.000000000000000000e+00,-2.000000000000000000e+00,1.000000000000000000e+00,-2.285156250000000000e-01,4.638061523437500000e-01,4.614868164062500000e-01,7.208862304687500000e-01
0.000000000000000000e+00,-1.700000000000000000e+01,-1.000000000000000000e+00,2.000000000000000000e+00,2.000000000000000000e+00,0.000000000000000000e+00,-1.000000000000000000e+00,0.000000000000000000e+00,-2.285156250000000000e-01,4.638061523437500000e-01,4.614868164062500000e-01,7.208862304687500000e-01
-2.000000000000000000e+00,8.000000000000000000e+00,1.000000000000000000e+01,2.000000000000000000e+00,2.000000000000000000e+00,0.000000000000000000e+00,0.000000000000000000e+00,-2.000000000000000000e+00,-2.285156250000000000e-01,4.638061523437500000e-01,4.614868164062500000e-01,7.208862304687500000e-01
0.000000000000000000e+00,7.000000000000000000e+00,4.000000000000000000e+00,1.000000000000000000e+00,1.000000000000000000e+00,-2.000000000000000000e+00,-1.000000000000000000e+00,-1.000000000000000000e+00,-2.285156250000000000e-01,4.638061523437500000e-01,4.614868164062500000e-01,7.208862304687500000e-01
-3.000000000000000000e+00,-1.000000000000000000e+01,-6.000000000000000000e+00,-4.000000000000000000e+00,0.000000000000000000e+00,0.000000000000000000e+00,-1.000000000000000000e+00,-3.000000000000000000e+00,-2.303466796875000000e-01,4.614257812500000000e-01,4.584960937500000000e-01,7.236938476562500000e-01
-1.000000000000000000e+00,-6.000000000000000000e+00,-9.000000000000000000e+00,-7.000000000000000000e+00,-5.000000000000000000e+00,-3.000000000000000000e+00,-2.000000000000000000e+00,0.000000000000000000e+00,-2.303466796875000000e-01,4.614257812500000000e-01,4.584960937500000000e-01,7.236938476562500000e-01
1.000000000000000000e+00,6.000000000000000000e+00,8.000000000000000000e+00,4.000000000000000000e+00,-3.000000000000000000e+00,-4.000000000000000000e+00,0.000000000000000000e+00,2.000000000000000000e+00,-2.298583984375000000e-01,4.603271484375000000e-01,4.541015625000000000e-01,7.272949218750000000e-01
-2.000000000000000000e+00,-3.000000000000000000e+00,-1.400000000000000000e+01,-1.200000000000000000e+01,1.000000000000000000e+01,1.000000000000000000e+00,1.000000000000000000e+00,1.000000000000000000e+00,-2.298583984375000000e-01,4.603271484375000000e-01,4.541015625000000000e-01,7.272949218750000000e-01
1.000000000000000000e+00,1.000000000000000000e+01,2.400000000000000000e+01,2.100000000000000000e+01,-4.000000000000000000e+00,0.000000000000000000e+00,1.000000000000000000e+00,0.000000000000000000e+00,-2.298583984375000000e-01,4.603271484375000000e-01,4.541015625000000000e-01,7.272949218750000000e-01
0.000000000000000000e+00,-4.000000000000000000e+00,-5.000000000000000000e+00,0.000000000000000000e+00,1.000000000000000000e+00,-1.000000000000000000e+00,-1.000000000000000000e+00,-1.000000000000000000e+00,-2.298583984375000000e-01,4.603271484375000000e-01,4.541015625000000000e-01,7.272949218750000000e-01
-3.000000000000000000e+00,2.000000000000000000e+00,-1.700000000000000000e+01,-1.300000000000000000e+01,-3.000000000000000000e+00,-3.000000000000000000e+00,-3.000000000000000000e+00,-1.000000000000000000e+00,-2.282104492187500000e-01,4.599609375000000000e-01,4.503173828125000000e-01,7.304077148437500000e-01
1.000000000000000000e+00,7.000000000000000000e+00,5.000000000000000000e+00,5.000000000000000000e+00,-6.000000000000000000e+00,-1.000000000000000000e+00,-1.000000000000000000e+00,-2.000000000000000000e+00,-2.282104492187500000e-01,4.599609375000000000e-01,4.503173828125000000e-01,7.304077148437500000e-01
-2.000000000000000000e+00,-4.000000000000000000e+00,4.000000000000000000e+00,1.000000000000000000e+00,1.000000000000000000e+00,0.000000000000000000e+00,-1.000000000000000000e+00,-1.000000000000000000e+00,-2.282104492187500000e-01,4.599609375000000000e-01,4.503173828125000000e-01,7.304077148437500000e-01
-1.000000000000000000e+00,-2.000000000000000000e+00,-3.000000000000000000e+00,1.000000000000000000e+00,-2.000000000000000000e+00,-2.000000000000000000e+00,-1.000000000000000000e+00,-1.000000000000000000e+00,-2.282104492187500000e-01,4.599609375000000000e-01,4.503173828125000000e-01,7.304077148437500000e-01
1.000000000000000000e+00,-1.000000000000000000e+01,-4.000000000000000000e+00,-4.000000000000000000e+00,0.000000000000000000e+00,0.000000000000000000e+00,0.000000000000000000e+00,0.000000000000000000e+00,-2.277832031250000000e-01,4.587402343750000000e-01,4.481811523437500000e-01,7.326049804687500000e-01
-1.000000000000000000e+00,-1.200000000000000000e+01,-7.000000000000000000e+00,0.000000000000000000e+00,-4.000000000000000000e+00,0.000000000000000000e+00,1.000000000000000000e+00,-1.000000000000000000e+00,-2.277832031250000000e-01,4.587402343750000000e-01,4.481811523437500000e-01,7.326049804687500000e-01
1.000000000000000000e+00,1.800000000000000000e+01,1.400000000000000000e+01,-9.000000000000000000e+00,-6.000000000000000000e+00,-3.000000000000000000e+00,0.000000000000000000e+00,0.000000000000000000e+00,-2.277832031250000000e-01,4.587402343750000000e-01,4.481811523437500000e-01,7.326049804687500000e-01
9.000000000000000000e+00,1.100000000000000000e+01,1.000000000000000000e+00,1.000000000000000000e+01,9.000000000000000000e+00,2.000000000000000000e+00,0.000000000000000000e+00,1.000000000000000000e+00,-2.277832031250000000e-01,4.587402343750000000e-01,4.481811523437500000e-01,7.326049804687500000e-01
-1.600000000000000000e+01,-1.600000000000000000e+01,4.000000000000000000e+00,-1.000000000000000000e+00,-2.000000000000000000e+00,0.000000000000000000e+00,-1.000000000000000000e+00,1.000000000000000000e+00,-2.282714843750000000e-01,4.566040039062500000e-01,4.472045898437500000e-01,7.343750000000000000e-01
-6.000000000000000000e+00,-1.900000000000000000e+01,-1.300000000000000000e+01,-8.000000000000000000e+00,-3.000000000000000000e+00,-1.000000000000000000e+00,-2.000000000000000000e+00,-4.000000000000000000e+00,-2.282714843750000000e-01,4.566040039062500000e-01,4.472045898437500000e-01,7.343750000000000000e-01
-4.000000000000000000e+00,1.000000000000000000e+00,0.000000000000000000e+00,5.000000000000000000e+00,2.000000000000000000e+00,-1.000000000000000000e+00,-2.000000000000000000e+00,-1.000000000000000000e+00,-2.282714843750000000e-01,4.566040039062500000e-01,4.472045898437500000e-01,7.343750000000000000e-01
0.000000000000000000e+00,2.000000000000000000e+01,2.000000000000000000e+01,-2.000000000000000000e+00,-2.000000000000000000e+00,-1.000000000000000000e+00,-1.000000000000000000e+00,-1.000000000000000000e+00,-2.282714843750000000e-01,4.566040039062500000e-01,4.472045898437500000e-01,7.343750000000000000e-01
7.000000000000000000e+00,2.000000000000000000e+00,-4.000000000000000000e+00,3.000000000000000000e+00,2.000000000000000000e+00,-2.000000000000000000e+00,2.000000000000000000e+00,0.000000000000000000e+00,-2.286987304687500000e-01,4.544067382812500000e-01,4.460449218750000000e-01,7.363281250000000000e-01
1.000000000000000000e+00,5.000000000000000000e+00,2.000000000000000000e+00,0.000000000000000000e+00,-2.000000000000000000e+00,-2.000000000000000000e+00,0.000000000000000000e+00,-1.000000000000000000e+00,-2.286987304687500000e-01,4.544067382812500000e-01,4.460449218750000000e-01,7.363281250000000000e-01
-2.000000000000000000e+00,-3.000000000000000000e+00,-2.000000000000000000e+00,-6.000000000000000000e+00,-4.000000000000000000e+00,-4.000000000000000000e+00,-1.000000000000000000e+00,0.000000000000000000e+00,-2.286987304687500000e-01,4.544067382812500000e-01,4.460449218750000000e-01,7.363281250000000000e-01
-2.000000000000000000e+00,-2.300000000000000000e+01,-1.000000000000000000e+01,-8.000000000000000000e+00,-1.000000000000000000e+00,-3.000000000000000000e+00,-1.000000000000000000e+00,-2.000000000000000000e+00,-2.286987304687500000e-01,4.544067382812500000e-01,4.460449218750000000e-01,7.363281250000000000e-01
1.000000000000000000e+00,5.000000000000000000e+00,0.000000000000000000e+00,2.000000000000000000e+00,2.000000000000000000e+00,1.000000000000000000e+00,-1.000000000000000000e+00,-3.000000000000000000e+00,-2.284545898437500000e-01,4.526977539062500000e-01,4.440307617187500000e-01,7.387084960937500000e-01
-1.000000000000000000e+00,4.000000000000000000e+00,3.100000000000000000e+01,4.000000000000000000e+00,-1.000000000000000000e+00,0.000000000000000000e+00,-1.000000000000000000e+00,0.000000000000000000e+00,-2.284545898437500000e-01,4.526977539062500000e-01,4.440307617187500000e-01,7.387084960937500000e-01
-1.000000000000000000e+00,0.000000000000000000e+00,-1.000000000000000000e+00,0.000000000000000000e+00,-4.000000000000000000e+00,-1.000000000000000000e+00,-4.000000000000000000e+00,-3.000000000000000000e+00,-2.284545898437500000e-01,4.526977539062500000e-01,4.440307617187500000e-01,7.387084960937500000e-01
-3.000000000000000000e+00,-1.500000000000000000e+01,1.100000000000000000e+01,7.000000000000000000e+00,2.000000000000000000e+00,-1.000000000000000000e+00,2.000000000000000000e+00,-1.000000000000000000e+00,-2.284545898437500000e-01,4.526977539062500000e-01,4.440307617187500000e-01,7.387084960937500000e-01
1.000000000000000000e+00,1.500000000000000000e+01,-3.200000000000000000e+01,-4.000000000000000000e+00,4.000000000000000000e+00,0.000000000000000000e+00,-2.000000000000000000e+00,-1.000000000000000000e+00,-2.271118164062500000e-01,4.520263671875000000e-01,4.417114257812500000e-01,7.409057617187500000e-01
-4.000000000000000000e+00,-2.400000000000000000e+01,-1.700000000000000000e+01,-1.400000000000000000e+01,-7.000000000000000000e+00,-3.000000000000000000e+00,-2.000000000000000000e+00,-2.000000000000000000e+00,-2.271118164062500000e-01,4.520263671875000000e-01,4.417114257812500000e-01,7.409057617187500000e-01
0.000000000000000000e+00,-4.000000000000000000e+00,7.000000000000000000e+00,-5.000000000000000000e+00,-3.000000000000000000e+00,-1.000000000000000000e+00,-1.000000000000000000e+00,0.000000000000000000e+00,-2.271118164062500000e-01,4.520263671875000000e-01,4.417114257812500000e-01,7.409057617187500000e-01
-2.000000000000000000e+00,-1.000000000000000000e+00,-1.200000000000000000e+01,-2.000000000000000000e+00,3.000000000000000000e+00,2.000000000000000000e+00,0.000000000000000000e+00,-2.000000000000000000e+00,-2.271118164062500000e-01,4.520263671875000000e-01,4.417114257812500000e-01,7.409057617187500000e-01
0.000000000000000000e+00,-1.700000000000000000e+01,1.700000000000000000e+01,4.000000000000000000e+00,-5.000000000000000000e+00,-4.000000000000000000e+00,-4.000000000000000000e+00,-2.000000000000000000e+00,-2.257080078125000000e-01,4.511108398437500000e-01,4.403076171875000000e-01,7.426757812500000000e-01
4.000000000000000000e+00,2.100000000000000000e+01,1.500000000000000000e+01,7.000000000000000000e+00,2.000000000000000000e+00,0.000000000000000000e+00,-1.000000000000000000e+00,0.000000000000000000e+00,-2.257080078125000000e-01,4.511108398437500000e-01,4.403076171875000000e-01,7.426757812500000000e-01
0.000000000000000000e+00,-4.000000000000000000e+00,-2.200000000000000000e+01,-8.000000000000000000e+00,-2.000000000000000000e+00,1.000000000000000000e+00,0.000000000000000000e+00,0.000000000000000000e+00,-2.257080078125000000e-01,4.511108398437500000e-01,4.403076171875000000e-01,7.426757812500000000e-01
-3.000000000000000000e+00,-3.000000000000000000e+00,5.000000000000000000e+00,-4.000000000000000000e+00,-5.000000000000000000e+00,-1.000000000000000000e+00,-4.000000000000000000e+00,1.000000000000000000e+00,-2.257080078125000000e-01,4.511108398437500000e-01,4.403076171875000000e-01,7.426757812500000000e-01
2.000000000000000000e+00,-7.000000000000000000e+00,-1.000000000000000000e+01,-1.000000000000000000e+00,1.000000000000000000e+00,0.000000000000000000e+00,1.000000000000000000e+00,0.000000000000000000e+00,-2.254028320312500000e-01,4.493408203125000000e-01,4.397583007812500000e-01,7.442016601562500000e-01
0.000000000000000000e+00,5.000000000000000000e+00,3.000000000000000000e+00,5.000000000000000000e+00,-1.000000000000000000e+00,-1.000000000000000000e+00,-2.000000000000000000e+00,0.000000000000000000e+00,-2.254028320312500000e-01,4.493408203125000000e-01,4.397583007812500000e-01,7.442016601562500000e-01
-2.000000000000000000e+00,-7.000000000000000000e+00,-9.000000000000000000e+00,-1.000000000000000000e+00,1.000000000000000000e+00,0.000000000000000000e+00,-1.000000000000000000e+00,-1.000000000000000000e+00,-2.254028320312500000e-01,4.493408203125000000e-01,4.397583007812500000e-01,7.442016601562500000e-01
-2.000000000000000000e+00,1.000000000000000000e+00,-4.000000000000000000e+00,0.000000000000000000e+00,-1.000000000000000000e+00,-3.000000000000000000e+00,-1.000000000000000000e+00,-3.000000000000000000e+00,-2.254028320312500000e-01,4.493408203125000000e-01,4.397583007812500000e-01,7.442016601562500000e-01
2.000000000000000000e+00,-7.000000000000000000e+00,7.000000000000000000e+00,-2.000000000000000000e+00,-2.000000000000000000e+00,-1.000000000000000000e+00,0.000000000000000000e+00,0.000000000000000000e+00,-2.254028320312500000e-01,4.473876953125000000e-01,4.393920898437500000e-01,7.455444335937500000e-01
-5.000000000000000000e+00,9.000000000000000000e+00,0.000000000000000000e+00,1.000000000000000000e+00,0.000000000000000000e+00,-3.000000000000000000e+00,-2.000000000000000000e+00,0.000000000000000000e+00,-2.254028320312500000e-01,4.473876953125000000e-01,4.393920898437500000e-01,7.455444335937500000e-01
3.000000000000000000e+00,8.000000000000000000e+00,4.000000000000000000e+00,-1.000000000000000000e+00,-1.000000000000000000e+00,-3.000000000000000000e+00,0.000000000000000000e+00,0.000000000000000000e+00,-2.254028320312500000e-01,4.473876953125000000e-01,4.393920898437500000e-01,7.455444335937500000e-01
0.000000000000000000e+00,-9.000000000000000000e+00,-2.100000000000000000e+01,-5.000000000000000000e+00,-3.000000000000000000e+00,-2.000000000000000000e+00,-1.000000000000000000e+00,0.000000000000000000e+00,-2.254028320312500000e-01,4.473876953125000000e-01,4.393920898437500000e-01,7.455444335937500000e-01
0.000000000000000000e+00,2.600000000000000000e+01,1.600000000000000000e+01,1.100000000000000000e+01,-1.000000000000000000e+00,0.000000000000000000e+00,-1.000000000000000000e+00,-1.000000000000000000e+00,-2.244262695312500000e-01,4.461059570312500000e-01,4.387817382812500000e-01,7.469482421875000000e-01
-3.000000000000000000e+00,-4.000000000000000000e+00,-1.000000000000000000e+00,2.000000000000000000e+00,0.000000000000000000e+00,1.000000000000000000e+00,-1.000000000000000000e+00,-4.000000000000000000e+00,-2.244262695312500000e-01,4.461059570312500000e-01,4.387817382812500000e-01,7.469482421875000000e-01
-2.000000000000000000e+00,-2.000000000000000000e+00,-1.400000000000000000e+01,-8.000000000000000000e+00,-2.000000000000000000e+00,0.000000000000000000e+00,-2.000000000000000000e+00,-1.000000000000000000e+00,-2.244262695312500000e-01,4.461059570312500000e-01,4.387817382812500000e-01,7.469482421875000000e-01
-1.000000000000000000e+00,-6.000000000000000000e+00,-1.500000000000000000e+01,-8.000000000000000000e+00,-3.000000000000000000e+00,-4.000000000000000000e+00,-3.000000000000000000e+00,-3.000000000000000000e+00,-2.244262695312500000e-01,4.461059570312500000e-01,4.387817382812500000e-01,7.469482421875000000e-01
2.000000000000000000e+00,-1.600000000000000000e+01,-2.000000000000000000e+00,-6.000000000000000000e+00,1.000000000000000000e+00,0.000000000000000000e+00,1.000000000000000000e+00,0.000000000000000000e+00,-2.221679687500000000e-01,4.458007812500000000e-01,4.379882812500000000e-01,7.483520507812500000e-01
0.000000000000000000e+00,2.100000000000000000e+01,1.100000000000000000e+01,4.000000000000000000e+00,0.000000000000000000e+00,1.000000000000000000e+00,-3.000000000000000000e+00,0.000000000000000000e+00,-2.221679687500000000e-01,4.458007812500000000e-01,4.379882812500000000e-01,7.483520507812500000e-01
1.000000000000000000e+00,0.000000000000000000e+00,-8.000000000000000000e+00,-3.000000000000000000e+00,-2.000000000000000000e+00,-1.000000000000000000e+00,0.000000000000000000e+00,0.000000000000000000e+00,-2.221679687500000000e-01,4.458007812500000000e-01,4.379882812500000000e-01,7.483520507812500000e-01
-4.000000000000000000e+00,9.000000000000000000e+00,0.000000000000000000e+00,2.000000000000000000e+00,-4.000000000000000000e+00,-2.000000000000000000e+00,0.000000000000000000e+00,-2.000000000000000000e+00,-2.221679687500000000e-01,4.458007812500000000e-01,4.379882812500000000e-01,7.483520507812500000e-01
-1.000000000000000000e+00,-5.000000000000000000e+00,-2.000000000000000000e+00,-2.000000000000000000e+00,-6.000000000000000000e+00,-2.000000000000000000e+00,-2.000000000000000000e+00,0.000000000000000000e+00,-2.197875976562500000e-01,4.460449218750000000e-01,4.365234375000000000e-01,7.497558593750000000e-01
-3.000000000000000000e+00,-2.800000000000000000e+01,1.000000000000000000e+00,1.000000000000000000e+00,0.000000000000000000e+00,0.000000000000000000e+00,-2.000000000000000000e+00,-2.000000000000000000e+00,-2.197875976562500000e-01,4.460449218750000000e-01,4.365234375000000000e-01,7.497558593750000000e-01
-5.000000000000000000e+00,0.000000000000000000e+00,-9.000000000000000000e+00,-1.000000000000000000e+01,-6.000000000000000000e+00,-4.000000000000000000e+00,-3.000000000000000000e+00,-5.000000000000000000e+00,-2.197875976562500000e-01,4.460449218750000000e-01,4.365234375000000000e-01,7.497558593750000000e-01
-1.000000000000000000e+00,5.000000000000000000e+00,7.000000000000000000e+00,7.000000000000000000e+00,5.000000000000000000e+00,2.000000000000000000e+00,2.000000000000000000e+00,0.000000000000000000e+00,-2.197875976562500000e-01,4.460449218750000000e-01,4.365234375000000000e-01,7.497558593750000000e-01
-1.000000000000000000e+00,4.000000000000000000e+00,-2.000000000000000000e+00,-2.000000000000000000e+00,3.000000000000000000e+00,-4.000000000000000000e+00,-2.000000000000000000e+00,-3.000000000000000000e+00,-2.180175781250000000e-01,4.462280273437500000e-01,4.348144531250000000e-01,7.510986328125000000e-01
5.000000000000000000e+00,-1.700000000000000000e+01,-2.700000000000000000e+01,-6.000000000000000000e+00,-2.000000000000000000e+00,-2.000000000000000000e+00,-1.000000000000000000e+00,-3.000000000000000000e+00,-2.180175781250000000e-01,4.462280273437500000e-01,4.348144531250000000e-01,7.510986328125000000e-01
1.000000000000000000e+00,4.200000000000000000e+01,2.400000000000000000e+01,3.000000000000000000e+00,0.000000000000000000e+00,-1.000000000000000000e+00,1.000000000000000000e+00,1.000000000000000000e+00,-2.180175781250000000e-01,4.462280273437500000e-01,4.348144531250000000e-01,7.510986328125000000e-01
0.000000000000000000e+00,-7.000000000000000000e+00,8.000000000000000000e+00,2.000000000000000000e+00,-1.000000000000000000e+00,0.000000000000000000e+00,-1.000000000000000000e+00,-2.000000000000000000e+00,-2.180175781250000000e-01,4.462280273437500000e-01,4.348144531250000000e-01,7.510986328125000000e-01
0.000000000000000000e+00,8.000000000000000000e+00,-3.000000000000000000e+00,-3.000000000000000000e+00,0.000000000000000000e+00,0.000000000000000000e+00,-1.000000000000000000e+00,-1.000000000000000000e+00,-2.171630859375000000e-01,4.461059570312500000e-01,4.329833984375000000e-01,7.525634765625000000e-01
-2.000000000000000000e+00,-8.000000000000000000e+00,-3.000000000000000000e+00,-5.000000000000000000e+00,-1.000000000000000000e+00,0.000000000000000000e+00,1.000000000000000000e+00,-1.000000000000000000e+00,-2.171630859375000000e-01,4.461059570312500000e-01,4.329833984375000000e-01,7.525634765625000000e-01
0.000000000000000000e+00,-9.000000000000000000e+00,-5.000000000000000000e+00,7.000000000000000000e+00,3.000000000000000000e+00,1.000000000000000000e+00,0.000000000000000000e+00,-1.000000000000000000e+00,-2.171630859375000000e-01,4.461059570312500000e-01,4.329833984375000000e-01,7.525634765625000000e-01
0.000000000000000000e+00,0.000000000000000000e+00,-1.200000000000000000e+01,-8.000000000000000000e+00,-2.000000000000000000e+00,-3.000000000000000000e+00,-1.000000000000000000e+00,1.000000000000000000e+00,-2.171630859375000000e-01,4.461059570312500000e-01,4.329833984375000000e-01,7.525634765625000000e-01
-1.000000000000000000e+00,-6.000000000000000000e+00,-1.100000000000000000e+01,-3.000000000000000000e+00,-3.000000000000000000e+00,0.000000000000000000e+00,-1.000000000000000000e+00,0.000000000000000000e+00,-2.170410156250000000e-01,4.456787109375000000e-01,4.313354492187500000e-01,7.537231445312500000e-01
-1.000000000000000000e+00,1.300000000000000000e+01,0.000000000000000000e+00,-3.000000000000000000e+00,-1.000000000000000000e+00,-1.000000000000000000e+00,-1.000000000000000000e+00,0.000000000000000000e+00,-2.170410156250000000e-01,4.456787109375000000e-01,4.313354492187500000e-01,7.537231445312500000e-01
-6.000000000000000000e+00,-8.000000000000000000e+00,9.000000000000000000e+00,7.000000000000000000e+00,2.000000000000000000e+00,4.000000000000000000e+00,0.000000000000000000e+00,-1.000000000000000000e+00,-2.170410156250000000e-01,4.456787109375000000e-01,4.313354492187500000e-01,7.537231445312500000e-01
3.000000000000000000e+00,2.000000000000000000e+00,-2.000000000000000000e+00,-4.000000000000000000e+00,1.000000000000000000e+00,2.000000000000000000e+00,-2.000000000000000000e+00,0.000000000000000000e+00,-2.170410156250000000e-01,4.456787109375000000e-01,4.313354492187500000e-01,7.537231445312500000e-01
-2.000000000000000000e+00,-8.000000000000000000e+00,-5.000000000000000000e+00,-5.000000000000000000e+00,-2.000000000000000000e+00,0.000000000000000000e+00,-2.000000000000000000e+00,-1.000000000000000000e+00,-2.174072265625000000e-01,4.456176757812500000e-01,4.295043945312500000e-01,7.546997070312500000e-01
-1.000000000000000000e+00,-6.000000000000000000e+00,-1.000000000000000000e+00,2.000000000000000000e+00,1.000000000000000000e+00,0.000000000000000000e+00,-1.000000000000000000e+00,-2.000000000000000000e+00,-2.174072265625000000e-01,4.456176757812500000e-01,4.295043945312500000e-01,7.546997070312500000e-01
-1.000000000000000000e+00,5.000000000000000000e+00,-5.000000000000000000e+00,-7.000000000000000000e+00,1.000000000000000000e+00,-1.000000000000000000e+00,2.000000000000000000e+00,-1.000000000000000000e+00,-2.174072265625000000e-01,4.456176757812500000e-01,4.295043945312500000e-01,7.546997070312500000e-01
-3.000000000000000000e+00,1.000000000000000000e+00,1.100000000000000000e+01,6.000000000000000000e+00,-2.000000000000000000e+00,-3.000000000000000000e+00,-1.000000000000000000e+00,-1.000000000000000000e+00,-2.174072265625000000e-01,4.456176757812500000e-01,4.295043945312500000e-01,7.546997070312500000e-01
-2.000000000000000000e+00,-2.000000000000000000e+00,-2.000000000000000000e+00,-3.000000000000000000e+00,-3.000000000000000000e+00,-1.000000000000000000e+00,-3.000000000000000000e+00,-2.000000000000000000e+00,-2.180175781250000000e-01,4.457397460937500000e-01,4.273681640625000000e-01,7.557373046875000000e-01
-2.000000000000000000e+00,-5.000000000000000000e+00,1.000000000000000000e+00,3.000000000000000000e+00,1.000000000000000000e+00,-1.000000000000000000e+00,-1.000000000000000000e+00,-1.000000000000000000e+00,-2.180175781250000000e-01,4.457397460937500000e-01,4.273681640625000000e-01,7.557373046875000000e-01
0.000000000000000000e+00,-1.500000000000000000e+01,-9.000000000000000000e+00,-1.000000000000000000e+00,2.000000000000000000e+00,0.000000000000000000e+00,-2.000000000000000000e+00,0.000000000000000000e+00,-2.180175781250000000e-01,4.457397460937500000e-01,4.273681640625000000e-01,7.557373046875000000e-01
-1.000000000000000000e+00,1.000000000000000000e+00,4.000000000000000000e+00,-9.000000000000000000e+00,-4.000000000000000000e+00,-3.000000000000000000e+00,-2.000000000000000000e+00,-1.000000000000000000e+00,-2.180175781250000000e-01,4.457397460937500000e-01,4.273681640625000000e-01,7.557373046875000000e-01
2.000000000000000000e+00,0.000000000000000000e+00,0.000000000000000000e+00,0.000000000000000000e+00,-6.000000000000000000e+00,-4.000000000000000000e+00,-1.000000000000000000e+00,-1.000000000000000000e+00,-2.186889648437500000e-01,4.456176757812500000e-01,4.246826171875000000e-01,7.570800781250000000e-01
-1.000000000000000000e+00,3.000000000000000000e+00,-1.000000000000000000e+00,-5.000000000000000000e+00,3.000000000000000000e+00,4.000000000000000000e+00,3.000000000000000000e+00,-2.000000000000000000e+00,-2.186889648437500000e-01,4.456176757812500000e-01,4.246826171875000000e-01,7.570800781250000000e-01
-1.000000000000000000e+00,-6.000000000000000000e+00,1.000000000000000000e+00,4.000000000000000000e+00,-2.000000000000000000e+00,-1.000000000000000000e+00,-3.000000000000000000e+00,-5.000000000000000000e+00,-2.186889648437500000e-01,4.456176757812500000e-01,4.246826171875000000e-01,7.570800781250000000e-01
1.000000000000000000e+00,0.000000000000000000e+00,-1.000000000000000000e+00,4.000000000000000000e+00,3.000000000000000000e+00,1.000000000000000000e+00,0.000000000000000000e+00,0.000000000000000000e+00,-2.186889648437500000e-01,4.456176757812500000e-01,4.246826171875000000e-01,7.570800781250000000e-01
-4.000000000000000000e+00,-1.100000000000000000e+01,-1.000000000000000000e+01,-4.000000000000000000e+00,2.000000000000000000e+00,-1.000000000000000000e+00,0.000000000000000000e+00,0.000000000000000000e+00,-2.191162109375000000e-01,4.455566406250000000e-01,4.219970703125000000e-01,7.584838867187500000e-01
1.000000000000000000e+00,1.100000000000000000e+01,1.000000000000000000e+01,-4.000000000000000000e+00,-7.000000000000000000e+00,-3.000000000000000000e+00,-3.000000000000000000e+00,-1.000000000000000000e+00,-2.191162109375000000e-01,4.455566406250000000e-01,4.219970703125000000e-01,7.584838867187500000e-01
-1.000000000000000000e+00,-8.000000000000000000e+00,-8.000000000000000000e+00,-3.000000000000000000e+00,-2.000000000000000000e+00,-4.000000000000000000e+00,-1.000000000000000000e+00,0.000000000000000000e+00,-2.191162109375000000e-01,4.455566406250000000e-01,4.219970703125000000e-01,7.584838867187500000e-01
-4.000000000000000000e+00,-1.800000000000000000e+01,-2.000000000000000000e+00,2.000000000000000000e+00,-3.000000000000000000e+00,0.000000000000000000e+00,-1.000000000000000000e+00,-3.000000000000000000e+00,-2.191162109375000000e-01,4.455566406250000000e-01,4.219970703125000000e-01,7.584838867187500000e-01
1.000000000000000000e+00,2.700000000000000000e+01,5.000000000000000000e+00,2.000000000000000000e+00,5.000000000000000000e+00,3.000000000000000000e+00,2.000000000000000000e+00,-2.000000000000000000e+00,-2.196044921875000000e-01,4.452514648437500000e-01,4.198608398437500000e-01,7.597045898437500000e-01
0.000000000000000000e+00,-4.000000000000000000e+00,-1.000000000000000000e+01,-5.000000000000000000e+00,-1.000000000000000000e+00,-2.000000000000000000e+00,0.000000000000000000e+00,0.000000000000000000e+00,-2.196044921875000000e-01,4.452514648437500000e-01,4.198608398437500000e-01,7.597045898437500000e-01
2.000000000000000000e+00,8.000000000000000000e+00,1.200000000000000000e+01,4.000000000000000000e+00,1.000000000000000000e+00,0.000000000000000000e+00,-2.000000000000000000e+00,0.000000000000000000e+00,-2.196044921875000000e-01,4.452514648437500000e-01,4.198608398437500000e-01,7.597045898437500000e-01
-3.000000000000000000e+00,-1.300000000000000000e+01,-8.000000000000000000e+00,-3.000000000000000000e+00,-3.000000000000000000e+00,0.000000000000000000e+00,-2.000000000000000000e+00,0.000000000000000000e+00,-2.196044921875000000e-01,4.452514648437500000e-01,4.198608398437500000e-01,7.597045898437500000e-01
-3.000000000000000000e+00,-7.000000000000000000e+00,-1.000000000000000000e+00,-5.000000000000000000e+00,-3.000000000000000000e+00,-1.000000000000000000e+00,0.000000000000000000e+00,0.000000000000000000e+00,-2.205200195312500000e-01,4.447631835937500000e-01,4.187622070312500000e-01,7.603149414062500000e-01
1.000000000000000000e+00,0.000000000000000000e+00,-9.000000000000000000e+00,3.000000000000000000e+00,-2.000000000000000000e+00,-3.000000000000000000e+00,-1.000000000000000000e+00,0.000000000000000000e+00,-2.205200195312500000e-01,4.447631835937500000e-01,4.187622070312500000e-01,7.603149414062500000e-01
-2.000000000000000000e+00,-1.900000000000000000e+01,-2.200000000000000000e+01,-1.000000000000000000e+00,4.000000000000000000e+00,1.000000000000000000e+00,-2.000000000000000000e+00,-1.000000000000000000e+00,-2.205200195312500000e-01,4.447631835937500000e-01,4.187622070312500000e-01,7.603149414062500000e-01
-1.000000000000000000e+00,3.300000000000000000e+01,3.000000000000000000e+01,-3.000000000000000000e+00,-2.000000000000000000e+00,-1.000000000000000000e+00,0.000000000000000000e+00,0.000000000000000000e+00,-2.205200195312500000e-01,4.447631835937500000e-01,4.187622070312500000e-01,7.603149414062500000e-01
-3.000000000000000000e+00,-1.100000000000000000e+01,1.800000000000000000e+01,5.000000000000000000e+00,4.000000000000000000e+00,1.000000000000000000e+00,-2.000000000000000000e+00,-1.000000000000000000e+00,-2.211914062500000000e-01,4.445190429687500000e-01,4.185791015625000000e-01,7.603759765625000000e-01
-1.000000000000000000e+00,-3.000000000000000000e+00,5.000000000000000000e+00,3.000000000000000000e+00,0.000000000000000000e+00,-1.000000000000000000e+00,0.000000000000000000e+00,0.000000000000000000e+00,-2.211914062500000000e-01,4.445190429687500000e-01,4.185791015625000000e-01,7.603759765625000000e-01
0.000000000000000000e+00,-3.000000000000000000e+00,-1.200000000000000000e+01,-5.000000000000000000e+00,-2.000000000000000000e+00,-4.000000000000000000e+00,-2.000000000000000000e+00,-2.000000000000000000e+00,-2.211914062500000000e-01,4.445190429687500000e-01,4.185791015625000000e-01,7.603759765625000000e-01
0.000000000000000000e+00,-1.500000000000000000e+01,-2.600000000000000000e+01,-1.500000000000000000e+01,-3.000000000000000000e+00,-2.000000000000000000e+00,-2.000000000000000000e+00,-1.000000000000000000e+00,-2.211914062500000000e-01,4.445190429687500000e-01,4.185791015625000000e-01,7.603759765625000000e-01
0.000000000000000000e+00,1.200000000000000000e+01,1.200000000000000000e+01,1.600000000000000000e+01,2.000000000000000000e+00,0.000000000000000000e+00,0.000000000000000000e+00,0.000000000000000000e+00,-2.218627929687500000e-01,4.444580078125000000e-01,4.189453125000000000e-01,7.600708007812500000e-01
-1.000000000000000000e+00,-9.000000000000000000e+00,5.000000000000000000e+00,3.000000000000000000e+00,-2.000000000000000000e+00,-2.000000000000000000e+00,0.000000000000000000e+00,-1.000000000000000000e+00,-2.218627929687500000e-01,4.444580078125000000e-01,4.189453125000000000e-01,7.600708007812500000e-01
1.000000000000000000e+00,3.000000000000000000e+00,9.000000000000000000e+00,-2.000000000000000000e+00,-2.000000000000000000e+00,-3.000000000000000000e+00,-1.000000000000000000e+00,0.000000000000000000e+00,-2.218627929687500000e-01,4.444580078125000000e-01,4.189453125000000000e-01,7.600708007812500000e-01
-1.000000000000000000e+00,-7.000000000000000000e+00,-4.000000000000000000e+00,-2.000000000000000000e+00,-1.000000000000000000e+00,-1.000000000000000000e+00,-1.000000000000000000e+00,0.000000000000000000e+00,-2.218627929687500000e-01,4.444580078125000000e-01,4.189453125000000000e-01,7.600708007812500000e-01
1.000000000000000000e+00,2.000000000000000000e+01,-2.500000000000000000e+01,-2.000000000000000000e+01,-1.300000000000000000e+01,-3.000000000000000000e+00,-3.000000000000000000e+00,-2.000000000000000000e+00,-2.230224609375000000e-01,4.443969726562500000e-01,4.190673828125000000e-01,7.596435546875000000e-01
-3.000000000000000000e+00,-1.300000000000000000e+01,2.600000000000000000e+01,1.500000000000000000e+01,5.000000000000000000e+00,0.000000000000000000e+00,-3.000000000000000000e+00,-3.000000000000000000e+00,-2.230224609375000000e-01,4.443969726562500000e-01,4.190673828125000000e-01,7.596435546875000000e-01
-2.000000000000000000e+00,-1.300000000000000000e+01,-1.000000000000000000e+00,9.000000000000000000e+00,9.000000000000000000e+00,3.000000000000000000e+00,1.000000000000000000e+00,0.000000000000000000e+00,-2.230224609375000000e-01,4.443969726562500000e-01,4.190673828125000000e-01,7.596435546875000000e-01
-2.000000000000000000e+00,1.200000000000000000e+01,4.000000000000000000e+00,2.000000000000000000e+00,-5.000000000000000000e+00,-3.000000000000000000e+00,-1.000000000000000000e+00,-1.000000000000000000e+00,-2.230224609375000000e-01,4.443969726562500000e-01,4.190673828125000000e-01,7.596435546875000000e-01
0.000000000000000000e+00,-2.200000000000000000e+01,-1.800000000000000000e+01,-1.700000000000000000e+01,-1.000000000000000000e+00,-1.000000000000000000e+00,2.000000000000000000e+00,2.000000000000000000e+00,-2.236938476562500000e-01,4.450073242187500000e-01,4.179077148437500000e-01,7.597045898437500000e-01
0.000000000000000000e+00,1.200000000000000000e+01,1.900000000000000000e+01,3.000000000000000000e+00,-8.000000000000000000e+00,-5.000000000000000000e+00,1.000000000000000000e+00,-1.000000000000000000e+00,-2.236938476562500000e-01,4.450073242187500000e-01,4.179077148437500000e-01,7.597045898437500000e-01
-1.000000000000000000e+00,-7.000000000000000000e+00,-1.100000000000000000e+01,-6.000000000000000000e+00,1.300000000000000000e+01,2.000000000000000000e+00,0.000000000000000000e+00,-1.000000000000000000e+00,-2.236938476562500000e-01,4.450073242187500000e-01,4.179077148437500000e-01,7.597045898437500000e-01
-2.000000000000000000e+00,-7.000000000000000000e+00,1.800000000000000000e+01,1.200000000000000000e+01,-1.000000000000000000e+00,-1.000000000000000000e+00,-1.000000000000000000e+00,-1.000000000000000000e+00,-2.236938476562500000e-01,4.450073242187500000e-01,4.179077148437500000e-01,7.597045898437500000e-01
1.000000000000000000e+00,2.000000000000000000e+00,2.000000000000000000e+00,1.000000000000000000e+00,-2.000000000000000000e+00,-2.000000000000000000e+00,0.000000000000000000e+00,-3.000000000000000000e+00,-2.236328125000000000e-01,4.465332031250000000e-01,4.161987304687500000e-01,7.597656250000000000e-01
-1.000000000000000000e+00,0.000000000000000000e+00,-2.800000000000000000e+01,-8.000000000000000000e+00,-2.000000000000000000e+00,1.000000000000000000e+00,-1.000000000000000000e+00,-1.000000000000000000e+00,-2.236328125000000000e-01,4.465332031250000000e-01,4.161987304687500000e-01,7.597656250000000000e-01
0.000000000000000000e+00,3.200000000000000000e+01,3.200000000000000000e+01,4.000000000000000000e+00,-9.000000000000000000e+00,-3.000000000000000000e+00,-3.000000000000000000e+00,-3.000000000000000000e+00,-2.236328125000000000e-01,4.465332031250000000e-01,4.161987304687500000e-01,7.597656250000000000e-01
1.000000000000000000e+00,-5.000000000000000000e+00,-1.400000000000000000e+01,-9.000000000000000000e+00,1.000000000000000000e+00,0.000000000000000000e+00,-2.000000000000000000e+00,-2.000000000000000000e+00,-2.236328125000000000e-01,4.465332031250000000e-01,4.161987304687500000e-01,7.597656250000000000e-01
-1.000000000000000000e+00,-6.000000000000000000e+00,-1.000000000000000000e+00,3.000000000000000000e+00,2.000000000000000000e+00,2.000000000000000000e+00,1.000000000000000000e+00,0.000000000000000000e+00,-2.244262695312500000e-01,4.471435546875000000e-01,4.157714843750000000e-01,7.594604492187500000e-01
-2.000000000000000000e+00,1.000000000000000000e+00,0.000000000000000000e+00,3.000000000000000000e+00,-1.000000000000000000e+00,-2.000000000000000000e+00,-1.000000000000000000e+00,0.000000000000000000e+00,-2.244262695312500000e-01,4.471435546875000000e-01,4.157714843750000000e-01,7.594604492187500000e-01
-2.000000000000000000e+00,-9.000000000000000000e+00,-1.300000000000000000e+01,-7.000000000000000000e+00,-5.000000000000000000e+00,-2.000000000000000000e+00,-2.000000000000000000e+00,2.000000000000000000e+00,-2.244262695312500000e-01,4.471435546875000000e-01,4.157714843750000000e-01,7.594604492187500000e-01
-2.000000000000000000e+00,5.000000000000000000e+00,-4.000000000000000000e+00,-2.000000000000000000e+00,2.000000000000000000e+00,-1.000000000000000000e+00,-1.000000000000000000e+00,-2.000000000000000000e+00,-2.244262695312500000e-01,4.471435546875000000e-01,4.157714843750000000e-01,7.594604492187500000e-01
2.000000000000000000e+00,1.300000000000000000e+01,8.000000000000000000e+00,1.000000000000000000e+00,-2.000000000000000000e+00,-2.000000000000000000e+00,-2.000000000000000000e+00,-1.000000000000000000e+00,-2.258911132812500000e-01,4.464721679687500000e-01,4.164428710937500000e-01,7.590332031250000000e-01
-3.000000000000000000e+00,-1.200000000000000000e+01,-7.000000000000000000e+00,-5.000000000000000000e+00,2.000000000000000000e+00,0.000000000000000000e+00,0.000000000000000000e+00,0.000000000000000000e+00,-2.258911132812500000e-01,4.464721679687500000e-01,4.164428710937500000e-01,7.590332031250000000e-01
-2.000000000000000000e+00,1.100000000000000000e+01,-2.000000000000000000e+00,-2.000000000000000000e+00,-1.000000000000000000e+00,0.000000000000000000e+00,-2.000000000000000000e+00,-1.000000000000000000e+00,-2.258911132812500000e-01,4.464721679687500000e-01,4.164428710937500000e-01,7.590332031250000000e-01
1.000000000000000000e+00,-1.200000000000000000e+01,-2.000000000000000000e+00,1.000000000000000000e+00,0.000000000000000000e+00,3.000000000000000000e+00,0.000000000000000000e+00,2.000000000000000000e+00,-2.258911132812500000e-01,4.464721679687500000e-01,4.164428710937500000e-01,7.590332031250000000e-01
-5.000000000000000000e+00,-1.100000000000000000e+01,-3.000000000000000000e+00,-1.000000000000000000e+00,-1.000000000000000000e+00,-2.000000000000000000e+00,-1.000000000000000000e+00,-4.000000000000000000e+00,-2.268676757812500000e-01,4.456176757812500000e-01,4.169311523437500000e-01,7.589721679687500000e-01
-1.000000000000000000e+00,1.000000000000000000e+01,-8.000000000000000000e+00,-1.500000000000000000e+01,-1.000000000000000000e+01,-5.000000000000000000e+00,-3.000000000000000000e+00,0.000000000000000000e+00,-2.268676757812500000e-01,4.456176757812500000e-01,4.169311523437500000e-01,7.589721679687500000e-01
1.000000000000000000e+00,-7.000000000000000000e+00,2.000000000000000000e+00,1.200000000000000000e+01,1.100000000000000000e+01,3.000000000000000000e+00,2.000000000000000000e+00,0.000000000000000000e+00,-2.268676757812500000e-01,4.456176757812500000e-01,4.169311523437500000e-01,7.589721679687500000e-01
-4.000000000000000000e+00,-1.200000000000000000e+01,-1.300000000000000000e+01,3.000000000000000000e+00,5.000000000000000000e+00,2.000000000000000000e+00,0.000000000000000000e+00,-5.000000000000000000e+00,-2.268676757812500000e-01,4.456176757812500000e-01,4.169311523437500000e-01,7.589721679687500000e-01
3.000000000000000000e+00,4.000000000000000000e+00,1.000000000000000000e+01,2.000000000000000000e+00,-3.000000000000000000e+00,-3.000000000000000000e+00,0.000000000000000000e+00,1.000000000000000000e+00,-2.268066406250000000e-01,4.451904296875000000e-01,4.168701171875000000e-01,7.592773437500000000e-01
2.000000000000000000e+00,3.000000000000000000e+00,3.000000000000000000e+00,4.000000000000000000e+00,1.200000000000000000e+01,3.000000000000000000e+00,1.000000000000000000e+00,1.000000000000000000e+00,-2.268066406250000000e-01,4.451904296875000000e-01,4.168701171875000000e-01,7.592773437500000000e-01
-1.000000000000000000e+00,8.000000000000000000e+00,3.100000000000000000e+01,2.000000000000000000e+00,-9.000000000000000000e+00,-2.000000000000000000e+00,1.000000000000000000e+00,-1.000000000000000000e+00,-2.268066406250000000e-01,4.451904296875000000e-01,4.168701171875000000e-01,7.592773437500000000e-01
-2.000000000000000000e+00,-2.000000000000000000e+00,-6.000000000000000000e+00,-7.000000000000000000e+00,-3.000000000000000000e+00,-4.000000000000000000e+00,-2.000000000000000000e+00,5.000000000000000000e+00,-2.268066406250000000e-01,4.451904296875000000e-01,4.168701171875000000e-01,7.592773437500000000e-01
-5.000000000000000000e+00,-1.600000000000000000e+01,-1.100000000000000000e+01,0.000000000000000000e+00,1.000000000000000000e+00,0.000000000000000000e+00,-5.000000000000000000e+00,-1.300000000000000000e+01,-2.260131835937500000e-01,4.454956054687500000e-01,4.165039062500000000e-01,7.595214843750000000e-01
0.000000000000000000e+00,1.000000000000000000e+00,-4.000000000000000000e+00,-4.000000000000000000e+00,-3.000000000000000000e+00,-1.000000000000000000e+00,0.000000000000000000e+00,-2.000000000000000000e+00,-2.260131835937500000e-01,4.454956054687500000e-01,4.165039062500000000e-01,7.595214843750000000e-01
-1.000000000000000000e+00,-1.800000000000000000e+01,-9.000000000000000000e+00,-4.000000000000000000e+00,-3.000000000000000000e+00,-2.000000000000000000e+00,-1.000000000000000000e+00,-3.000000000000000000e+00,-2.260131835937500000e-01,4.454956054687500000e-01,4.165039062500000000e-01,7.595214843750000000e-01
3.000000000000000000e+00,1.500000000000000000e+01,-9.000000000000000000e+00,0.000000000000000000e+00,-2.000000000000000000e+00,-1.000000000000000000e+00,0.000000000000000000e+00,3.000000000000000000e+00,-2.260131835937500000e-01,4.454956054687500000e-01,4.165039062500000000e-01,7.595214843750000000e-01
-1.000000000000000000e+00,6.000000000000000000e+00,9.000000000000000000e+00,-5.000000000000000000e+00,-2.000000000000000000e+00,0.000000000000000000e+00,0.000000000000000000e+00,3.000000000000000000e+00,-2.257080078125000000e-01,4.454956054687500000e-01,4.169311523437500000e-01,7.593994140625000000e-01
1.000000000000000000e+00,-9.000000000000000000e+00,-2.000000000000000000e+00,2.000000000000000000e+00,0.000000000000000000e+00,-1.000000000000000000e+00,-4.000000000000000000e+00,-1.000000000000000000e+00,-2.257080078125000000e-01,4.454956054687500000e-01,4.169311523437500000e-01,7.593994140625000000e-01
9.000000000000000000e+00,2.100000000000000000e+01,3.000000000000000000e+00,3.000000000000000000e+00,1.000000000000000000e+00,1.000000000000000000e+00,2.000000000000000000e+00,3.000000000000000000e+00,-2.257080078125000000e-01,4.454956054687500000e-01,4.169311523437500000e-01,7.593994140625000000e-01
-1.000000000000000000e+01,-1.800000000000000000e+01,-5.000000000000000000e+00,-3.000000000000000000e+00,-2.000000000000000000e+00,0.000000000000000000e+00,0.000000000000000000e+00,-3.000000000000000000e+00,-2.257080078125000000e-01,4.454956054687500000e-01,4.169311523437500000e-01,7.593994140625000000e-01
-1.300000000000000000e+01,-3.400000000000000000e+01,-1.400000000000000000e+01,-5.000000000000000000e+00,-3.000000000000000000e+00,-3.000000000000000000e+00,-5.000000000000000000e+00,-5.000000000000000000e+00,-2.254638671875000000e-01,4.449462890625000000e-01,4.178466796875000000e-01,7.592773437500000000e-01
0.000000000000000000e+00,1.000000000000000000e+01,4.000000000000000000e+00,1.000000000000000000e+00,3.000000000000000000e+00,4.000000000000000000e+00,-1.000000000000000000e+00,-1.000000000000000000e+00,-2.254638671875000000e-01,4.449462890625000000e-01,4.178466796875000000e-01,7.592773437500000000e-01
3.000000000000000000e+00,2.000000000000000000e+00,-5.000000000000000000e+00,-2.000000000000000000e+00,-4.000000000000000000e+00,-2.000000000000000000e+00,-1.000000000000000000e+00,1.000000000000000000e+00,-2.254638671875000000e-01,4.449462890625000000e-01,4.178466796875000000e-01,7.592773437500000000e-01
3.000000000000000000e+00,3.000000000000000000e+00,7.000000000000000000e+00,2.000000000000000000e+00,1.000000000000000000e+00,1.000000000000000000e+00,1.000000000000000000e+00,-3.000000000000000000e+00,-2.254638671875000000e-01,4.449462890625000000e-01,4.178466796875000000e-01,7.592773437500000000e-01
3.000000000000000000e+00,6.000000000000000000e+00,5.000000000000000000e+00,4.000000000000000000e+00,1.000000000000000000e+00,-1.000000000000000000e+00,-2.000000000000000000e+00,2.000000000000000000e+00,-2.251586914062500000e-01,4.442749023437500000e-01,4.185180664062500000e-01,7.593994140625000000e-01
-2.000000000000000000e+00,-9.000000000000000000e+00,2.000000000000000000e+00,1.000000000000000000e+00,-1.000000000000000000e+00,-2.000000000000000000e+00,-1.000000000000000000e+00,-1.000000000000000000e+00,-2.251586914062500000e-01,4.442749023437500000e-01,4.185180664062500000e-01,7.593994140625000000e-01
-2.000000000000000000e+00,2.000000000000000000e+00,-1.800000000000000000e+01,-8.000000000000000000e+00,-4.000000000000000000e+00,-1.000000000000000000e+00,-1.000000000000000000e+00,-2.000000000000000000e+00,-2.251586914062500000e-01,4.442749023437500000e-01,4.185180664062500000e-01,7.593994140625000000e-01
0.000000000000000000e+00,1.200000000000000000e+01,2.100000000000000000e+01,1.000000000000000000e+00,-2.000000000000000000e+00,-2.000000000000000000e+00,-1.000000000000000000e+00,-2.000000000000000000e+00,-2.251586914062500000e-01,4.442749023437500000e-01,4.185180664062500000e-01,7.593994140625000000e-01
0.000000000000000000e+00,4.000000000000000000e+00,2.000000000000000000e+00,5.000000000000000000e+00,0.000000000000000000e+00,-1.000000000000000000e+00,1.000000000000000000e+00,3.000000000000000000e+00,-2.243652343750000000e-01,4.440307617187500000e-01,4.189453125000000000e-01,7.595214843750000000e-01
-4.000000000000000000e+00,-7.000000000000000000e+00,-1.900000000000000000e+01,-1.800000000000000000e+01,-1.000000000000000000e+00,1.000000000000000000e+00,1.000000000000000000e+00,0.000000000000000000e+00,-2.243652343750000000e-01,4.440307617187500000e-01,4.189453125000000000e-01,7.595214843750000000e-01
-2.000000000000000000e+00,-3.000000000000000000e+00,1.200000000000000000e+01,1.100000000000000000e+01,-2.000000000000000000e+00,-1.000000000000000000e+00,-1.000000000000000000e+00,-1.000000000000000000e+00,-2.243652343750000000e-01,4.440307617187500000e-01,4.189453125000000000e-01,7.595214843750000000e-01
-2.000000000000000000e+00,-4.000000000000000000e+00,1.200000000000000000e+01,-1.000000000000000000e+00,-1.100000000000000000e+01,-2.000000000000000000e+00,0.000000000000000000e+00,0.000000000000000000e+00,-2.243652343750000000e-01,4.440307617187500000e-01,4.189453125000000000e-01,7.595214843750000000e-01
1.000000000000000000e+00,-2.000000000000000000e+00,-2.000000000000000000e+00,1.100000000000000000e+01,1.700000000000000000e+01,3.000000000000000000e+00,1.000000000000000000e+00,0.000000000000000000e+00,-2.231445312500000000e-01,4.442749023437500000e-01,4.198608398437500000e-01,7.592163085937500000e-01
1.000000000000000000e+00,4.000000000000000000e+00,-2.000000000000000000e+00,-2.000000000000000000e+00,0.000000000000000000e+00,-1.000000000000000000e+00,0.000000000000000000e+00,0.000000000000000000e+00,-2.231445312500000000e-01,4.442749023437500000e-01,4.198608398437500000e-01,7.592163085937500000e-01
-6.000000000000000000e+00,-1.800000000000000000e+01,-3.100000000000000000e+01,-1.600000000000000000e+01,-5.000000000000000000e+00,-4.000000000000000000e+00,-3.000000000000000000e+00,-2.000000000000000000e+00,-2.231445312500000000e-01,4.442749023437500000e-01,4.198608398437500000e-01,7.592163085937500000e-01
1.000000000000000000e+00,1.000000000000000000e+00,1.400000000000000000e+01,5.000000000000000000e+00,-1.000000000000000000e+00,-2.000000000000000000e+00,-2.000000000000000000e+00,-1.000000000000000000e+00,-2.231445312500000000e-01,4.442749023437500000e-01,4.198608398437500000e-01,7.592163085937500000e-01
-1.000000000000000000e+00,0.000000000000000000e+00,-3.000000000000000000e+00,-2.000000000000000000e+00,-9.000000000000000000e+00,-1.000000000000000000e+00,1.000000000000000000e+00,0.000000000000000000e+00,-2.220458984375000000e-01,4.442138671875000000e-01,4.213256835937500000e-01,7.587890625000000000e-01
0.000000000000000000e+00,6.000000000000000000e+00,-6.000000000000000000e+00,-2.000000000000000000e+00,-1.000000000000000000e+00,-1.000000000000000000e+00,-1.000000000000000000e+00,-1.000000000000000000e+00,-2.220458984375000000e-01,4.442138671875000000e-01,4.213256835937500000e-01,7.587890625000000000e-01
-2.000000000000000000e+00,-6.000000000000000000e+00,-9.000000000000000000e+00,-3.000000000000000000e+00,0.000000000000000000e+00,3.000000000000000000e+00,2.000000000000000000e+00,-2.000000000000000000e+00,-2.220458984375000000e-01,4.442138671875000000e-01,4.213256835937500000e-01,7.587890625000000000e-01
1.000000000000000000e+00,-3.000000000000000000e+00,-9.000000000000000000e+00,-8.000000000000000000e+00,-5.000000000000000000e+00,-4.000000000000000000e+00,-3.000000000000000000e+00,-1.000000000000000000e+00,-2.220458984375000000e-01,4.442138671875000000e-01,4.213256835937500000e-01,7.587890625000000000e-01
-3.000000000000000000e+00,8.000000000000000000e+00,-2.000000000000000000e+00,-6.000000000000000000e+00,-4.000000000000000000e+00,-1.000000000000000000e+00,-2.000000000000000000e+00,-3.000000000000000000e+00,-2.218627929687500000e-01,4.434814453125000000e-01,4.228515625000000000e-01,7.584228515625000000e-01
-3.000000000000000000e+00,-7.000000000000000000e+00,2.000000000000000000e+00,6.000000000000000000e+00,2.000000000000000000e+00,-1.000000000000000000e+00,-1.000000000000000000e+00,-3.000000000000000000e+00,-2.218627929687500000e-01,4.434814453125000000e-01,4.228515625000000000e-01,7.584228515625000000e-01
-2.000000000000000000e+00,-6.000000000000000000e+00,5.000000000000000000e+00,-1.000000000000000000e+00,1.000000000000000000e+00,-1.000000000000000000e+00,0.000000000000000000e+00,-1.000000000000000000e+00,-2.218627929687500000e-01,4.434814453125000000e-01,4.228515625000000000e-01,7.584228515625000000e-01
1.000000000000000000e+00,7.000000000000000000e+00,-7.000000000000000000e+00,-4.000000000000000000e+00,1.000000000000000000e+00,0.000000000000000000e+00,-3.000000000000000000e+00,0.000000000000000000e+00,-2.218627929687500000e-01,4.434814453125000000e-01,4.228515625000000000e-01,7.584228515625000000e-01
2.000000000000000000e+00,-2.000000000000000000e+00,2.000000000000000000e+00,-1.000000000000000000e+00,-2.000000000000000000e+00,-1.000000000000000000e+00,1.000000000000000000e+00,-1.000000000000000000e+00,-2.217407226562500000e-01,4.427490234375000000e-01,4.237670898437500000e-01,7.584228515625000000e-01
-3.000000000000000000e+00,-3.000000000000000000e+00,1.000000000000000000e+00,1.000000000000000000e+00,-4.000000000000000000e+00,-1.000000000000000000e+00,0.000000000000000000e+00,-2.000000000000000000e+00,-2.217407226562500000e-01,4.427490234375000000e-01,4.237670898437500000e-01,7.584228515625000000e-01
-2.000000000000000000e+00,4.000000000000000000e+00,9.000000000000000000e+00,-5.000000000000000000e+00,-7.000000000000000000e+00,-9.000000000000000000e+00,-3.000000000000000000e+00,-3.000000000000000000e+00,-2.217407226562500000e-01,4.427490234375000000e-01,4.237670898437500000e-01,7.584228515625000000e-01
0.000000000000000000e+00,-1.000000000000000000e+00,-1.400000000000000000e+01,2.000000000000000000e+00,2.000000000000000000e+00,0.000000000000000000e+00,0.000000000000000000e+00,-2.000000000000000000e+00,-2.217407226562500000e-01,4.427490234375000000e-01,4.237670898437500000e-01,7.584228515625000000e-01
-2.000000000000000000e+00,-1.600000000000000000e+01,7.000000000000000000e+00,1.000000000000000000e+00,4.000000000000000000e+00,0.000000000000000000e+00,-1.000000000000000000e+00,2.000000000000000000e+00,-2.208862304687500000e-01,4.425659179687500000e-01,4.237670898437500000e-01,7.587280273437500000e-01
-2.000000000000000000e+00,1.800000000000000000e+01,7.000000000000000000e+00,-3.000000000000000000e+00,-4.000000000000000000e+00,-2.000000000000000000e+00,-2.000000000000000000e+00,-1.000000000000000000e+00,-2.208862304687500000e-01,4.425659179687500000e-01,4.237670898437500000e-01,7.587280273437500000e-01
-1.000000000000000000e+00,-5.000000000000000000e+00,3.000000000000000000e+00,0.000000000000000000e+00,-1.000000000000000000e+00,0.000000000000000000e+00,-2.000000000000000000e+00,1.000000000000000000e+00,-2.208862304687500000e-01,4.425659179687500000e-01,4.237670898437500000e-01,7.587280273437500000e-01
-3.000000000000000000e+00,-1.100000000000000000e+01,-1.500000000000000000e+01,-6.000000000000000000e+00,2.000000000000000000e+00,1.000000000000000000e+00,-1.000000000000000000e+00,0.000000000000000000e+00,-2.208862304687500000e-01,4.425659179687500000e-01,4.237670898437500000e-01,7.587280273437500000e-01
1.000000000000000000e+00,6.000000000000000000e+00,6.000000000000000000e+00,3.000000000000000000e+00,-7.000000000000000000e+00,-1.000000000000000000e+00,-2.000000000000000000e+00,1.000000000000000000e+00,-2.197875976562500000e-01,4.428710937500000000e-01,4.237670898437500000e-01,7.588500976562500000e-01
0.000000000000000000e+00,2.000000000000000000e+00,4.000000000000000000e+00,-9.000000000000000000e+00,-4.000000000000000000e+00,-4.000000000000000000e+00,-1.000000000000000000e+00,0.000000000000000000e+00,-2.197875976562500000e-01,4.428710937500000000e-01,4.237670898437500000e-01,7.588500976562500000e-01
-2.000000000000000000e+00,-1.100000000000000000e+01,-1.700000000000000000e+01,0.000000000000000000e+00,5.000000000000000000e+00,1.000000000000000000e+00,0.000000000000000000e+00,-1.000000000000000000e+00,-2.197875976562500000e-01,4.428710937500000000e-01,4.237670898437500000e-01,7.588500976562500000e-01
0.000000000000000000e+00,1.700000000000000000e+01,1.800000000000000000e+01,7.000000000000000000e+00,-1.000000000000000000e+00,-2.000000000000000000e+00,0.000000000000000000e+00,-2.000000000000000000e+00,-2.197875976562500000e-01,4.428710937500000000e-01,4.237670898437500000e-01,7.588500976562500000e-01
-3.000000000000000000e+00,-1.500000000000000000e+01,-7.000000000000000000e+00,-6.000000000000000000e+00,-1.000000000000000000e+00,0.000000000000000000e+00,-2.000000000000000000e+00,-2.000000000000000000e+00,-2.192993164062500000e-01,4.431152343750000000e-01,4.244384765625000000e-01,7.584838867187500000e-01
3.000000000000000000e+00,4.000000000000000000e+00,-8.000000000000000000e+00,-8.000000000000000000e+00,-7.000000000000000000e+00,-2.000000000000000000e+00,-2.000000000000000000e+00,-2.000000000000000000e+00,-2.192993164062500000e-01,4.431152343750000000e-01,4.244384765625000000e-01,7.584838867187500000e-01
-2.000000000000000000e+00,-1.000000000000000000e+01,-4.000000000000000000e+00,-6.000000000000000000e+00,-4.000000000000000000e+00,-2.000000000000000000e+00,-1.000000000000000000e+00,-2.000000000000000000e+00,-2.192993164062500000e-01,4.431152343750000000e-01,4.244384765625000000e-01,7.584838867187500000e-01
-2.000000000000000000e+00,4.000000000000000000e+00,-8.000000000000000000e+00,-2.000000000000000000e+00,5.000000000000000000e+00,0.000000000000000000e+00,1.000000000000000000e+00,-1.000000000000000000e+00,-2.192993164062500000e-01,4.431152343750000000e-01,4.244384765625000000e-01,7.584838867187500000e-01
1.000000000000000000e+00,1.000000000000000000e+01,-4.000000000000000000e+00,0.000000000000000000e+00,-1.000000000000000000e+00,-3.000000000000000000e+00,-2.000000000000000000e+00,-1.000000000000000000e+00,-2.202758789062500000e-01,4.425048828125000000e-01,4.257202148437500000e-01,7.578125000000000000e-01
-1.000000000000000000e+00,-1.000000000000000000e+01,6.000000000000000000e+00,4.000000000000000000e+00,3.000000000000000000e+00,0.000000000000000000e+00,-1.000000000000000000e+00,-1.000000000000000000e+00,-2.202758789062500000e-01,4.425048828125000000e-01,4.257202148437500000e-01,7.578125000000000000e-01
0.000000000000000000e+00,-2.000000000000000000e+00,-1.000000000000000000e+00,-6.000000000000000000e+00,-5.000000000000000000e+00,-4.000000000000000000e+00,-3.000000000000000000e+00,0.000000000000000000e+00,-2.202758789062500000e-01,4.425048828125000000e-01,4.257202148437500000e-01,7.578125000000000000e-01
2.000000000000000000e+00,1.000000000000000000e+01,-3.000000000000000000e+00,1.000000000000000000e+00,-2.000000000000000000e+00,0.000000000000000000e+00,-1.000000000000000000e+00,-1.000000000000000000e+00,-2.202758789062500000e-01,4.425048828125000000e-01,4.257202148437500000e-01,7.578125000000000000e-01
-1.000000000000000000e+00,-1.000000000000000000e+01,-4.000000000000000000e+00,-1.000000000000000000e+00,-1.000000000000000000e+00,0.000000000000000000e+00,0.000000000000000000e+00,0.000000000000000000e+00,-2.222290039062500000e-01,4.419555664062500000e-01,4.271240234375000000e-01,7.567749023437500000e-01
-2.000000000000000000e+00,0.000000000000000000e+00,-6.000000000000000000e+00,0.000000000000000000e+00,4.000000000000000000e+00,4.000000000000000000e+00,2.000000000000000000e+00,-1.000000000000000000e+00,-2.222290039062500000e-01,4.419555664062500000e-01,4.271240234375000000e-01,7.567749023437500000e-01
0.000000000000000000e+00,3.000000000000000000e+00,6.000000000000000000e+00,1.000000000000000000e+01,0.000000000000000000e+00,-1.000000000000000000e+00,-1.000000000000000000e+00,-2.000000000000000000e+00,-2.222290039062500000e-01,4.419555664062500000e-01,4.271240234375000000e-01,7.567749023437500000e-01
-1.000000000000000000e+00,-5.000000000000000000e+00,-4.000000000000000000e+00,-1.000000000000000000e+00,-2.000000000000000000e+00,-2.000000000000000000e+00,-1.000000000000000000e+00,-1.000000000000000000e+00,-2.222290039062500000e-01,4.419555664062500000e-01,4.271240234375000000e-01,7.567749023437500000e-01
0.000000000000000000e+00,6.000000000000000000e+00,1.600000000000000000e+01,-8.000000000000000000e+00,-4.000000000000000000e+00,-5.000000000000000000e+00,-3.000000000000000000e+00,-3.000000000000000000e+00,-2.249145507812500000e-01,4.418334960937500000e-01,4.287109375000000000e-01,7.551879882812500000e-01
-1.000000000000000000e+00,-6.000000000000000000e+00,-8.000000000000000000e+00,-3.000000000000000000e+00,-2.000000000000000000e+00,-1.000000000000000000e+00,-2.000000000000000000e+00,-1.000000000000000000e+00,-2.249145507812500000e-01,4.418334960937500000e-01,4.287109375000000000e-01,7.551879882812500000e-01
-2.000000000000000000e+00,4.000000000000000000e+00,-7.000000000000000000e+00,-3.000000000000000000e+00,-2.000000000000000000e+00,-1.000000000000000000e+00,-2.000000000000000000e+00,-1.000000000000000000e+00,-2.249145507812500000e-01,4.418334960937500000e-01,4.287109375000000000e-01,7.551879882812500000e-01
-3.000000000000000000e+00,-2.000000000000000000e+01,-9.000000000000000000e+00,-4.000000000000000000e+00,0.000000000000000000e+00,2.000000000000000000e+00,0.000000000000000000e+00,-1.000000000000000000e+00,-2.249145507812500000e-01,4.418334960937500000e-01,4.287109375000000000e-01,7.551879882812500000e-01
0.000000000000000000e+00,-6.000000000000000000e+00,-1.600000000000000000e+01,-1.000000000000000000e+00,0.000000000000000000e+00,0.000000000000000000e+00,-1.000000000000000000e+00,-1.000000000000000000e+00,-2.285156250000000000e-01,4.418945312500000000e-01,4.304199218750000000e-01,7.531127929687500000e-01
-1.000000000000000000e+00,3.000000000000000000e+00,1.100000000000000000e+01,4.000000000000000000e+00,-2.000000000000000000e+00,-1.000000000000000000e+00,-2.000000000000000000e+00,-1.000000000000000000e+00,-2.285156250000000000e-01,4.418945312500000000e-01,4.304199218750000000e-01,7.531127929687500000e-01
0.000000000000000000e+00,1.000000000000000000e+00,2.000000000000000000e+00,-6.000000000000000000e+00,0.000000000000000000e+00,-1.000000000000000000e+00,0.000000000000000000e+00,0.000000000000000000e+00,-2.285156250000000000e-01,4.418945312500000000e-01,4.304199218750000000e-01,7.531127929687500000e-01
-2.000000000000000000e+00,-6.000000000000000000e+00,4.000000000000000000e+00,1.000000000000000000e+00,-2.000000000000000000e+00,-1.000000000000000000e+00,-1.000000000000000000e+00,-1.000000000000000000e+00,-2.285156250000000000e-01,4.418945312500000000e-01,4.304199218750000000e-01,7.531127929687500000e-01
-1.000000000000000000e+00,3.000000000000000000e+00,-1.200000000000000000e+01,6.000000000000000000e+00,8.000000000000000000e+00,2.000000000000000000e+00,3.000000000000000000e+00,-1.000000000000000000e+00,-2.327270507812500000e-01,4.417724609375000000e-01,4.318847656250000000e-01,7.510986328125000000e-01
-2.000000000000000000e+00,-3.000000000000000000e+00,2.000000000000000000e+00,5.000000000000000000e+00,0.000000000000000000e+00,-1.000000000000000000e+00,-1.000000000000000000e+00,-1.000000000000000000e+00,-2.327270507812500000e-01,4.417724609375000000e-01,4.318847656250000000e-01,7.510986328125000000e-01
1.000000000000000000e+00,1.000000000000000000e+00,0.000000000000000000e+00,-5.000000000000000000e+00,-2.000000000000000000e+00,1.000000000000000000e+00,1.000000000000000000e+00,-2.000000000000000000e+00,-2.327270507812500000e-01,4.417724609375000000e-01,4.318847656250000000e-01,7.510986328125000000e-01
0.000000000000000000e+00,-1.000000000000000000e+00,-5.000000000000000000e+00,-3.000000000000000000e+00,-4.000000000000000000e+00,-3.000000000000000000e+00,-2.000000000000000000e+00,-1.000000000000000000e+00,-2.327270507812500000e-01,4.417724609375000000e-01,4.318847656250000000e-01,7.510986328125000000e-01
1.000000000000000000e+00,5.000000000000000000e+00,-4.000000000000000000e+00,-1.100000000000000000e+01,-4.000000000000000000e+00,2.000000000000000000e+00,3.000000000000000000e+00,-1.000000000000000000e+00,-2.368164062500000000e-01,4.416503906250000000e-01,4.326782226562500000e-01,7.493896484375000000e-01
-1.000000000000000000e+00,6.000000000000000000e+00,0.000000000000000000e+00,1.500000000000000000e+01,-2.000000000000000000e+00,-3.000000000000000000e+00,-2.000000000000000000e+00,-1.000000000000000000e+00,-2.368164062500000000e-01,4.416503906250000000e-01,4.326782226562500000e-01,7.493896484375000000e-01
-2.000000000000000000e+00,-1.300000000000000000e+01,-1.000000000000000000e+01,-4.000000000000000000e+00,-3.000000000000000000e+00,-2.000000000000000000e+00,0.000000000000000000e+00,-1.000000000000000000e+00,-2.368164062500000000e-01,4.416503906250000000e-01,4.326782226562500000e-01,7.493896484375000000e-01
0.000000000000000000e+00,1.000000000000000000e+00,-7.000000000000000000e+00,-5.000000000000000000e+00,-1.000000000000000000e+00,-1.000000000000000000e+00,-4.000000000000000000e+00,-2.000000000000000000e+00,-2.368164062500000000e-01,4.416503906250000000e-01,4.326782226562500000e-01,7.493896484375000000e-01
-4.000000000000000000e+00,8.000000000000000000e+00,0.000000000000000000e+00,-6.000000000000000000e+00,-4.000000000000000000e+00,-2.000000000000000000e+00,-2.000000000000000000e+00,-1.000000000000000000e+00,-2.405395507812500000e-01,4.409790039062500000e-01,4.335937500000000000e-01,7.481079101562500000e-01
1.000000000000000000e+00,-3.000000000000000000e+00,-4.000000000000000000e+00,2.000000000000000000e+00,5.000000000000000000e+00,1.000000000000000000e+00,1.000000000000000000e+00,-3.000000000000000000e+00,-2.405395507812500000e-01,4.409790039062500000e-01,4.335937500000000000e-01,7.481079101562500000e-01
-1.000000000000000000e+00,4.000000000000000000e+00,3.000000000000000000e+00,0.000000000000000000e+00,-7.000000000000000000e+00,-3.000000000000000000e+00,-2.000000000000000000e+00,-1.000000000000000000e+00,-2.405395507812500000e-01,4.409790039062500000e-01,4.335937500000000000e-01,7.481079101562500000e-01
-1.000000000000000000e+00,-1.100000000000000000e+01,-8.000000000000000000e+00,-8.000000000000000000e+00,-3.000000000000000000e+00,-2.000000000000000000e+00,0.000000000000000000e+00,-1.000000000000000000e+00,-2.405395507812500000e-01,4.409790039062500000e-01,4.335937500000000000e-01,7.481079101562500000e-01
-1.000000000000000000e+00,-1.700000000000000000e+01,-1.000000000000000000e+00,8.000000000000000000e+00,8.000000000000000000e+00,1.000000000000000000e+00,0.000000000000000000e+00,-1.000000000000000000e+00,-2.434692382812500000e-01,4.391479492187500000e-01,4.348144531250000000e-01,7.474975585937500000e-01
-1.000000000000000000e+00,1.800000000000000000e+01,1.100000000000000000e+01,-5.000000000000000000e+00,-3.000000000000000000e+00,0.000000000000000000e+00,0.000000000000000000e+00,1.000000000000000000e+00,-2.434692382812500000e-01,4.391479492187500000e-01,4.348144531250000000e-01,7.474975585937500000e-01
0.000000000000000000e+00,6.000000000000000000e+00,-1.000000000000000000e+01,0.000000000000000000e+00,1.000000000000000000e+00,2.000000000000000000e+00,-1.000000000000000000e+00,-1.000000000000000000e+00,-2.434692382812500000e-01,4.391479492187500000e-01,4.348144531250000000e-01,7.474975585937500000e-01
-3.000000000000000000e+00,1.000000000000000000e+00,8.000000000000000000e+00,0.000000000000000000e+00,-2.000000000000000000e+00,0.000000000000000000e+00,1.000000000000000000e+00,-1.000000000000000000e+00,-2.434692382812500000e-01,4.391479492187500000e-01,4.348144531250000000e-01,7.474975585937500000e-01
3.000000000000000000e+00,5.000000000000000000e+00,0.000000000000000000e+00,-1.000000000000000000e+00,-2.000000000000000000e+00,1.000000000000000000e+00,-1.000000000000000000e+00,-2.000000000000000000e+00,-2.447509765625000000e-01,4.369506835937500000e-01,4.360351562500000000e-01,7.476196289062500000e-01
0.000000000000000000e+00,-1.000000000000000000e+01,-1.000000000000000000e+00,-6.000000000000000000e+00,0.000000000000000000e+00,-3.000000000000000000e+00,-3.000000000000000000e+00,-2.000000000000000000e+00,-2.447509765625000000e-01,4.369506835937500000e-01,4.360351562500000000e-01,7.476196289062500000e-01
1.000000000000000000e+00,1.000000000000000000e+00,3.000000000000000000e+00,-2.000000000000000000e+00,2.000000000000000000e+00,1.000000000000000000e+00,0.000000000000000000e+00,1.000000000000000000e+00,-2.447509765625000000e-01,4.369506835937500000e-01,4.360351562500000000e-01,7.476196289062500000e-01
5.000000000000000000e+00,2.200000000000000000e+01,2.000000000000000000e+00,1.100000000000000000e+01,0.000000000000000000e+00,0.000000000000000000e+00,2.000000000000000000e+00,2.000000000000000000e+00,-2.447509765625000000e-01,4.369506835937500000e-01,4.360351562500000000e-01,7.476196289062500000e-01
-1.200000000000000000e+01,-2.700000000000000000e+01,1.000000000000000000e+01,-2.000000000000000000e+00,-4.000000000000000000e+00,-2.000000000000000000e+00,-2.000000000000000000e+00,-5.000000000000000000e+00,-2.453613281250000000e-01,4.342041015625000000e-01,4.373168945312500000e-01,7.482910156250000000e-01
-1.000000000000000000e+00,-9.000000000000000000e+00,-1.000000000000000000e+01,-2.000000000000000000e+00,1.000000000000000000e+00,-1.000000000000000000e+00,-1.000000000000000000e+00,0.000000000000000000e+00,-2.453613281250000000e-01,4.342041015625000000e-01,4.373168945312500000e-01,7.482910156250000000e-01
-8.000000000000000000e+00,-1.000000000000000000e+00,2.000000000000000000e+00,-2.000000000000000000e+00,-2.000000000000000000e+00,-2.000000000000000000e+00,-4.000000000000000000e+00,-2.000000000000000000e+00,-2.453613281250000000e-01,4.342041015625000000e-01,4.373168945312500000e-01,7.482910156250000000e-01
0.000000000000000000e+00,-2.200000000000000000e+01,-1.200000000000000000e+01,-5.000000000000000000e+00,-1.000000000000000000e+00,1.000000000000000000e+00,-1.000000000000000000e+00,-1.000000000000000000e+00,-2.453613281250000000e-01,4.342041015625000000e-01,4.373168945312500000e-01,7.482910156250000000e-01
4.000000000000000000e+00,4.800000000000000000e+01,-2.000000000000000000e+00,-1.000000000000000000e+01,-3.000000000000000000e+00,-2.000000000000000000e+00,-1.000000000000000000e+00,1.000000000000000000e+00,-2.454833984375000000e-01,4.306640625000000000e-01,4.381103515625000000e-01,7.498168945312500000e-01
0.000000000000000000e+00,-1.400000000000000000e+01,2.200000000000000000e+01,1.700000000000000000e+01,0.000000000000000000e+00,0.000000000000000000e+00,1.000000000000000000e+00,-2.000000000000000000e+00,-2.454833984375000000e-01,4.306640625000000000e-01,4.381103515625000000e-01,7.498168945312500000e-01
0.000000000000000000e+00,1.700000000000000000e+01,2.000000000000000000e+00,1.000000000000000000e+00,1.000000000000000000e+00,0.000000000000000000e+00,0.000000000000000000e+00,-1.000000000000000000e+00,-2.454833984375000000e-01,4.306640625000000000e-01,4.381103515625000000e-01,7.498168945312500000e-01
-2.000000000000000000e+00,-6.000000000000000000e+00,1.000000000000000000e+00,-1.000000000000000000e+00,0.000000000000000000e+00,0.000000000000000000e+00,-1.000000000000000000e+00,-2.000000000000000000e+00,-2.454833984375000000e-01,4.306640625000000000e-01,4.381103515625000000e-01,7.498168945312500000e-01
0.000000000000000000e+00,-7.000000000000000000e+00,-1.100000000000000000e+01,-1.000000000000000000e+01,-3.000000000000000000e+00,-3.000000000000000000e+00,-3.000000000000000000e+00,0.000000000000000000e+00,-2.445678710937500000e-01,4.277954101562500000e-01,4.378051757812500000e-01,7.519531250000000000e-01
1.000000000000000000e+00,-1.000000000000000000e+00,-1.000000000000000000e+01,-9.000000000000000000e+00,-2.000000000000000000e+00,-2.000000000000000000e+00,0.000000000000000000e+00,0.000000000000000000e+00,-2.445678710937500000e-01,4.277954101562500000e-01,4.378051757812500000e-01,7.519531250000000000e-01
1.000000000000000000e+00,2.000000000000000000e+00,4.000000000000000000e+00,1.300000000000000000e+01,6.000000000000000000e+00,1.000000000000000000e+00,0.000000000000000000e+00,1.000000000000000000e+00,-2.445678710937500000e-01,4.277954101562500000e-01,4.378051757812500000e-01,7.519531250000000000e-01
-3.000000000000000000e+00,2.000000000000000000e+00,6.000000000000000000e+00,4.000000000000000000e+00,-7.000000000000000000e+00,-4.000000000000000000e+00,-4.000000000000000000e+00,-4.000000000000000000e+00,-2.445678710937500000e-01,4.277954101562500000e-01,4.378051757812500000e-01,7.519531250000000000e-01
2.000000000000000000e+00,1.500000000000000000e+01,8.000000000000000000e+00,-6.000000000000000000e+00,8.000000000000000000e+00,2.000000000000000000e+00,0.000000000000000000e+00,0.000000000000000000e+00,-2.428588867187500000e-01,4.254150390625000000e-01,4.368896484375000000e-01,7.543945312500000000e-01
-2.000000000000000000e+00,-8.000000000000000000e+00,-1.500000000000000000e+01,-6.000000000000000000e+00,-4.000000000000000000e+00,-1.000000000000000000e+00,1.000000000000000000e+00,0.000000000000000000e+00,-2.428588867187500000e-01,4.254150390625000000e-01,4.368896484375000000e-01,7.543945312500000000e-01
-2.000000000000000000e+00,-1.400000000000000000e+01,-2.000000000000000000e+00,0.000000000000000000e+00,-4.000000000000000000e+00,-2.000000000000000000e+00,-1.000000000000000000e+00,-1.000000000000000000e+00,-2.428588867187500000e-01,4.254150390625000000e-01,4.368896484375000000e-01,7.543945312500000000e-01
0.000000000000000000e+00,2.100000000000000000e+01,1.400000000000000000e+01,7.000000000000000000e+00,5.000000000000000000e+00,-1.000000000000000000e+00,-1.000000000000000000e+00,-2.000000000000000000e+00,-2.428588867187500000e-01,4.254150390625000000e-01,4.368896484375000000e-01,7.543945312500000000e-01
-1.000000000000000000e+00,-2.100000000000000000e+01,-8.000000000000000000e+00,-1.000000000000000000e+00,-4.000000000000000000e+00,1.000000000000000000e+00,2.000000000000000000e+00,0.000000000000000000e+00,-2.407836914062500000e-01,4.228515625000000000e-01,4.366455078125000000e-01,7.565917968750000000e-01
-2.000000000000000000e+00,2.400000000000000000e+01,7.000000000000000000e+00,-6.000000000000000000e+00,-4.000000000000000000e+00,1.000000000000000000e+00,0.000000000000000000e+00,0.000000000000000000e+00,-2.407836914062500000e-01,4.228515625000000000e-01,4.366455078125000000e-01,7.565917968750000000e-01
-2.000000000000000000e+00,1.000000000000000000e+00,0.000000000000000000e+00,-1.000000000000000000e+01,-3.000000000000000000e+00,0.000000000000000000e+00,-2.000000000000000000e+00,-1.000000000000000000e+00,-2.407836914062500000e-01,4.228515625000000000e-01,4.366455078125000000e-01,7.565917968750000000e-01
-4.000000000000000000e+00,-1.300000000000000000e+01,-1.000000000000000000e+01,-6.000000000000000000e+00,-2.000000000000000000e+00,-1.000000000000000000e+00,-1.000000000000000000e+00,-2.000000000000000000e+00,-2.407836914062500000e-01,4.228515625000000000e-01,4.366455078125000000e-01,7.565917968750000000e-01
-1.000000000000000000e+00,1.500000000000000000e+01,8.000000000000000000e+00,1.600000000000000000e+01,1.000000000000000000e+00,1.000000000000000000e+00,-3.000000000000000000e+00,-2.000000000000000000e+00,-2.401123046875000000e-01,4.196166992187500000e-01,4.375610351562500000e-01,7.581176757812500000e-01
-2.000000000000000000e+00,-1.700000000000000000e+01,-1.200000000000000000e+01,4.000000000000000000e+00,3.000000000000000000e+00,2.000000000000000000e+00,-1.000000000000000000e+00,0.000000000000000000e+00,-2.401123046875000000e-01,4.196166992187500000e-01,4.375610351562500000e-01,7.581176757812500000e-01
3.000000000000000000e+00,8.000000000000000000e+00,6.000000000000000000e+00,1.000000000000000000e+00,-1.000000000000000000e+00,0.000000000000000000e+00,1.000000000000000000e+00,-1.000000000000000000e+00,-2.401123046875000000e-01,4.196166992187500000e-01,4.375610351562500000e-01,7.581176757812500000e-01
0.000000000000000000e+00,-1.400000000000000000e+01,-3.000000000000000000e+00,-6.000000000000000000e+00,0.000000000000000000e+00,-1.000000000000000000e+00,-1.000000000000000000e+00,-2.000000000000000000e+00,-2.401123046875000000e-01,4.196166992187500000e-01,4.375610351562500000e-01,7.581176757812500000e-01
0.000000000000000000e+00,0.000000000000000000e+00,-3.000000000000000000e+00,2.000000000000000000e+00,-3.000000000000000000e+00,-2.000000000000000000e+00,1.000000000000000000e+00,1.000000000000000000e+00,-2.397460937500000000e-01,4.162597656250000000e-01,4.379882812500000000e-01,7.598266601562500000e-01
-2.000000000000000000e+00,-7.000000000000000000e+00,-7.000000000000000000e+00,-3.000000000000000000e+00,-3.000000000000000000e+00,-2.000000000000000000e+00,-2.000000000000000000e+00,-1.000000000000000000e+00,-2.397460937500000000e-01,4.162597656250000000e-01,4.379882812500000000e-01,7.598266601562500000e-01
-5.000000000000000000e+00,-1.500000000000000000e+01,-3.000000000000000000e+00,-4.000000000000000000e+00,-2.000000000000000000e+00,-3.000000000000000000e+00,-1.000000000000000000e+00,-1.000000000000000000e+00,-2.397460937500000000e-01,4.162597656250000000e-01,4.379882812500000000e-01,7.598266601562500000e-01
-2.000000000000000000e+00,3.000000000000000000e+00,0.000000000000000000e+00,-2.000000000000000000e+00,1.000000000000000000e+00,0.000000000000000000e+00,-1.000000000000000000e+00,-1.000000000000000000e+00,-2.397460937500000000e-01,4.162597656250000000e-01,4.379882812500000000e-01,7.598266601562500000e-01
0.000000000000000000e+00,5.000000000000000000e+00,-1.000000000000000000e+00,1.000000000000000000e+00,-1.000000000000000000e+00,0.000000000000000000e+00,0.000000000000000000e+00,0.000000000000000000e+00,-2.386474609375000000e-01,4.146728515625000000e-01,4.373168945312500000e-01,7.614135742187500000e-01
0.000000000000000000e+00,0.000000000000000000e+00,-1.000000000000000000e+00,-3.000000000000000000e+00,0.000000000000000000e+00,-1.000000000000000000e+00,-1.000000000000000000e+00,0.000000000000000000e+00,-2.386474609375000000e-01,4.146728515625000000e-01,4.373168945312500000e-01,7.614135742187500000e-01
0.000000000000000000e+00,-8.000000000000000000e+00,-4.000000000000000000e+00,2.000000000000000000e+00,-1.000000000000000000e+00,-2.000000000000000000e+00,1.000000000000000000e+00,1.000000000000000000e+00,-2.386474609375000000e-01,4.146728515625000000e-01,4.373168945312500000e-01,7.614135742187500000e-01
-2.000000000000000000e+00,2.000000000000000000e+01,2.500000000000000000e+01,6.000000000000000000e+00,2.000000000000000000e+00,2.000000000000000000e+00,1.000000000000000000e+00,-1.000000000000000000e+00,-2.386474609375000000e-01,4.146728515625000000e-01,4.373168945312500000e-01,7.614135742187500000e-01
