-5.000000000000000000e+00,-2.000000000000000000e+00,-2.700000000000000000e+01,3.300000000000000000e+01,-7.000000000000000000e+00,-4.000000000000000000e+00,-6.000000000000000000e+00,-3.000000000000000000e+00,-2.514648437500000000e-01,5.001220703125000000e-01,7.885742187500000000e-02,8.248291015625000000e-01
-1.000000000000000000e+00,-4.000000000000000000e+00,1.700000000000000000e+01,1.000000000000000000e+01,8.000000000000000000e+00,2.000000000000000000e+00,2.000000000000000000e+00,-2.000000000000000000e+00,-2.514648437500000000e-01,5.001220703125000000e-01,7.885742187500000000e-02,8.248291015625000000e-01
5.000000000000000000e+00,8.000000000000000000e+00,1.000000000000000000e+01,-3.000000000000000000e+01,-3.000000000000000000e+00,2.000000000000000000e+00,2.000000000000000000e+00,3.000000000000000000e+00,-2.514648437500000000e-01,5.001220703125000000e-01,7.885742187500000000e-02,8.248291015625000000e-01
0.000000000000000000e+00,-5.000000000000000000e+00,1.500000000000000000e+01,1.900000000000000000e+01,3.000000000000000000e+00,-2.000000000000000000e+00,-2.000000000000000000e+00,1.000000000000000000e+00,-2.514648437500000000e-01,5.001220703125000000e-01,7.885742187500000000e-02,8.248291015625000000e-01
0.000000000000000000e+00,1.000000000000000000e+00,2.000000000000000000e+00,-4.000000000000000000e+01,-2.900000000000000000e+01,-6.000000000000000000e+00,-3.000000000000000000e+00,-1.000000000000000000e+00,-2.518310546875000000e-01,4.996337890625000000e-01,7.891845703125000000e-02,8.250122070312500000e-01
-2.000000000000000000e+00,-8.000000000000000000e+00,-1.300000000000000000e+01,2.100000000000000000e+01,2.700000000000000000e+01,3.000000000000000000e+00,-4.000000000000000000e+00,-1.000000000000000000e+00,-2.518310546875000000e-01,4.996337890625000000e-01,7.891845703125000000e-02,8.250122070312500000e-01
-4.000000000000000000e+00,8.000000000000000000e+00,2.600000000000000000e+01,8.000000000000000000e+00,-1.100000000000000000e+01,-7.000000000000000000e+00,-2.000000000000000000e+00,-4.000000000000000000e+00,-2.518310546875000000e-01,4.996337890625000000e-01,7.891845703125000000e-02,8.250122070312500000e-01
0.000000000000000000e+00,-2.000000000000000000e+00,1.000000000000000000e+00,-8.000000000000000000e+00,1.800000000000000000e+01,8.000000000000000000e+00,2.000000000000000000e+00,1.000000000000000000e+00,-2.518310546875000000e-01,4.996337890625000000e-01,7.891845703125000000e-02,8.250122070312500000e-01
3.000000000000000000e+00,1.600000000000000000e+01,1.500000000000000000e+01,1.000000000000000000e+00,-9.000000000000000000e+00,1.000000000000000000e+00,1.000000000000000000e+00,2.000000000000000000e+00,-2.514038085937500000e-01,4.992065429687500000e-01,7.873535156250000000e-02,8.254394531250000000e-01
1.000000000000000000e+00,0.000000000000000000e+00,3.000000000000000000e+00,7.000000000000000000e+00,1.800000000000000000e+01,5.000000000000000000e+00,3.000000000000000000e+00,1.000000000000000000e+00,-2.514038085937500000e-01,4.992065429687500000e-01,7.873535156250000000e-02,8.254394531250000000e-01
-1.000000000000000000e+00,-2.000000000000000000e+00,-2.000000000000000000e+01,-9.000000000000000000e+00,-4.000000000000000000e+00,-4.000000000000000000e+00,0.000000000000000000e+00,-1.000000000000000000e+00,-2.514038085937500000e-01,4.992065429687500000e-01,7.873535156250000000e-02,8.254394531250000000e-01
0.000000000000000000e+00,-7.000000000000000000e+00,3.000000000000000000e+01,-3.200000000000000000e+01,-8.000000000000000000e+00,-6.000000000000000000e+00,-3.000000000000000000e+00,-1.000000000000000000e+00,-2.514038085937500000e-01,4.992065429687500000e-01,7.873535156250000000e-02,8.254394531250000000e-01
-9.000000000000000000e+00,5.000000000000000000e+00,-2.800000000000000000e+01,7.900000000000000000e+01,1.000000000000000000e+01,-3.000000000000000000e+00,-7.000000000000000000e+00,-7.000000000000000000e+00,-2.515869140625000000e-01,4.985961914062500000e-01,7.916259765625000000e-02,8.256835937500000000e-01
-1.000000000000000000e+00,3.000000000000000000e+00,7.000000000000000000e+00,-1.700000000000000000e+01,-4.000000000000000000e+00,-1.000000000000000000e+00,-3.000000000000000000e+00,-1.000000000000000000e+00,-2.515869140625000000e-01,4.985961914062500000e-01,7.916259765625000000e-02,8.256835937500000000e-01
2.000000000000000000e+00,0.000000000000000000e+00,-5.000000000000000000e+00,-1.000000000000000000e+00,0.000000000000000000e+00,1.000000000000000000e+00,-1.000000000000000000e+00,3.000000000000000000e+00,-2.515869140625000000e-01,4.985961914062500000e-01,7.916259765625000000e-02,8.256835937500000000e-01
-4.000000000000000000e+00,-9.000000000000000000e+00,7.000000000000000000e+00,1.100000000000000000e+01,1.100000000000000000e+01,-2.000000000000000000e+00,-3.000000000000000000e+00,-4.000000000000000000e+00,-2.515869140625000000e-01,4.985961914062500000e-01,7.916259765625000000e-02,8.256835937500000000e-01
2.000000000000000000e+00,-3.000000000000000000e+00,-8.000000000000000000e+00,-3.300000000000000000e+01,-5.000000000000000000e+00,1.000000000000000000e+00,3.000000000000000000e+00,2.000000000000000000e+00,-2.523803710937500000e-01,4.977416992187500000e-01,7.977294921875000000e-02,8.258666992187500000e-01
-1.000000000000000000e+00,-2.000000000000000000e+00,-3.400000000000000000e+01,-9.000000000000000000e+00,-3.000000000000000000e+00,0.000000000000000000e+00,-2.000000000000000000e+00,-2.000000000000000000e+00,-2.523803710937500000e-01,4.977416992187500000e-01,7.977294921875000000e-02,8.258666992187500000e-01
-1.000000000000000000e+00,-6.000000000000000000e+00,6.000000000000000000e+00,1.900000000000000000e+01,-5.000000000000000000e+00,0.000000000000000000e+00,3.000000000000000000e+00,1.000000000000000000e+00,-2.523803710937500000e-01,4.977416992187500000e-01,7.977294921875000000e-02,8.258666992187500000e-01
1.000000000000000000e+00,3.000000000000000000e+00,9.000000000000000000e+00,5.000000000000000000e+00,-7.000000000000000000e+00,-2.000000000000000000e+00,-1.000000000000000000e+00,-1.000000000000000000e+00,-2.523803710937500000e-01,4.977416992187500000e-01,7.977294921875000000e-02,8.258666992187500000e-01
-3.000000000000000000e+00,-2.000000000000000000e+00,-2.400000000000000000e+01,-3.500000000000000000e+01,4.000000000000000000e+00,1.000000000000000000e+00,-4.000000000000000000e+00,-3.000000000000000000e+00,-2.531127929687500000e-01,4.970703125000000000e-01,8.007812500000000000e-02,8.260498046875000000e-01
-3.000000000000000000e+00,-3.000000000000000000e+00,2.000000000000000000e+00,-3.600000000000000000e+01,-2.200000000000000000e+01,-1.100000000000000000e+01,-3.000000000000000000e+00,-3.000000000000000000e+00,-2.531127929687500000e-01,4.970703125000000000e-01,8.007812500000000000e-02,8.260498046875000000e-01
1.000000000000000000e+00,1.000000000000000000e+00,8.000000000000000000e+00,1.200000000000000000e+01,3.100000000000000000e+01,9.000000000000000000e+00,0.000000000000000000e+00,0.000000000000000000e+00,-2.531127929687500000e-01,4.970703125000000000e-01,8.007812500000000000e-02,8.260498046875000000e-01
-1.000000000000000000e+00,0.000000000000000000e+00,-1.200000000000000000e+01,7.400000000000000000e+01,1.800000000000000000e+01,3.000000000000000000e+00,3.000000000000000000e+00,-2.000000000000000000e+00,-2.531127929687500000e-01,4.970703125000000000e-01,8.007812500000000000e-02,8.260498046875000000e-01
0.000000000000000000e+00,-4.000000000000000000e+00,1.000000000000000000e+01,-5.700000000000000000e+01,-7.000000000000000000e+00,-2.000000000000000000e+00,-2.000000000000000000e+00,-1.000000000000000000e+00,-2.534179687500000000e-01,4.965820312500000000e-01,8.026123046875000000e-02,8.262329101562500000e-01
0.000000000000000000e+00,-1.000000000000000000e+00,1.400000000000000000e+01,4.000000000000000000e+01,1.900000000000000000e+01,3.000000000000000000e+00,4.000000000000000000e+00,0.000000000000000000e+00,-2.534179687500000000e-01,4.965820312500000000e-01,8.026123046875000000e-02,8.262329101562500000e-01
-3.000000000000000000e+00,3.000000000000000000e+00,1.900000000000000000e+01,-1.100000000000000000e+01,-9.000000000000000000e+00,-2.000000000000000000e+00,-4.000000000000000000e+00,-3.000000000000000000e+00,-2.534179687500000000e-01,4.965820312500000000e-01,8.026123046875000000e-02,8.262329101562500000e-01
-5.000000000000000000e+00,-4.000000000000000000e+00,-3.900000000000000000e+01,-2.000000000000000000e+01,-2.100000000000000000e+01,-7.000000000000000000e+00,-8.000000000000000000e+00,-4.000000000000000000e+00,-2.534179687500000000e-01,4.965820312500000000e-01,8.026123046875000000e-02,8.262329101562500000e-01
0.000000000000000000e+00,-3.000000000000000000e+00,8.000000000000000000e+00,1.700000000000000000e+01,1.700000000000000000e+01,8.000000000000000000e+00,1.200000000000000000e+01,3.000000000000000000e+00,-2.537231445312500000e-01,4.960937500000000000e-01,8.074951171875000000e-02,8.264160156250000000e-01
5.000000000000000000e+00,4.000000000000000000e+00,-1.100000000000000000e+01,-8.000000000000000000e+00,-7.000000000000000000e+00,-4.000000000000000000e+00,1.000000000000000000e+00,4.000000000000000000e+00,-2.537231445312500000e-01,4.960937500000000000e-01,8.074951171875000000e-02,8.264160156250000000e-01
0.000000000000000000e+00,-1.000000000000000000e+00,2.500000000000000000e+01,2.000000000000000000e+00,-3.000000000000000000e+00,-2.000000000000000000e+00,1.000000000000000000e+00,0.000000000000000000e+00,-2.537231445312500000e-01,4.960937500000000000e-01,8.074951171875000000e-02,8.264160156250000000e-01
0.000000000000000000e+00,1.000000000000000000e+00,-2.300000000000000000e+01,7.000000000000000000e+00,7.000000000000000000e+00,2.000000000000000000e+00,-3.000000000000000000e+00,1.000000000000000000e+00,-2.537231445312500000e-01,4.960937500000000000e-01,8.074951171875000000e-02,8.264160156250000000e-01
-2.000000000000000000e+00,-4.000000000000000000e+00,-1.000000000000000000e+01,-2.500000000000000000e+01,-1.300000000000000000e+01,-4.000000000000000000e+00,-3.000000000000000000e+00,-4.000000000000000000e+00,-2.541503906250000000e-01,4.956054687500000000e-01,8.154296875000000000e-02,8.264770507812500000e-01
-2.000000000000000000e+00,3.000000000000000000e+00,1.000000000000000000e+01,-1.000000000000000000e+00,-2.700000000000000000e+01,-5.000000000000000000e+00,-5.000000000000000000e+00,-2.000000000000000000e+00,-2.541503906250000000e-01,4.956054687500000000e-01,8.154296875000000000e-02,8.264770507812500000e-01
-2.000000000000000000e+00,-3.000000000000000000e+00,-1.200000000000000000e+01,3.000000000000000000e+01,1.100000000000000000e+01,2.000000000000000000e+00,0.000000000000000000e+00,-1.000000000000000000e+00,-2.541503906250000000e-01,4.956054687500000000e-01,8.154296875000000000e-02,8.264770507812500000e-01
-3.000000000000000000e+00,-1.000000000000000000e+00,-3.000000000000000000e+00,-2.000000000000000000e+00,1.000000000000000000e+01,0.000000000000000000e+00,-1.100000000000000000e+01,-5.000000000000000000e+00,-2.541503906250000000e-01,4.956054687500000000e-01,8.154296875000000000e-02,8.264770507812500000e-01
4.000000000000000000e+00,3.000000000000000000e+00,-2.000000000000000000e+00,-3.000000000000000000e+00,-2.000000000000000000e+00,2.000000000000000000e+00,8.000000000000000000e+00,4.000000000000000000e+00,-2.543945312500000000e-01,4.954223632812500000e-01,8.233642578125000000e-02,8.264160156250000000e-01
-3.000000000000000000e+00,-4.000000000000000000e+00,9.000000000000000000e+00,-3.100000000000000000e+01,-6.000000000000000000e+00,-5.000000000000000000e+00,0.000000000000000000e+00,0.000000000000000000e+00,-2.543945312500000000e-01,4.954223632812500000e-01,8.233642578125000000e-02,8.264160156250000000e-01
-3.000000000000000000e+00,-4.000000000000000000e+00,5.000000000000000000e+00,3.100000000000000000e+01,-7.000000000000000000e+00,-6.000000000000000000e+00,-5.000000000000000000e+00,-4.000000000000000000e+00,-2.543945312500000000e-01,4.954223632812500000e-01,8.233642578125000000e-02,8.264160156250000000e-01
-1.000000000000000000e+00,-3.000000000000000000e+00,5.000000000000000000e+00,1.600000000000000000e+01,-1.300000000000000000e+01,-4.000000000000000000e+00,1.000000000000000000e+00,-1.000000000000000000e+00,-2.543945312500000000e-01,4.954223632812500000e-01,8.233642578125000000e-02,8.264160156250000000e-01
-3.000000000000000000e+00,1.000000000000000000e+00,1.400000000000000000e+01,2.000000000000000000e+00,6.000000000000000000e+00,2.000000000000000000e+00,-5.000000000000000000e+00,-2.000000000000000000e+00,-2.548217773437500000e-01,4.956054687500000000e-01,8.312988281250000000e-02,8.261108398437500000e-01
-1.000000000000000000e+00,-2.000000000000000000e+00,-2.400000000000000000e+01,6.000000000000000000e+00,5.000000000000000000e+00,4.000000000000000000e+00,-6.000000000000000000e+00,-3.000000000000000000e+00,-2.548217773437500000e-01,4.956054687500000000e-01,8.312988281250000000e-02,8.261108398437500000e-01
-3.000000000000000000e+00,-3.000000000000000000e+00,-1.800000000000000000e+01,-4.500000000000000000e+01,-1.400000000000000000e+01,-6.000000000000000000e+00,-3.000000000000000000e+00,-3.000000000000000000e+00,-2.548217773437500000e-01,4.956054687500000000e-01,8.312988281250000000e-02,8.261108398437500000e-01
3.000000000000000000e+00,2.000000000000000000e+00,9.000000000000000000e+00,-2.900000000000000000e+01,-2.200000000000000000e+01,-2.000000000000000000e+00,4.000000000000000000e+00,5.000000000000000000e+00,-2.548217773437500000e-01,4.956054687500000000e-01,8.312988281250000000e-02,8.261108398437500000e-01
-3.000000000000000000e+00,-2.000000000000000000e+00,1.400000000000000000e+01,7.400000000000000000e+01,4.400000000000000000e+01,7.000000000000000000e+00,1.000000000000000000e+00,-1.000000000000000000e+00,-2.545776367187500000e-01,4.953613281250000000e-01,8.386230468750000000e-02,8.262329101562500000e-01
0.000000000000000000e+00,-4.000000000000000000e+00,5.000000000000000000e+00,1.000000000000000000e+00,-5.000000000000000000e+00,0.000000000000000000e+00,2.000000000000000000e+00,-1.000000000000000000e+00,-2.545776367187500000e-01,4.953613281250000000e-01,8.386230468750000000e-02,8.262329101562500000e-01
-1.000000000000000000e+00,0.000000000000000000e+00,-7.000000000000000000e+00,-1.500000000000000000e+01,-3.000000000000000000e+00,2.000000000000000000e+00,0.000000000000000000e+00,-2.000000000000000000e+00,-2.545776367187500000e-01,4.953613281250000000e-01,8.386230468750000000e-02,8.262329101562500000e-01
-2.000000000000000000e+00,-2.000000000000000000e+00,1.000000000000000000e+00,-2.300000000000000000e+01,-1.100000000000000000e+01,-6.000000000000000000e+00,-4.000000000000000000e+00,-1.000000000000000000e+00,-2.545776367187500000e-01,4.953613281250000000e-01,8.386230468750000000e-02,8.262329101562500000e-01
-1.000000000000000000e+00,3.000000000000000000e+00,1.000000000000000000e+01,-1.300000000000000000e+01,-1.600000000000000000e+01,-6.000000000000000000e+00,-5.000000000000000000e+00,-3.000000000000000000e+00,-2.537841796875000000e-01,4.953613281250000000e-01,8.453369140625000000e-02,8.264160156250000000e-01
-2.000000000000000000e+00,-4.000000000000000000e+00,-5.000000000000000000e+00,3.000000000000000000e+00,2.000000000000000000e+00,0.000000000000000000e+00,0.000000000000000000e+00,-2.000000000000000000e+00,-2.537841796875000000e-01,4.953613281250000000e-01,8.453369140625000000e-02,8.264160156250000000e-01
-2.000000000000000000e+00,-1.000000000000000000e+00,-1.800000000000000000e+01,1.100000000000000000e+01,4.000000000000000000e+00,2.000000000000000000e+00,-2.000000000000000000e+00,-3.000000000000000000e+00,-2.537841796875000000e-01,4.953613281250000000e-01,8.453369140625000000e-02,8.264160156250000000e-01
0.000000000000000000e+00,-1.000000000000000000e+00,1.600000000000000000e+01,2.000000000000000000e+00,4.000000000000000000e+00,1.000000000000000000e+00,2.000000000000000000e+00,0.000000000000000000e+00,-2.537841796875000000e-01,4.953613281250000000e-01,8.453369140625000000e-02,8.264160156250000000e-01
-3.000000000000000000e+00,-2.000000000000000000e+00,-7.000000000000000000e+00,-1.300000000000000000e+01,-1.600000000000000000e+01,-1.000000000000000000e+01,-8.000000000000000000e+00,-2.000000000000000000e+00,-2.530517578125000000e-01,4.958496093750000000e-01,8.551025390625000000e-02,8.262329101562500000e-01
1.000000000000000000e+00,4.000000000000000000e+00,2.000000000000000000e+01,6.000000000000000000e+00,4.000000000000000000e+00,1.000000000000000000e+00,3.000000000000000000e+00,1.000000000000000000e+00,-2.530517578125000000e-01,4.958496093750000000e-01,8.551025390625000000e-02,8.262329101562500000e-01
-2.000000000000000000e+00,-5.000000000000000000e+00,2.000000000000000000e+00,-9.000000000000000000e+00,-6.000000000000000000e+00,-2.000000000000000000e+00,0.000000000000000000e+00,0.000000000000000000e+00,-2.530517578125000000e-01,4.958496093750000000e-01,8.551025390625000000e-02,8.262329101562500000e-01
1.000000000000000000e+00,3.000000000000000000e+00,-3.000000000000000000e+00,-7.000000000000000000e+00,1.000000000000000000e+01,5.000000000000000000e+00,6.000000000000000000e+00,2.000000000000000000e+00,-2.530517578125000000e-01,4.958496093750000000e-01,8.551025390625000000e-02,8.262329101562500000e-01
-1.000000000000000000e+00,-1.000000000000000000e+00,6.000000000000000000e+00,4.100000000000000000e+01,1.100000000000000000e+01,4.000000000000000000e+00,-2.000000000000000000e+00,0.000000000000000000e+00,-2.525634765625000000e-01,4.959716796875000000e-01,8.630371093750000000e-02,8.262329101562500000e-01
1.000000000000000000e+00,2.000000000000000000e+00,0.000000000000000000e+00,-3.700000000000000000e+01,-2.400000000000000000e+01,-4.000000000000000000e+00,-5.000000000000000000e+00,-2.000000000000000000e+00,-2.525634765625000000e-01,4.959716796875000000e-01,8.630371093750000000e-02,8.262329101562500000e-01
3.000000000000000000e+00,4.000000000000000000e+00,1.000000000000000000e+01,2.200000000000000000e+01,1.200000000000000000e+01,-1.000000000000000000e+00,0.000000000000000000e+00,-1.000000000000000000e+00,-2.525634765625000000e-01,4.959716796875000000e-01,8.630371093750000000e-02,8.262329101562500000e-01
-3.000000000000000000e+00,-3.000000000000000000e+00,2.000000000000000000e+00,7.000000000000000000e+00,1.000000000000000000e+00,-3.000000000000000000e+00,0.000000000000000000e+00,-3.000000000000000000e+00,-2.525634765625000000e-01,4.959716796875000000e-01,8.630371093750000000e-02,8.262329101562500000e-01
-3.000000000000000000e+00,-3.000000000000000000e+00,-1.000000000000000000e+01,-3.700000000000000000e+01,9.000000000000000000e+00,1.000000000000000000e+00,0.000000000000000000e+00,-3.000000000000000000e+00,-2.521362304687500000e-01,4.966430664062500000e-01,8.685302734375000000e-02,8.259277343750000000e-01
-4.000000000000000000e+00,-6.000000000000000000e+00,-6.000000000000000000e+00,4.000000000000000000e+00,-1.000000000000000000e+01,-4.000000000000000000e+00,-2.000000000000000000e+00,-1.000000000000000000e+00,-2.521362304687500000e-01,4.966430664062500000e-01,8.685302734375000000e-02,8.259277343750000000e-01
3.000000000000000000e+00,3.000000000000000000e+00,9.000000000000000000e+00,-2.900000000000000000e+01,-2.000000000000000000e+00,2.000000000000000000e+00,2.000000000000000000e+00,2.000000000000000000e+00,-2.521362304687500000e-01,4.966430664062500000e-01,8.685302734375000000e-02,8.259277343750000000e-01
-5.000000000000000000e+00,-5.000000000000000000e+00,-1.500000000000000000e+01,-2.100000000000000000e+01,-1.300000000000000000e+01,-5.000000000000000000e+00,-6.000000000000000000e+00,-5.000000000000000000e+00,-2.521362304687500000e-01,4.966430664062500000e-01,8.685302734375000000e-02,8.259277343750000000e-01
1.000000000000000000e+00,-1.000000000000000000e+00,-4.000000000000000000e+00,3.400000000000000000e+01,-6.000000000000000000e+00,0.000000000000000000e+00,-2.000000000000000000e+00,-2.000000000000000000e+00,-2.515869140625000000e-01,4.972534179687500000e-01,8.740234375000000000e-02,8.256835937500000000e-01
2.000000000000000000e+00,3.000000000000000000e+00,4.000000000000000000e+00,4.000000000000000000e+00,4.000000000000000000e+00,4.000000000000000000e+00,2.000000000000000000e+00,4.000000000000000000e+00,-2.515869140625000000e-01,4.972534179687500000e-01,8.740234375000000000e-02,8.256835937500000000e-01
-1.000000000000000000e+00,-2.000000000000000000e+00,-5.000000000000000000e+00,-1.000000000000000000e+00,-1.000000000000000000e+01,-6.000000000000000000e+00,-2.000000000000000000e+00,-1.000000000000000000e+00,-2.515869140625000000e-01,4.972534179687500000e-01,8.740234375000000000e-02,8.256835937500000000e-01
0.000000000000000000e+00,-1.000000000000000000e+00,-1.000000000000000000e+00,-1.700000000000000000e+01,1.000000000000000000e+00,3.000000000000000000e+00,3.000000000000000000e+00,1.000000000000000000e+00,-2.515869140625000000e-01,4.972534179687500000e-01,8.740234375000000000e-02,8.256835937500000000e-01
-4.000000000000000000e+00,-5.000000000000000000e+00,-1.700000000000000000e+01,-4.200000000000000000e+01,-2.100000000000000000e+01,-6.000000000000000000e+00,-5.000000000000000000e+00,-4.000000000000000000e+00,-2.512817382812500000e-01,4.970703125000000000e-01,8.752441406250000000e-02,8.258666992187500000e-01
-2.000000000000000000e+00,2.000000000000000000e+00,8.000000000000000000e+00,2.500000000000000000e+01,9.000000000000000000e+00,2.000000000000000000e+00,-1.000000000000000000e+00,-3.000000000000000000e+00,-2.512817382812500000e-01,4.970703125000000000e-01,8.752441406250000000e-02,8.258666992187500000e-01
-4.000000000000000000e+00,-7.000000000000000000e+00,-1.000000000000000000e+01,-6.000000000000000000e+00,2.000000000000000000e+00,0.000000000000000000e+00,-3.000000000000000000e+00,-5.000000000000000000e+00,-2.512817382812500000e-01,4.970703125000000000e-01,8.752441406250000000e-02,8.258666992187500000e-01
-3.000000000000000000e+00,-4.000000000000000000e+00,-3.000000000000000000e+00,9.000000000000000000e+00,4.000000000000000000e+00,-5.000000000000000000e+00,-1.000000000000000000e+00,0.000000000000000000e+00,-2.512817382812500000e-01,4.970703125000000000e-01,8.752441406250000000e-02,8.258666992187500000e-01
0.000000000000000000e+00,0.000000000000000000e+00,2.000000000000000000e+00,-4.000000000000000000e+00,-2.000000000000000000e+00,1.000000000000000000e+00,2.000000000000000000e+00,0.000000000000000000e+00,-2.507324218750000000e-01,4.970092773437500000e-01,8.776855468750000000e-02,8.260498046875000000e-01
-1.000000000000000000e+00,-1.000000000000000000e+00,0.000000000000000000e+00,-2.600000000000000000e+01,0.000000000000000000e+00,1.000000000000000000e+00,0.000000000000000000e+00,1.000000000000000000e+00,-2.507324218750000000e-01,4.970092773437500000e-01,8.776855468750000000e-02,8.260498046875000000e-01
-1.000000000000000000e+00,2.000000000000000000e+00,-5.000000000000000000e+00,2.100000000000000000e+01,2.000000000000000000e+00,0.000000000000000000e+00,0.000000000000000000e+00,-2.000000000000000000e+00,-2.507324218750000000e-01,4.970092773437500000e-01,8.776855468750000000e-02,8.260498046875000000e-01
1.000000000000000000e+00,1.000000000000000000e+00,9.000000000000000000e+00,5.000000000000000000e+00,2.000000000000000000e+00,-2.000000000000000000e+00,-2.000000000000000000e+00,-1.000000000000000000e+00,-2.507324218750000000e-01,4.970092773437500000e-01,8.776855468750000000e-02,8.260498046875000000e-01
2.000000000000000000e+00,-1.000000000000000000e+00,-9.000000000000000000e+00,-6.400000000000000000e+01,1.900000000000000000e+01,0.000000000000000000e+00,-8.000000000000000000e+00,-3.000000000000000000e+00,-2.501220703125000000e-01,4.963378906250000000e-01,8.752441406250000000e-02,8.266601562500000000e-01
2.000000000000000000e+00,4.000000000000000000e+00,1.400000000000000000e+01,6.800000000000000000e+01,4.500000000000000000e+01,1.000000000000000000e+01,1.200000000000000000e+01,1.000000000000000000e+00,-2.501220703125000000e-01,4.963378906250000000e-01,8.752441406250000000e-02,8.266601562500000000e-01
-1.000000000000000000e+00,-3.000000000000000000e+00,2.200000000000000000e+01,4.300000000000000000e+01,-5.000000000000000000e+00,-2.000000000000000000e+00,0.000000000000000000e+00,3.000000000000000000e+00,-2.501220703125000000e-01,4.963378906250000000e-01,8.752441406250000000e-02,8.266601562500000000e-01
-3.000000000000000000e+00,-7.000000000000000000e+00,-3.200000000000000000e+01,-6.000000000000000000e+00,-1.000000000000000000e+00,-1.000000000000000000e+00,-5.000000000000000000e+00,-4.000000000000000000e+00,-2.501220703125000000e-01,4.963378906250000000e-01,8.752441406250000000e-02,8.266601562500000000e-01
-3.000000000000000000e+00,-2.000000000000000000e+00,-1.800000000000000000e+01,4.000000000000000000e+00,-1.900000000000000000e+01,-8.000000000000000000e+00,-3.000000000000000000e+00,-2.000000000000000000e+00,-2.496948242187500000e-01,4.953613281250000000e-01,8.715820312500000000e-02,8.273925781250000000e-01
-1.000000000000000000e+00,-4.000000000000000000e+00,-1.400000000000000000e+01,-3.600000000000000000e+01,-8.000000000000000000e+00,-2.000000000000000000e+00,-8.000000000000000000e+00,-4.000000000000000000e+00,-2.496948242187500000e-01,4.953613281250000000e-01,8.715820312500000000e-02,8.273925781250000000e-01
-1.000000000000000000e+00,-2.000000000000000000e+00,-2.000000000000000000e+00,-1.400000000000000000e+01,-8.000000000000000000e+00,1.000000000000000000e+00,0.000000000000000000e+00,1.000000000000000000e+00,-2.496948242187500000e-01,4.953613281250000000e-01,8.715820312500000000e-02,8.273925781250000000e-01
1.000000000000000000e+00,2.000000000000000000e+00,1.200000000000000000e+01,1.100000000000000000e+01,1.500000000000000000e+01,2.000000000000000000e+00,3.000000000000000000e+00,0.000000000000000000e+00,-2.496948242187500000e-01,4.953613281250000000e-01,8.715820312500000000e-02,8.273925781250000000e-01
-1.000000000000000000e+00,-1.000000000000000000e+00,1.700000000000000000e+01,1.300000000000000000e+01,-2.000000000000000000e+00,-4.000000000000000000e+00,-5.000000000000000000e+00,-2.000000000000000000e+00,-2.490844726562500000e-01,4.943237304687500000e-01,8.673095703125000000e-02,8.282470703125000000e-01
2.000000000000000000e+00,-1.000000000000000000e+00,-1.800000000000000000e+01,6.000000000000000000e+00,-4.000000000000000000e+00,-2.000000000000000000e+00,1.000000000000000000e+00,0.000000000000000000e+00,-2.490844726562500000e-01,4.943237304687500000e-01,8.673095703125000000e-02,8.282470703125000000e-01
-1.000000000000000000e+00,-1.000000000000000000e+00,-1.100000000000000000e+01,-1.100000000000000000e+01,-4.000000000000000000e+00,0.000000000000000000e+00,1.000000000000000000e+00,-1.000000000000000000e+00,-2.490844726562500000e-01,4.943237304687500000e-01,8.673095703125000000e-02,8.282470703125000000e-01
-1.000000000000000000e+00,-1.000000000000000000e+00,1.300000000000000000e+01,-1.500000000000000000e+01,-2.100000000000000000e+01,-5.000000000000000000e+00,-6.000000000000000000e+00,-1.000000000000000000e+00,-2.490844726562500000e-01,4.943237304687500000e-01,8.673095703125000000e-02,8.282470703125000000e-01
1.000000000000000000e+00,0.000000000000000000e+00,-9.000000000000000000e+00,4.000000000000000000e+00,2.000000000000000000e+00,0.000000000000000000e+00,6.000000000000000000e+00,1.000000000000000000e+00,-2.484741210937500000e-01,4.932861328125000000e-01,8.648681640625000000e-02,8.290405273437500000e-01
-4.000000000000000000e+00,-3.000000000000000000e+00,9.000000000000000000e+00,-1.000000000000000000e+01,0.000000000000000000e+00,-2.000000000000000000e+00,-3.000000000000000000e+00,-3.000000000000000000e+00,-2.484741210937500000e-01,4.932861328125000000e-01,8.648681640625000000e-02,8.290405273437500000e-01
-3.000000000000000000e+00,-2.000000000000000000e+00,-5.000000000000000000e+00,-1.200000000000000000e+01,8.000000000000000000e+00,-2.000000000000000000e+00,-9.000000000000000000e+00,-2.000000000000000000e+00,-2.484741210937500000e-01,4.932861328125000000e-01,8.648681640625000000e-02,8.290405273437500000e-01
3.000000000000000000e+00,1.000000000000000000e+00,-8.000000000000000000e+00,5.000000000000000000e+00,-2.000000000000000000e+00,2.000000000000000000e+00,5.000000000000000000e+00,4.000000000000000000e+00,-2.484741210937500000e-01,4.932861328125000000e-01,8.648681640625000000e-02,8.290405273437500000e-01
0.000000000000000000e+00,-1.000000000000000000e+00,7.000000000000000000e+00,1.500000000000000000e+01,3.000000000000000000e+00,1.000000000000000000e+00,-1.000000000000000000e+00,0.000000000000000000e+00,-2.484130859375000000e-01,4.925537109375000000e-01,8.660888671875000000e-02,8.295288085937500000e-01
-2.000000000000000000e+00,1.000000000000000000e+00,1.600000000000000000e+01,-4.100000000000000000e+01,-2.300000000000000000e+01,-7.000000000000000000e+00,-3.000000000000000000e+00,-1.000000000000000000e+00,-2.484130859375000000e-01,4.925537109375000000e-01,8.660888671875000000e-02,8.295288085937500000e-01
-2.000000000000000000e+00,-7.000000000000000000e+00,-2.600000000000000000e+01,3.700000000000000000e+01,2.200000000000000000e+01,5.000000000000000000e+00,1.000000000000000000e+00,-1.000000000000000000e+00,-2.484130859375000000e-01,4.925537109375000000e-01,8.660888671875000000e-02,8.295288085937500000e-01
4.000000000000000000e+00,8.000000000000000000e+00,2.400000000000000000e+01,1.000000000000000000e+00,1.500000000000000000e+01,4.000000000000000000e+00,2.000000000000000000e+00,0.000000000000000000e+00,-2.484130859375000000e-01,4.925537109375000000e-01,8.660888671875000000e-02,8.295288085937500000e-01
-4.000000000000000000e+00,-3.000000000000000000e+00,-4.000000000000000000e+00,-1.500000000000000000e+01,-2.900000000000000000e+01,-7.000000000000000000e+00,-3.000000000000000000e+00,-1.000000000000000000e+00,-2.482910156250000000e-01,4.920043945312500000e-01,8.636474609375000000e-02,8.298950195312500000e-01
-1.000000000000000000e+00,-2.000000000000000000e+00,-9.000000000000000000e+00,2.000000000000000000e+00,1.500000000000000000e+01,4.000000000000000000e+00,1.000000000000000000e+00,0.000000000000000000e+00,-2.482910156250000000e-01,4.920043945312500000e-01,8.636474609375000000e-02,8.298950195312500000e-01
-2.000000000000000000e+00,4.000000000000000000e+00,8.000000000000000000e+00,-3.200000000000000000e+01,-2.800000000000000000e+01,-5.000000000000000000e+00,-1.000000000000000000e+00,-2.000000000000000000e+00,-2.482910156250000000e-01,4.920043945312500000e-01,8.636474609375000000e-02,8.298950195312500000e-01
-2.000000000000000000e+00,-2.000000000000000000e+00,0.000000000000000000e+00,4.200000000000000000e+01,2.500000000000000000e+01,-1.000000000000000000e+00,-7.000000000000000000e+00,-4.000000000000000000e+00,-2.482910156250000000e-01,4.920043945312500000e-01,8.636474609375000000e-02,8.298950195312500000e-01
-1.000000000000000000e+00,0.000000000000000000e+00,9.000000000000000000e+00,-2.700000000000000000e+01,1.100000000000000000e+01,1.000000000000000000e+00,8.000000000000000000e+00,4.000000000000000000e+00,-2.475585937500000000e-01,4.917602539062500000e-01,8.599853515625000000e-02,8.303222656250000000e-01
0.000000000000000000e+00,-2.000000000000000000e+00,3.000000000000000000e+00,6.500000000000000000e+01,5.000000000000000000e+00,-2.000000000000000000e+00,-3.000000000000000000e+00,2.000000000000000000e+00,-2.475585937500000000e-01,4.917602539062500000e-01,8.599853515625000000e-02,8.303222656250000000e-01
0.000000000000000000e+00,1.000000000000000000e+00,-8.000000000000000000e+00,-1.200000000000000000e+01,-5.000000000000000000e+00,1.000000000000000000e+00,5.000000000000000000e+00,1.000000000000000000e+00,-2.475585937500000000e-01,4.917602539062500000e-01,8.599853515625000000e-02,8.303222656250000000e-01
-5.000000000000000000e+00,-6.000000000000000000e+00,1.300000000000000000e+01,-1.300000000000000000e+01,-2.400000000000000000e+01,-6.000000000000000000e+00,-5.000000000000000000e+00,-4.000000000000000000e+00,-2.475585937500000000e-01,4.917602539062500000e-01,8.599853515625000000e-02,8.303222656250000000e-01
2.000000000000000000e+00,-1.000000000000000000e+00,-1.600000000000000000e+01,-3.000000000000000000e+00,8.000000000000000000e+00,0.000000000000000000e+00,0.000000000000000000e+00,0.000000000000000000e+00,-2.467041015625000000e-01,4.915771484375000000e-01,8.575439453125000000e-02,8.306884765625000000e-01
-4.000000000000000000e+00,-2.000000000000000000e+00,6.000000000000000000e+00,-1.200000000000000000e+01,-1.100000000000000000e+01,-3.000000000000000000e+00,-5.000000000000000000e+00,-5.000000000000000000e+00,-2.467041015625000000e-01,4.915771484375000000e-01,8.575439453125000000e-02,8.306884765625000000e-01
-1.000000000000000000e+00,-2.000000000000000000e+00,4.000000000000000000e+00,2.300000000000000000e+01,2.200000000000000000e+01,3.000000000000000000e+00,-6.000000000000000000e+00,-1.000000000000000000e+00,-2.467041015625000000e-01,4.915771484375000000e-01,8.575439453125000000e-02,8.306884765625000000e-01
-1.000000000000000000e+00,1.000000000000000000e+00,1.300000000000000000e+01,-9.000000000000000000e+00,-1.000000000000000000e+01,2.000000000000000000e+00,4.000000000000000000e+00,-1.000000000000000000e+00,-2.467041015625000000e-01,4.915771484375000000e-01,8.575439453125000000e-02,8.306884765625000000e-01
6.000000000000000000e+00,4.000000000000000000e+00,-3.000000000000000000e+01,1.000000000000000000e+01,0.000000000000000000e+00,1.000000000000000000e+00,6.000000000000000000e+00,4.000000000000000000e+00,-2.460937500000000000e-01,4.915771484375000000e-01,8.599853515625000000e-02,8.308715820312500000e-01
-2.000000000000000000e+00,-7.000000000000000000e+00,-8.000000000000000000e+00,-1.000000000000000000e+01,-7.000000000000000000e+00,-3.000000000000000000e+00,-3.000000000000000000e+00,-3.000000000000000000e+00,-2.460937500000000000e-01,4.915771484375000000e-01,8.599853515625000000e-02,8.308715820312500000e-01
-1.000000000000000000e+00,-1.000000000000000000e+00,2.000000000000000000e+00,7.000000000000000000e+00,-5.000000000000000000e+00,-1.000000000000000000e+00,-3.000000000000000000e+00,-3.000000000000000000e+00,-2.460937500000000000e-01,4.915771484375000000e-01,8.599853515625000000e-02,8.308715820312500000e-01
-2.000000000000000000e+00,-2.000000000000000000e+00,0.000000000000000000e+00,-2.700000000000000000e+01,-5.000000000000000000e+00,-1.000000000000000000e+00,7.000000000000000000e+00,0.000000000000000000e+00,-2.460937500000000000e-01,4.915771484375000000e-01,8.599853515625000000e-02,8.308715820312500000e-01
-3.000000000000000000e+00,-2.000000000000000000e+00,1.000000000000000000e+00,1.700000000000000000e+01,-1.300000000000000000e+01,-2.000000000000000000e+00,-4.000000000000000000e+00,-3.000000000000000000e+00,-2.456665039062500000e-01,4.916992187500000000e-01,8.648681640625000000e-02,8.308715820312500000e-01
3.000000000000000000e+00,4.000000000000000000e+00,1.100000000000000000e+01,2.300000000000000000e+01,1.500000000000000000e+01,5.000000000000000000e+00,1.000000000000000000e+00,1.000000000000000000e+00,-2.456665039062500000e-01,4.916992187500000000e-01,8.648681640625000000e-02,8.308715820312500000e-01
0.000000000000000000e+00,0.000000000000000000e+00,-1.400000000000000000e+01,3.000000000000000000e+00,-1.900000000000000000e+01,-5.000000000000000000e+00,-2.000000000000000000e+00,0.000000000000000000e+00,-2.456665039062500000e-01,4.916992187500000000e-01,8.648681640625000000e-02,8.308715820312500000e-01
6.000000000000000000e+00,5.000000000000000000e+00,-3.000000000000000000e+00,1.400000000000000000e+01,2.200000000000000000e+01,5.000000000000000000e+00,0.000000000000000000e+00,1.000000000000000000e+00,-2.456665039062500000e-01,4.916992187500000000e-01,8.648681640625000000e-02,8.308715820312500000e-01
-2.000000000000000000e+00,-3.000000000000000000e+00,1.300000000000000000e+01,-1.800000000000000000e+01,-1.900000000000000000e+01,-5.000000000000000000e+00,-4.000000000000000000e+00,-3.000000000000000000e+00,-2.454223632812500000e-01,4.918212890625000000e-01,8.691406250000000000e-02,8.308105468750000000e-01
-1.000000000000000000e+00,-3.000000000000000000e+00,-1.200000000000000000e+01,2.000000000000000000e+00,2.000000000000000000e+00,-5.000000000000000000e+00,-1.000000000000000000e+00,1.000000000000000000e+00,-2.454223632812500000e-01,4.918212890625000000e-01,8.691406250000000000e-02,8.308105468750000000e-01
1.000000000000000000e+00,2.000000000000000000e+00,8.000000000000000000e+00,-1.900000000000000000e+01,-1.000000000000000000e+00,2.000000000000000000e+00,1.000000000000000000e+00,0.000000000000000000e+00,-2.454223632812500000e-01,4.918212890625000000e-01,8.691406250000000000e-02,8.308105468750000000e-01
-2.000000000000000000e+00,-2.000000000000000000e+00,1.500000000000000000e+01,1.100000000000000000e+01,-4.000000000000000000e+00,-2.000000000000000000e+00,-1.000000000000000000e+00,0.000000000000000000e+00,-2.454223632812500000e-01,4.918212890625000000e-01,8.691406250000000000e-02,8.308105468750000000e-01
-1.000000000000000000e+00,1.000000000000000000e+00,-9.000000000000000000e+00,2.300000000000000000e+01,1.000000000000000000e+01,3.000000000000000000e+00,-8.000000000000000000e+00,-6.000000000000000000e+00,-2.451171875000000000e-01,4.918212890625000000e-01,8.746337890625000000e-02,8.308105468750000000e-01
-7.000000000000000000e+00,-6.000000000000000000e+00,-1.900000000000000000e+01,-2.900000000000000000e+01,-2.100000000000000000e+01,-1.000000000000000000e+01,-8.000000000000000000e+00,-6.000000000000000000e+00,-2.451171875000000000e-01,4.918212890625000000e-01,8.746337890625000000e-02,8.308105468750000000e-01
3.000000000000000000e+00,4.000000000000000000e+00,1.300000000000000000e+01,-3.000000000000000000e+00,1.900000000000000000e+01,6.000000000000000000e+00,1.200000000000000000e+01,5.000000000000000000e+00,-2.451171875000000000e-01,4.918212890625000000e-01,8.746337890625000000e-02,8.308105468750000000e-01
2.000000000000000000e+00,1.000000000000000000e+00,-1.600000000000000000e+01,-9.000000000000000000e+00,-2.000000000000000000e+00,1.000000000000000000e+00,3.000000000000000000e+00,5.000000000000000000e+00,-2.451171875000000000e-01,4.918212890625000000e-01,8.746337890625000000e-02,8.308105468750000000e-01
-4.000000000000000000e+00,-4.000000000000000000e+00,6.000000000000000000e+00,-5.000000000000000000e+00,-9.000000000000000000e+00,-4.000000000000000000e+00,-2.000000000000000000e+00,-2.000000000000000000e+00,-2.449340820312500000e-01,4.918212890625000000e-01,8.795166015625000000e-02,8.308715820312500000e-01
2.000000000000000000e+00,3.000000000000000000e+00,1.800000000000000000e+01,2.900000000000000000e+01,1.800000000000000000e+01,2.000000000000000000e+00,-5.000000000000000000e+00,-1.000000000000000000e+00,-2.449340820312500000e-01,4.918212890625000000e-01,8.795166015625000000e-02,8.308715820312500000e-01
-4.000000000000000000e+00,-2.000000000000000000e+00,-1.100000000000000000e+01,-1.000000000000000000e+01,-8.000000000000000000e+00,-7.000000000000000000e+00,0.000000000000000000e+00,-4.000000000000000000e+00,-2.449340820312500000e-01,4.918212890625000000e-01,8.795166015625000000e-02,8.308715820312500000e-01
-5.000000000000000000e+00,-9.000000000000000000e+00,-1.400000000000000000e+01,-3.500000000000000000e+01,-1.300000000000000000e+01,-3.000000000000000000e+00,-2.000000000000000000e+00,-3.000000000000000000e+00,-2.449340820312500000e-01,4.918212890625000000e-01,8.795166015625000000e-02,8.308715820312500000e-01
0.000000000000000000e+00,2.000000000000000000e+00,5.000000000000000000e+00,4.100000000000000000e+01,7.000000000000000000e+00,1.000000000000000000e+00,0.000000000000000000e+00,0.000000000000000000e+00,-2.451782226562500000e-01,4.919433593750000000e-01,8.831787109375000000e-02,8.306274414062500000e-01
-2.000000000000000000e+00,-3.000000000000000000e+00,-1.000000000000000000e+01,-9.000000000000000000e+00,-1.000000000000000000e+01,-4.000000000000000000e+00,0.000000000000000000e+00,-1.000000000000000000e+00,-2.451782226562500000e-01,4.919433593750000000e-01,8.831787109375000000e-02,8.306274414062500000e-01
2.000000000000000000e+00,2.000000000000000000e+00,8.000000000000000000e+00,2.000000000000000000e+00,-2.000000000000000000e+00,0.000000000000000000e+00,5.000000000000000000e+00,2.000000000000000000e+00,-2.451782226562500000e-01,4.919433593750000000e-01,8.831787109375000000e-02,8.306274414062500000e-01
-1.000000000000000000e+00,-1.000000000000000000e+00,4.000000000000000000e+00,-1.100000000000000000e+01,-5.000000000000000000e+00,-3.000000000000000000e+00,-7.000000000000000000e+00,-1.000000000000000000e+00,-2.451782226562500000e-01,4.919433593750000000e-01,8.831787109375000000e-02,8.306274414062500000e-01
-1.000000000000000000e+00,-3.000000000000000000e+00,-9.000000000000000000e+00,-4.700000000000000000e+01,-7.000000000000000000e+00,-2.000000000000000000e+00,1.000000000000000000e+00,-1.000000000000000000e+00,-2.459106445312500000e-01,4.918823242187500000e-01,8.837890625000000000e-02,8.304443359375000000e-01
-1.000000000000000000e+00,-1.000000000000000000e+00,1.000000000000000000e+00,1.200000000000000000e+01,1.600000000000000000e+01,3.000000000000000000e+00,1.000000000000000000e+00,-1.000000000000000000e+00,-2.459106445312500000e-01,4.918823242187500000e-01,8.837890625000000000e-02,8.304443359375000000e-01
-2.000000000000000000e+00,-3.000000000000000000e+00,-1.200000000000000000e+01,3.000000000000000000e+01,1.100000000000000000e+01,3.000000000000000000e+00,-1.000000000000000000e+00,-1.000000000000000000e+00,-2.459106445312500000e-01,4.918823242187500000e-01,8.837890625000000000e-02,8.304443359375000000e-01
-2.000000000000000000e+00,3.000000000000000000e+00,5.000000000000000000e+00,4.000000000000000000e+00,-8.000000000000000000e+00,-1.000000000000000000e+00,-2.000000000000000000e+00,-2.000000000000000000e+00,-2.459106445312500000e-01,4.918823242187500000e-01,8.837890625000000000e-02,8.304443359375000000e-01
-1.000000000000000000e+00,-1.000000000000000000e+00,-1.000000000000000000e+00,6.000000000000000000e+00,1.300000000000000000e+01,1.000000000000000000e+00,-1.000000000000000000e+00,1.000000000000000000e+00,-2.460937500000000000e-01,4.918823242187500000e-01,8.807373046875000000e-02,8.304443359375000000e-01
-1.000000000000000000e+00,0.000000000000000000e+00,7.000000000000000000e+00,-3.100000000000000000e+01,-1.000000000000000000e+01,-2.000000000000000000e+00,2.000000000000000000e+00,1.000000000000000000e+00,-2.460937500000000000e-01,4.918823242187500000e-01,8.807373046875000000e-02,8.304443359375000000e-01
-1.000000000000000000e+00,-3.000000000000000000e+00,-4.000000000000000000e+00,-8.000000000000000000e+00,-1.800000000000000000e+01,-7.000000000000000000e+00,-3.000000000000000000e+00,-4.000000000000000000e+00,-2.460937500000000000e-01,4.918823242187500000e-01,8.807373046875000000e-02,8.304443359375000000e-01
1.000000000000000000e+00,1.000000000000000000e+00,-3.000000000000000000e+00,2.200000000000000000e+01,6.000000000000000000e+00,2.000000000000000000e+00,1.000000000000000000e+00,-1.000000000000000000e+00,-2.460937500000000000e-01,4.918823242187500000e-01,8.807373046875000000e-02,8.304443359375000000e-01
2.000000000000000000e+00,0.000000000000000000e+00,1.000000000000000000e+01,1.600000000000000000e+01,1.100000000000000000e+01,2.000000000000000000e+00,0.000000000000000000e+00,-1.000000000000000000e+00,-2.459716796875000000e-01,4.920043945312500000e-01,8.776855468750000000e-02,8.304443359375000000e-01
-2.000000000000000000e+00,-5.000000000000000000e+00,-9.000000000000000000e+00,-1.800000000000000000e+01,-9.000000000000000000e+00,-5.000000000000000000e+00,0.000000000000000000e+00,-1.000000000000000000e+00,-2.459716796875000000e-01,4.920043945312500000e-01,8.776855468750000000e-02,8.304443359375000000e-01
0.000000000000000000e+00,0.000000000000000000e+00,2.000000000000000000e+00,-1.900000000000000000e+01,-7.000000000000000000e+00,-3.000000000000000000e+00,-4.000000000000000000e+00,-2.000000000000000000e+00,-2.459716796875000000e-01,4.920043945312500000e-01,8.776855468750000000e-02,8.304443359375000000e-01
2.000000000000000000e+00,1.000000000000000000e+00,-1.000000000000000000e+00,1.000000000000000000e+01,-1.000000000000000000e+00,-5.000000000000000000e+00,-5.000000000000000000e+00,1.000000000000000000e+00,-2.459716796875000000e-01,4.920043945312500000e-01,8.776855468750000000e-02,8.304443359375000000e-01
-4.000000000000000000e+00,-8.000000000000000000e+00,-1.800000000000000000e+01,-1.100000000000000000e+01,-1.000000000000000000e+00,-1.000000000000000000e+00,0.000000000000000000e+00,-2.000000000000000000e+00,-2.463378906250000000e-01,4.920043945312500000e-01,8.770751953125000000e-02,8.303222656250000000e-01
0.000000000000000000e+00,3.000000000000000000e+00,3.000000000000000000e+00,1.300000000000000000e+01,-6.000000000000000000e+00,2.000000000000000000e+00,0.000000000000000000e+00,-1.000000000000000000e+00,-2.463378906250000000e-01,4.920043945312500000e-01,8.770751953125000000e-02,8.303222656250000000e-01
-2.000000000000000000e+00,-4.000000000000000000e+00,-2.000000000000000000e+00,-2.400000000000000000e+01,-7.000000000000000000e+00,-1.000000000000000000e+00,-1.000000000000000000e+00,-1.000000000000000000e+00,-2.463378906250000000e-01,4.920043945312500000e-01,8.770751953125000000e-02,8.303222656250000000e-01
1.000000000000000000e+00,0.000000000000000000e+00,-5.000000000000000000e+00,1.500000000000000000e+01,3.000000000000000000e+00,2.000000000000000000e+00,3.000000000000000000e+00,1.000000000000000000e+00,-2.463378906250000000e-01,4.920043945312500000e-01,8.770751953125000000e-02,8.303222656250000000e-01
-1.000000000000000000e+00,5.000000000000000000e+00,1.300000000000000000e+01,-3.000000000000000000e+00,-2.100000000000000000e+01,-7.000000000000000000e+00,-5.000000000000000000e+00,-1.000000000000000000e+00,-2.473754882812500000e-01,4.918823242187500000e-01,8.782958984375000000e-02,8.300781250000000000e-01
1.000000000000000000e+00,1.000000000000000000e+00,-1.000000000000000000e+00,-4.400000000000000000e+01,7.000000000000000000e+00,1.000000000000000000e+00,0.000000000000000000e+00,1.000000000000000000e+00,-2.473754882812500000e-01,4.918823242187500000e-01,8.782958984375000000e-02,8.300781250000000000e-01
-3.000000000000000000e+00,-3.000000000000000000e+00,-2.000000000000000000e+01,5.500000000000000000e+01,1.700000000000000000e+01,2.000000000000000000e+00,-3.000000000000000000e+00,-3.000000000000000000e+00,-2.473754882812500000e-01,4.918823242187500000e-01,8.782958984375000000e-02,8.300781250000000000e-01
-1.000000000000000000e+00,1.000000000000000000e+00,-2.000000000000000000e+00,-1.000000000000000000e+00,1.000000000000000000e+01,1.000000000000000000e+00,-1.000000000000000000e+00,-3.000000000000000000e+00,-2.473754882812500000e-01,4.918823242187500000e-01,8.782958984375000000e-02,8.300781250000000000e-01
0.000000000000000000e+00,-1.000000000000000000e+00,-6.000000000000000000e+00,-7.000000000000000000e+00,-1.500000000000000000e+01,-3.000000000000000000e+00,1.000000000000000000e+00,1.000000000000000000e+00,-2.484741210937500000e-01,4.916992187500000000e-01,8.770751953125000000e-02,8.298950195312500000e-01
-3.000000000000000000e+00,-1.000000000000000000e+00,1.900000000000000000e+01,5.000000000000000000e+00,-6.000000000000000000e+00,-1.000000000000000000e+00,-1.000000000000000000e+00,-3.000000000000000000e+00,-2.484741210937500000e-01,4.916992187500000000e-01,8.770751953125000000e-02,8.298950195312500000e-01
-2.000000000000000000e+00,-1.000000000000000000e+00,-2.000000000000000000e+01,-3.300000000000000000e+01,-1.000000000000000000e+01,-1.000000000000000000e+00,0.000000000000000000e+00,0.000000000000000000e+00,-2.484741210937500000e-01,4.916992187500000000e-01,8.770751953125000000e-02,8.298950195312500000e-01
-3.000000000000000000e+00,-4.000000000000000000e+00,-3.000000000000000000e+00,-1.000000000000000000e+00,-7.000000000000000000e+00,-8.000000000000000000e+00,-6.000000000000000000e+00,-5.000000000000000000e+00,-2.484741210937500000e-01,4.916992187500000000e-01,8.770751953125000000e-02,8.298950195312500000e-01
1.000000000000000000e+00,-1.000000000000000000e+00,1.100000000000000000e+01,-4.000000000000000000e+00,1.200000000000000000e+01,5.000000000000000000e+00,1.000000000000000000e+00,-3.000000000000000000e+00,-2.487182617187500000e-01,4.916992187500000000e-01,8.715820312500000000e-02,8.298339843750000000e-01
0.000000000000000000e+00,0.000000000000000000e+00,-1.800000000000000000e+01,3.600000000000000000e+01,-1.000000000000000000e+01,-4.000000000000000000e+00,-2.000000000000000000e+00,0.000000000000000000e+00,-2.487182617187500000e-01,4.916992187500000000e-01,8.715820312500000000e-02,8.298339843750000000e-01
-1.000000000000000000e+00,-1.000000000000000000e+00,5.000000000000000000e+00,-4.100000000000000000e+01,-6.000000000000000000e+00,-1.000000000000000000e+00,1.000000000000000000e+00,-1.000000000000000000e+00,-2.487182617187500000e-01,4.916992187500000000e-01,8.715820312500000000e-02,8.298339843750000000e-01
-3.000000000000000000e+00,-5.000000000000000000e+00,-4.000000000000000000e+01,7.000000000000000000e+00,3.000000000000000000e+00,2.000000000000000000e+00,1.000000000000000000e+00,1.000000000000000000e+00,-2.487182617187500000e-01,4.916992187500000000e-01,8.715820312500000000e-02,8.298339843750000000e-01
-3.000000000000000000e+00,0.000000000000000000e+00,1.300000000000000000e+01,1.000000000000000000e+00,2.000000000000000000e+00,-1.000000000000000000e+00,-4.000000000000000000e+00,-2.000000000000000000e+00,-2.487182617187500000e-01,4.919433593750000000e-01,8.648681640625000000e-02,8.298339843750000000e-01
1.000000000000000000e+00,1.000000000000000000e+00,0.000000000000000000e+00,2.000000000000000000e+00,0.000000000000000000e+00,-2.000000000000000000e+00,-3.000000000000000000e+00,-3.000000000000000000e+00,-2.487182617187500000e-01,4.919433593750000000e-01,8.648681640625000000e-02,8.298339843750000000e-01
0.000000000000000000e+00,-2.000000000000000000e+00,1.100000000000000000e+01,-4.000000000000000000e+00,1.000000000000000000e+00,-3.000000000000000000e+00,-3.000000000000000000e+00,0.000000000000000000e+00,-2.487182617187500000e-01,4.919433593750000000e-01,8.648681640625000000e-02,8.298339843750000000e-01
-1.000000000000000000e+00,-2.000000000000000000e+00,-1.000000000000000000e+00,2.000000000000000000e+00,-2.000000000000000000e+00,-1.000000000000000000e+00,3.000000000000000000e+00,2.000000000000000000e+00,-2.487182617187500000e-01,4.919433593750000000e-01,8.648681640625000000e-02,8.298339843750000000e-01
3.000000000000000000e+00,6.000000000000000000e+00,4.000000000000000000e+00,-4.000000000000000000e+00,-1.000000000000000000e+00,0.000000000000000000e+00,-1.000000000000000000e+00,1.000000000000000000e+00,-2.487792968750000000e-01,4.923095703125000000e-01,8.599853515625000000e-02,8.295898437500000000e-01
-3.000000000000000000e+00,-5.000000000000000000e+00,-2.000000000000000000e+00,-2.000000000000000000e+00,6.000000000000000000e+00,4.000000000000000000e+00,1.000000000000000000e+00,1.000000000000000000e+00,-2.487792968750000000e-01,4.923095703125000000e-01,8.599853515625000000e-02,8.295898437500000000e-01
-3.000000000000000000e+00,-2.000000000000000000e+00,-6.000000000000000000e+00,-3.600000000000000000e+01,-1.000000000000000000e+00,-4.000000000000000000e+00,-7.000000000000000000e+00,-3.000000000000000000e+00,-2.487792968750000000e-01,4.923095703125000000e-01,8.599853515625000000e-02,8.295898437500000000e-01
0.000000000000000000e+00,0.000000000000000000e+00,1.200000000000000000e+01,3.200000000000000000e+01,-9.000000000000000000e+00,0.000000000000000000e+00,2.000000000000000000e+00,-2.000000000000000000e+00,-2.487792968750000000e-01,4.923095703125000000e-01,8.599853515625000000e-02,8.295898437500000000e-01
-2.000000000000000000e+00,-1.000000000000000000e+00,2.000000000000000000e+00,2.600000000000000000e+01,1.000000000000000000e+01,4.000000000000000000e+00,1.000000000000000000e+00,-1.000000000000000000e+00,-2.490844726562500000e-01,4.928588867187500000e-01,8.551025390625000000e-02,8.292236328125000000e-01
-1.000000000000000000e+00,0.000000000000000000e+00,-5.000000000000000000e+00,-9.000000000000000000e+00,-1.100000000000000000e+01,-4.000000000000000000e+00,-5.000000000000000000e+00,-2.000000000000000000e+00,-2.490844726562500000e-01,4.928588867187500000e-01,8.551025390625000000e-02,8.292236328125000000e-01
0.000000000000000000e+00,0.000000000000000000e+00,5.000000000000000000e+00,-9.000000000000000000e+00,-8.000000000000000000e+00,-4.000000000000000000e+00,-1.000000000000000000e+00,1.000000000000000000e+00,-2.490844726562500000e-01,4.928588867187500000e-01,8.551025390625000000e-02,8.292236328125000000e-01
-4.000000000000000000e+00,-5.000000000000000000e+00,1.000000000000000000e+00,-7.000000000000000000e+00,1.500000000000000000e+01,1.000000000000000000e+00,-2.000000000000000000e+00,-3.000000000000000000e+00,-2.490844726562500000e-01,4.928588867187500000e-01,8.551025390625000000e-02,8.292236328125000000e-01
-1.000000000000000000e+00,3.000000000000000000e+00,2.300000000000000000e+01,-1.600000000000000000e+01,8.000000000000000000e+00,-2.000000000000000000e+00,0.000000000000000000e+00,0.000000000000000000e+00,-2.496948242187500000e-01,4.934082031250000000e-01,8.502197265625000000e-02,8.287963867187500000e-01
-2.000000000000000000e+00,-7.000000000000000000e+00,-5.700000000000000000e+01,3.100000000000000000e+01,2.000000000000000000e+00,2.000000000000000000e+00,0.000000000000000000e+00,0.000000000000000000e+00,-2.496948242187500000e-01,4.934082031250000000e-01,8.502197265625000000e-02,8.287963867187500000e-01
0.000000000000000000e+00,-2.000000000000000000e+00,-1.500000000000000000e+01,-2.600000000000000000e+01,-2.000000000000000000e+01,-6.000000000000000000e+00,-3.000000000000000000e+00,-1.000000000000000000e+00,-2.496948242187500000e-01,4.934082031250000000e-01,8.502197265625000000e-02,8.287963867187500000e-01
0.000000000000000000e+00,1.000000000000000000e+00,8.000000000000000000e+00,0.000000000000000000e+00,1.000000000000000000e+00,-1.000000000000000000e+00,-3.000000000000000000e+00,-1.000000000000000000e+00,-2.496948242187500000e-01,4.934082031250000000e-01,8.502197265625000000e-02,8.287963867187500000e-01
0.000000000000000000e+00,-3.000000000000000000e+00,-4.000000000000000000e+00,8.000000000000000000e+00,9.000000000000000000e+00,0.000000000000000000e+00,3.000000000000000000e+00,-2.000000000000000000e+00,-2.496948242187500000e-01,4.942016601562500000e-01,8.428955078125000000e-02,8.283691406250000000e-01
2.000000000000000000e+00,1.000000000000000000e+00,2.200000000000000000e+01,6.000000000000000000e+00,2.000000000000000000e+00,2.000000000000000000e+00,1.000000000000000000e+00,3.000000000000000000e+00,-2.496948242187500000e-01,4.942016601562500000e-01,8.428955078125000000e-02,8.283691406250000000e-01
-1.000000000000000000e+00,1.000000000000000000e+00,6.000000000000000000e+00,-2.000000000000000000e+00,-1.200000000000000000e+01,-2.000000000000000000e+00,-1.000000000000000000e+00,-2.000000000000000000e+00,-2.496948242187500000e-01,4.942016601562500000e-01,8.428955078125000000e-02,8.283691406250000000e-01
-1.000000000000000000e+00,1.000000000000000000e+00,-1.100000000000000000e+01,-1.100000000000000000e+01,-9.000000000000000000e+00,-5.000000000000000000e+00,-1.000000000000000000e+00,-3.000000000000000000e+00,-2.496948242187500000e-01,4.942016601562500000e-01,8.428955078125000000e-02,8.283691406250000000e-01
-2.000000000000000000e+00,-1.000000000000000000e+00,-5.000000000000000000e+00,1.500000000000000000e+01,-4.000000000000000000e+00,1.000000000000000000e+00,-2.000000000000000000e+00,-2.000000000000000000e+00,-2.495117187500000000e-01,4.953002929687500000e-01,8.380126953125000000e-02,8.278198242187500000e-01
0.000000000000000000e+00,1.000000000000000000e+00,7.000000000000000000e+00,-1.600000000000000000e+01,1.000000000000000000e+00,-2.000000000000000000e+00,0.000000000000000000e+00,0.000000000000000000e+00,-2.495117187500000000e-01,4.953002929687500000e-01,8.380126953125000000e-02,8.278198242187500000e-01
-2.000000000000000000e+00,-3.000000000000000000e+00,-5.000000000000000000e+00,5.000000000000000000e+00,6.000000000000000000e+00,3.000000000000000000e+00,1.000000000000000000e+00,-2.000000000000000000e+00,-2.495117187500000000e-01,4.953002929687500000e-01,8.380126953125000000e-02,8.278198242187500000e-01
3.000000000000000000e+00,7.000000000000000000e+00,1.400000000000000000e+01,-8.000000000000000000e+00,2.000000000000000000e+00,1.000000000000000000e+00,1.000000000000000000e+00,1.000000000000000000e+00,-2.495117187500000000e-01,4.953002929687500000e-01,8.380126953125000000e-02,8.278198242187500000e-01
-7.000000000000000000e+00,-1.300000000000000000e+01,-2.700000000000000000e+01,1.600000000000000000e+01,-1.000000000000000000e+01,-4.000000000000000000e+00,-4.000000000000000000e+00,-4.000000000000000000e+00,-2.496337890625000000e-01,4.963989257812500000e-01,8.355712890625000000e-02,8.271484375000000000e-01
3.000000000000000000e+00,-1.000000000000000000e+00,5.000000000000000000e+00,-1.400000000000000000e+01,-4.000000000000000000e+00,-3.000000000000000000e+00,2.000000000000000000e+00,1.000000000000000000e+00,-2.496337890625000000e-01,4.963989257812500000e-01,8.355712890625000000e-02,8.271484375000000000e-01
-1.000000000000000000e+00,-3.000000000000000000e+00,-3.000000000000000000e+00,1.800000000000000000e+01,1.000000000000000000e+00,-2.000000000000000000e+00,-4.000000000000000000e+00,0.000000000000000000e+00,-2.496337890625000000e-01,4.963989257812500000e-01,8.355712890625000000e-02,8.271484375000000000e-01
-1.000000000000000000e+00,-1.000000000000000000e+00,-2.000000000000000000e+00,-2.000000000000000000e+01,3.000000000000000000e+00,-2.000000000000000000e+00,-1.000000000000000000e+00,-2.000000000000000000e+00,-2.496337890625000000e-01,4.963989257812500000e-01,8.355712890625000000e-02,8.271484375000000000e-01
3.000000000000000000e+00,2.000000000000000000e+00,-6.000000000000000000e+00,-1.700000000000000000e+01,-1.300000000000000000e+01,-2.000000000000000000e+00,1.000000000000000000e+00,4.000000000000000000e+00,-2.497558593750000000e-01,4.976196289062500000e-01,8.331298828125000000e-02,8.264160156250000000e-01
-2.000000000000000000e+00,-1.000000000000000000e+00,5.000000000000000000e+00,-2.600000000000000000e+01,-2.300000000000000000e+01,-1.000000000000000000e+01,-5.000000000000000000e+00,-2.000000000000000000e+00,-2.497558593750000000e-01,4.976196289062500000e-01,8.331298828125000000e-02,8.264160156250000000e-01
-1.000000000000000000e+00,0.000000000000000000e+00,9.000000000000000000e+00,3.900000000000000000e+01,3.700000000000000000e+01,1.100000000000000000e+01,7.000000000000000000e+00,0.000000000000000000e+00,-2.497558593750000000e-01,4.976196289062500000e-01,8.331298828125000000e-02,8.264160156250000000e-01
-2.000000000000000000e+00,-3.000000000000000000e+00,-6.000000000000000000e+00,-1.200000000000000000e+01,-1.700000000000000000e+01,-3.000000000000000000e+00,-6.000000000000000000e+00,-1.000000000000000000e+00,-2.497558593750000000e-01,4.976196289062500000e-01,8.331298828125000000e-02,8.264160156250000000e-01
-2.000000000000000000e+00,-1.000000000000000000e+00,3.000000000000000000e+00,1.900000000000000000e+01,2.200000000000000000e+01,-2.000000000000000000e+00,-2.000000000000000000e+00,-2.000000000000000000e+00,-2.496948242187500000e-01,4.989624023437500000e-01,8.312988281250000000e-02,8.256835937500000000e-01
1.000000000000000000e+00,2.000000000000000000e+00,7.000000000000000000e+00,-5.000000000000000000e+00,-4.000000000000000000e+00,2.000000000000000000e+00,4.000000000000000000e+00,0.000000000000000000e+00,-2.496948242187500000e-01,4.989624023437500000e-01,8.312988281250000000e-02,8.256835937500000000e-01
2.000000000000000000e+00,-1.000000000000000000e+00,2.000000000000000000e+00,-2.100000000000000000e+01,-1.100000000000000000e+01,-6.000000000000000000e+00,-1.000000000000000000e+00,3.000000000000000000e+00,-2.496948242187500000e-01,4.989624023437500000e-01,8.312988281250000000e-02,8.256835937500000000e-01
-1.000000000000000000e+00,-3.000000000000000000e+00,-7.000000000000000000e+00,1.200000000000000000e+01,9.000000000000000000e+00,0.000000000000000000e+00,0.000000000000000000e+00,0.000000000000000000e+00,-2.496948242187500000e-01,4.989624023437500000e-01,8.312988281250000000e-02,8.256835937500000000e-01
-3.000000000000000000e+00,-3.000000000000000000e+00,-1.200000000000000000e+01,-3.100000000000000000e+01,-2.000000000000000000e+01,-7.000000000000000000e+00,-5.000000000000000000e+00,-2.000000000000000000e+00,-2.495727539062500000e-01,5.001831054687500000e-01,8.300781250000000000e-02,8.249511718750000000e-01
0.000000000000000000e+00,2.000000000000000000e+00,9.000000000000000000e+00,5.400000000000000000e+01,1.100000000000000000e+01,0.000000000000000000e+00,0.000000000000000000e+00,-1.000000000000000000e+00,-2.495727539062500000e-01,5.001831054687500000e-01,8.300781250000000000e-02,8.249511718750000000e-01
1.000000000000000000e+00,-1.000000000000000000e+00,-4.000000000000000000e+00,5.000000000000000000e+00,4.000000000000000000e+00,0.000000000000000000e+00,-3.000000000000000000e+00,-1.000000000000000000e+00,-2.495727539062500000e-01,5.001831054687500000e-01,8.300781250000000000e-02,8.249511718750000000e-01
-2.000000000000000000e+00,-5.000000000000000000e+00,-4.000000000000000000e+00,2.000000000000000000e+00,-1.000000000000000000e+00,1.000000000000000000e+00,0.000000000000000000e+00,0.000000000000000000e+00,-2.495727539062500000e-01,5.001831054687500000e-01,8.300781250000000000e-02,8.249511718750000000e-01
-2.000000000000000000e+00,1.000000000000000000e+00,-1.000000000000000000e+00,-2.200000000000000000e+01,-9.000000000000000000e+00,-3.000000000000000000e+00,-2.000000000000000000e+00,-3.000000000000000000e+00,-2.496337890625000000e-01,5.014038085937500000e-01,8.288574218750000000e-02,8.242187500000000000e-01
-3.000000000000000000e+00,-3.000000000000000000e+00,-3.000000000000000000e+00,-1.400000000000000000e+01,-9.000000000000000000e+00,-6.000000000000000000e+00,-4.000000000000000000e+00,-1.000000000000000000e+00,-2.496337890625000000e-01,5.014038085937500000e-01,8.288574218750000000e-02,8.242187500000000000e-01
1.000000000000000000e+00,2.000000000000000000e+00,1.000000000000000000e+01,1.300000000000000000e+01,-1.000000000000000000e+00,-1.000000000000000000e+00,-1.000000000000000000e+00,-1.000000000000000000e+00,-2.496337890625000000e-01,5.014038085937500000e-01,8.288574218750000000e-02,8.242187500000000000e-01
-3.000000000000000000e+00,-3.000000000000000000e+00,5.000000000000000000e+00,2.000000000000000000e+00,-7.000000000000000000e+00,-1.000000000000000000e+00,-5.000000000000000000e+00,-2.000000000000000000e+00,-2.496337890625000000e-01,5.014038085937500000e-01,8.288574218750000000e-02,8.242187500000000000e-01
2.000000000000000000e+00,2.000000000000000000e+00,5.000000000000000000e+00,-1.400000000000000000e+01,5.000000000000000000e+00,5.000000000000000000e+00,4.000000000000000000e+00,0.000000000000000000e+00,-2.497558593750000000e-01,5.025024414062500000e-01,8.276367187500000000e-02,8.235473632812500000e-01
-3.000000000000000000e+00,-2.000000000000000000e+00,0.000000000000000000e+00,-1.400000000000000000e+01,-9.000000000000000000e+00,-2.000000000000000000e+00,-3.000000000000000000e+00,-4.000000000000000000e+00,-2.497558593750000000e-01,5.025024414062500000e-01,8.276367187500000000e-02,8.235473632812500000e-01
-1.000000000000000000e+00,-2.000000000000000000e+00,4.000000000000000000e+00,8.000000000000000000e+00,3.000000000000000000e+00,0.000000000000000000e+00,1.000000000000000000e+00,1.000000000000000000e+00,-2.497558593750000000e-01,5.025024414062500000e-01,8.276367187500000000e-02,8.235473632812500000e-01
0.000000000000000000e+00,1.000000000000000000e+00,6.000000000000000000e+00,-1.800000000000000000e+01,1.300000000000000000e+01,2.000000000000000000e+00,-1.000000000000000000e+00,-1.000000000000000000e+00,-2.497558593750000000e-01,5.025024414062500000e-01,8.276367187500000000e-02,8.235473632812500000e-01
0.000000000000000000e+00,0.000000000000000000e+00,1.900000000000000000e+01,4.000000000000000000e+01,-5.000000000000000000e+00,-7.000000000000000000e+00,0.000000000000000000e+00,2.000000000000000000e+00,-2.497558593750000000e-01,5.034179687500000000e-01,8.264160156250000000e-02,8.229980468750000000e-01
-3.000000000000000000e+00,-5.000000000000000000e+00,-1.800000000000000000e+01,6.000000000000000000e+00,4.000000000000000000e+00,2.000000000000000000e+00,0.000000000000000000e+00,-1.000000000000000000e+00,-2.497558593750000000e-01,5.034179687500000000e-01,8.264160156250000000e-02,8.229980468750000000e-01
-2.000000000000000000e+00,-1.000000000000000000e+00,-7.000000000000000000e+00,-1.900000000000000000e+01,-8.000000000000000000e+00,-3.000000000000000000e+00,-3.000000000000000000e+00,-2.000000000000000000e+00,-2.497558593750000000e-01,5.034179687500000000e-01,8.264160156250000000e-02,8.229980468750000000e-01
-1.000000000000000000e+00,-2.000000000000000000e+00,-5.000000000000000000e+00,-1.700000000000000000e+01,-7.000000000000000000e+00,-1.000000000000000000e+00,0.000000000000000000e+00,-4.000000000000000000e+00,-2.497558593750000000e-01,5.034179687500000000e-01,8.264160156250000000e-02,8.229980468750000000e-01
-2.000000000000000000e+00,1.000000000000000000e+00,1.000000000000000000e+00,1.000000000000000000e+01,-8.000000000000000000e+00,-3.000000000000000000e+00,-2.000000000000000000e+00,1.000000000000000000e+00,-2.496948242187500000e-01,5.039672851562500000e-01,8.245849609375000000e-02,8.226928710937500000e-01
1.000000000000000000e+00,3.000000000000000000e+00,1.300000000000000000e+01,2.200000000000000000e+01,2.100000000000000000e+01,3.000000000000000000e+00,-1.000000000000000000e+00,0.000000000000000000e+00,-2.496948242187500000e-01,5.039672851562500000e-01,8.245849609375000000e-02,8.226928710937500000e-01
-4.000000000000000000e+00,-2.000000000000000000e+00,-4.000000000000000000e+00,-1.500000000000000000e+01,-4.000000000000000000e+00,-4.000000000000000000e+00,-1.000000000000000000e+00,-2.000000000000000000e+00,-2.496948242187500000e-01,5.039672851562500000e-01,8.245849609375000000e-02,8.226928710937500000e-01
1.000000000000000000e+00,-1.000000000000000000e+00,2.000000000000000000e+00,2.000000000000000000e+00,-7.000000000000000000e+00,0.000000000000000000e+00,4.000000000000000000e+00,2.000000000000000000e+00,-2.496948242187500000e-01,5.039672851562500000e-01,8.245849609375000000e-02,8.226928710937500000e-01
0.000000000000000000e+00,0.000000000000000000e+00,-8.000000000000000000e+00,-1.700000000000000000e+01,4.000000000000000000e+00,3.000000000000000000e+00,2.000000000000000000e+00,1.000000000000000000e+00,-2.496948242187500000e-01,5.042114257812500000e-01,8.239746093750000000e-02,8.225097656250000000e-01
-2.000000000000000000e+00,-1.000000000000000000e+00,0.000000000000000000e+00,-2.700000000000000000e+01,-2.000000000000000000e+01,-4.000000000000000000e+00,-7.000000000000000000e+00,-4.000000000000000000e+00,-2.496948242187500000e-01,5.042114257812500000e-01,8.239746093750000000e-02,8.225097656250000000e-01
-3.000000000000000000e+00,-2.000000000000000000e+00,-3.000000000000000000e+00,2.300000000000000000e+01,3.000000000000000000e+00,3.000000000000000000e+00,-2.000000000000000000e+00,-3.000000000000000000e+00,-2.496948242187500000e-01,5.042114257812500000e-01,8.239746093750000000e-02,8.225097656250000000e-01
1.000000000000000000e+00,1.000000000000000000e+00,0.000000000000000000e+00,-2.000000000000000000e+00,4.000000000000000000e+00,1.000000000000000000e+00,2.000000000000000000e+00,2.000000000000000000e+00,-2.496948242187500000e-01,5.042114257812500000e-01,8.239746093750000000e-02,8.225097656250000000e-01
0.000000000000000000e+00,-1.000000000000000000e+00,-7.000000000000000000e+00,2.000000000000000000e+00,0.000000000000000000e+00,-2.000000000000000000e+00,1.000000000000000000e+00,-1.000000000000000000e+00,-2.496948242187500000e-01,5.042114257812500000e-01,8.239746093750000000e-02,8.225097656250000000e-01
1.000000000000000000e+00,4.000000000000000000e+00,1.000000000000000000e+01,-2.000000000000000000e+00,1.000000000000000000e+00,-1.000000000000000000e+00,0.000000000000000000e+00,3.000000000000000000e+00,-2.496948242187500000e-01,5.042114257812500000e-01,8.239746093750000000e-02,8.225097656250000000e-01
-5.000000000000000000e+00,-7.000000000000000000e+00,-3.500000000000000000e+01,0.000000000000000000e+00,-2.000000000000000000e+00,-4.000000000000000000e+00,-3.000000000000000000e+00,-4.000000000000000000e+00,-2.496948242187500000e-01,5.042114257812500000e-01,8.239746093750000000e-02,8.225097656250000000e-01
-3.000000000000000000e+00,-7.000000000000000000e+00,-5.000000000000000000e+00,-1.800000000000000000e+01,-1.000000000000000000e+01,-5.000000000000000000e+00,-3.000000000000000000e+00,-2.000000000000000000e+00,-2.496948242187500000e-01,5.042114257812500000e-01,8.239746093750000000e-02,8.225097656250000000e-01
-5.000000000000000000e+00,-7.000000000000000000e+00,-6.000000000000000000e+00,-8.000000000000000000e+00,-1.600000000000000000e+01,-2.000000000000000000e+00,-1.000000000000000000e+00,-4.000000000000000000e+00,-2.500000000000000000e-01,5.040283203125000000e-01,8.251953125000000000e-02,8.225708007812500000e-01
1.000000000000000000e+00,2.000000000000000000e+00,2.000000000000000000e+00,2.200000000000000000e+01,2.600000000000000000e+01,8.000000000000000000e+00,5.000000000000000000e+00,1.000000000000000000e+00,-2.500000000000000000e-01,5.040283203125000000e-01,8.251953125000000000e-02,8.225708007812500000e-01
-3.000000000000000000e+00,4.000000000000000000e+00,2.200000000000000000e+01,1.000000000000000000e+01,-9.000000000000000000e+00,-4.000000000000000000e+00,-2.000000000000000000e+00,-1.000000000000000000e+00,-2.500000000000000000e-01,5.040283203125000000e-01,8.251953125000000000e-02,8.225708007812500000e-01
-1.000000000000000000e+00,-1.000000000000000000e+00,-6.000000000000000000e+00,3.400000000000000000e+01,9.000000000000000000e+00,0.000000000000000000e+00,0.000000000000000000e+00,0.000000000000000000e+00,-2.500000000000000000e-01,5.040283203125000000e-01,8.251953125000000000e-02,8.225708007812500000e-01
0.000000000000000000e+00,-2.000000000000000000e+00,-9.000000000000000000e+00,-4.200000000000000000e+01,-3.000000000000000000e+01,-6.000000000000000000e+00,-4.000000000000000000e+00,-2.000000000000000000e+00,-2.499389648437500000e-01,5.039062500000000000e-01,8.239746093750000000e-02,8.226318359375000000e-01
0.000000000000000000e+00,0.000000000000000000e+00,1.300000000000000000e+01,2.000000000000000000e+01,4.000000000000000000e+01,8.000000000000000000e+00,3.000000000000000000e+00,0.000000000000000000e+00,-2.499389648437500000e-01,5.039062500000000000e-01,8.239746093750000000e-02,8.226318359375000000e-01
0.000000000000000000e+00,-2.000000000000000000e+00,1.000000000000000000e+00,-2.000000000000000000e+00,0.000000000000000000e+00,-1.000000000000000000e+00,-2.000000000000000000e+00,-1.000000000000000000e+00,-2.499389648437500000e-01,5.039062500000000000e-01,8.239746093750000000e-02,8.226318359375000000e-01
-3.000000000000000000e+00,0.000000000000000000e+00,-7.000000000000000000e+00,-9.000000000000000000e+00,-1.200000000000000000e+01,0.000000000000000000e+00,-2.000000000000000000e+00,-3.000000000000000000e+00,-2.499389648437500000e-01,5.039062500000000000e-01,8.239746093750000000e-02,8.226318359375000000e-01
2.000000000000000000e+00,1.000000000000000000e+00,3.000000000000000000e+00,1.000000000000000000e+00,2.000000000000000000e+00,2.000000000000000000e+00,2.000000000000000000e+00,3.000000000000000000e+00,-2.496948242187500000e-01,5.034179687500000000e-01,8.221435546875000000e-02,8.229980468750000000e-01
-1.000000000000000000e+00,-1.000000000000000000e+00,-2.000000000000000000e+00,-7.000000000000000000e+00,-1.500000000000000000e+01,-4.000000000000000000e+00,-3.000000000000000000e+00,1.000000000000000000e+00,-2.496948242187500000e-01,5.034179687500000000e-01,8.221435546875000000e-02,8.229980468750000000e-01
3.000000000000000000e+00,4.000000000000000000e+00,1.600000000000000000e+01,-2.000000000000000000e+00,0.000000000000000000e+00,-2.000000000000000000e+00,0.000000000000000000e+00,0.000000000000000000e+00,-2.496948242187500000e-01,5.034179687500000000e-01,8.221435546875000000e-02,8.229980468750000000e-01
-3.000000000000000000e+00,-3.000000000000000000e+00,-2.000000000000000000e+01,-9.000000000000000000e+00,-1.100000000000000000e+01,-2.000000000000000000e+00,-2.000000000000000000e+00,-2.000000000000000000e+00,-2.496948242187500000e-01,5.034179687500000000e-01,8.221435546875000000e-02,8.229980468750000000e-01
0.000000000000000000e+00,0.000000000000000000e+00,-3.000000000000000000e+00,3.000000000000000000e+00,9.000000000000000000e+00,-3.000000000000000000e+00,-3.000000000000000000e+00,-3.000000000000000000e+00,-2.495117187500000000e-01,5.029907226562500000e-01,8.239746093750000000e-02,8.233642578125000000e-01
1.000000000000000000e+00,-2.000000000000000000e+00,-4.000000000000000000e+00,0.000000000000000000e+00,-1.200000000000000000e+01,-4.000000000000000000e+00,-1.000000000000000000e+00,-1.000000000000000000e+00,-2.495117187500000000e-01,5.029907226562500000e-01,8.239746093750000000e-02,8.233642578125000000e-01
0.000000000000000000e+00,-3.000000000000000000e+00,4.000000000000000000e+00,-1.000000000000000000e+01,6.000000000000000000e+00,1.000000000000000000e+00,1.000000000000000000e+00,1.000000000000000000e+00,-2.495117187500000000e-01,5.029907226562500000e-01,8.239746093750000000e-02,8.233642578125000000e-01
-2.000000000000000000e+00,1.000000000000000000e+00,8.000000000000000000e+00,-6.000000000000000000e+00,-1.700000000000000000e+01,-4.000000000000000000e+00,-5.000000000000000000e+00,-2.000000000000000000e+00,-2.495117187500000000e-01,5.029907226562500000e-01,8.239746093750000000e-02,8.233642578125000000e-01
0.000000000000000000e+00,3.000000000000000000e+00,-6.000000000000000000e+00,1.000000000000000000e+00,7.000000000000000000e+00,1.000000000000000000e+00,1.000000000000000000e+00,0.000000000000000000e+00,-2.498779296875000000e-01,5.025024414062500000e-01,8.282470703125000000e-02,8.234863281250000000e-01
-4.000000000000000000e+00,-6.000000000000000000e+00,-4.000000000000000000e+00,-3.200000000000000000e+01,-2.000000000000000000e+00,3.000000000000000000e+00,1.000000000000000000e+00,-1.000000000000000000e+00,-2.498779296875000000e-01,5.025024414062500000e-01,8.282470703125000000e-02,8.234863281250000000e-01
-1.000000000000000000e+00,0.000000000000000000e+00,4.000000000000000000e+00,3.300000000000000000e+01,3.000000000000000000e+00,-3.000000000000000000e+00,-2.000000000000000000e+00,-2.000000000000000000e+00,-2.498779296875000000e-01,5.025024414062500000e-01,8.282470703125000000e-02,8.234863281250000000e-01
0.000000000000000000e+00,-2.000000000000000000e+00,4.000000000000000000e+00,-9.000000000000000000e+00,3.000000000000000000e+00,0.000000000000000000e+00,0.000000000000000000e+00,0.000000000000000000e+00,-2.498779296875000000e-01,5.025024414062500000e-01,8.282470703125000000e-02,8.234863281250000000e-01
0.000000000000000000e+00,-2.000000000000000000e+00,5.000000000000000000e+00,4.500000000000000000e+01,1.700000000000000000e+01,4.000000000000000000e+00,-2.000000000000000000e+00,1.000000000000000000e+00,-2.500610351562500000e-01,5.020751953125000000e-01,8.300781250000000000e-02,8.236694335937500000e-01
-1.000000000000000000e+00,0.000000000000000000e+00,-2.100000000000000000e+01,-3.800000000000000000e+01,-1.500000000000000000e+01,-6.000000000000000000e+00,-2.000000000000000000e+00,-3.000000000000000000e+00,-2.500610351562500000e-01,5.020751953125000000e-01,8.300781250000000000e-02,8.236694335937500000e-01
0.000000000000000000e+00,-2.000000000000000000e+00,1.000000000000000000e+00,-2.000000000000000000e+01,-1.600000000000000000e+01,-5.000000000000000000e+00,-1.000000000000000000e+00,1.000000000000000000e+00,-2.500610351562500000e-01,5.020751953125000000e-01,8.300781250000000000e-02,8.236694335937500000e-01
0.000000000000000000e+00,1.000000000000000000e+00,-1.000000000000000000e+00,9.000000000000000000e+00,1.900000000000000000e+01,2.000000000000000000e+00,0.000000000000000000e+00,2.000000000000000000e+00,-2.500610351562500000e-01,5.020751953125000000e-01,8.300781250000000000e-02,8.236694335937500000e-01
-2.000000000000000000e+00,-1.000000000000000000e+00,-3.000000000000000000e+00,-1.000000000000000000e+01,-6.000000000000000000e+00,-1.000000000000000000e+00,-2.000000000000000000e+00,-2.000000000000000000e+00,-2.502441406250000000e-01,5.015869140625000000e-01,8.288574218750000000e-02,8.239135742187500000e-01
-1.000000000000000000e+00,0.000000000000000000e+00,1.100000000000000000e+01,8.000000000000000000e+00,-5.000000000000000000e+00,-4.000000000000000000e+00,-2.000000000000000000e+00,-1.000000000000000000e+00,-2.502441406250000000e-01,5.015869140625000000e-01,8.288574218750000000e-02,8.239135742187500000e-01
