-3.700000000000000000e+01,-2.000000000000000000e+00,1.500000000000000000e+01,4.100000000000000000e+01,2.000000000000000000e+00,-5.000000000000000000e+00,1.000000000000000000e+00,-3.000000000000000000e+00,-3.638916015625000000e-01,3.516845703125000000e-01,5.147705078125000000e-01,6.920166015625000000e-01
1.400000000000000000e+01,4.000000000000000000e+00,3.900000000000000000e+01,5.000000000000000000e+00,-1.000000000000000000e+00,0.000000000000000000e+00,5.000000000000000000e+00,-4.000000000000000000e+00,-3.638916015625000000e-01,3.516845703125000000e-01,5.147705078125000000e-01,6.920166015625000000e-01
1.100000000000000000e+01,0.000000000000000000e+00,-1.100000000000000000e+01,-7.000000000000000000e+00,1.000000000000000000e+00,1.000000000000000000e+00,3.000000000000000000e+00,3.000000000000000000e+00,-3.635253906250000000e-01,3.515625000000000000e-01,5.150756835937500000e-01,6.920776367187500000e-01
5.000000000000000000e+00,-8.000000000000000000e+00,-1.600000000000000000e+01,-1.000000000000000000e+00,3.000000000000000000e+00,3.000000000000000000e+00,2.000000000000000000e+00,2.000000000000000000e+00,-3.635253906250000000e-01,3.515625000000000000e-01,5.150756835937500000e-01,6.920776367187500000e-01
-6.000000000000000000e+00,3.000000000000000000e+00,-1.000000000000000000e+00,-1.700000000000000000e+01,-6.000000000000000000e+00,-1.000000000000000000e+00,2.000000000000000000e+00,4.000000000000000000e+00,-3.635253906250000000e-01,3.515625000000000000e-01,5.150756835937500000e-01,6.920776367187500000e-01
-8.000000000000000000e+00,-1.000000000000000000e+00,-4.000000000000000000e+00,1.300000000000000000e+01,1.000000000000000000e+00,-3.000000000000000000e+00,-1.000000000000000000e+00,-5.000000000000000000e+00,-3.635253906250000000e-01,3.515625000000000000e-01,5.150756835937500000e-01,6.920776367187500000e-01
6.000000000000000000e+00,-2.000000000000000000e+00,-5.000000000000000000e+00,-2.400000000000000000e+01,-2.000000000000000000e+00,-1.000000000000000000e+00,1.000000000000000000e+00,-1.000000000000000000e+00,-3.632202148437500000e-01,3.509521484375000000e-01,5.155029296875000000e-01,6.921386718750000000e-01
-1.000000000000000000e+01,1.000000000000000000e+00,1.400000000000000000e+01,2.200000000000000000e+01,1.000000000000000000e+00,0.000000000000000000e+00,-1.000000000000000000e+00,-3.000000000000000000e+00,-3.632202148437500000e-01,3.509521484375000000e-01,5.155029296875000000e-01,6.921386718750000000e-01
9.000000000000000000e+00,-3.000000000000000000e+00,6.000000000000000000e+00,3.000000000000000000e+00,-1.000000000000000000e+00,-3.000000000000000000e+00,-5.000000000000000000e+00,-2.000000000000000000e+00,-3.632202148437500000e-01,3.509521484375000000e-01,5.155029296875000000e-01,6.921386718750000000e-01
-2.000000000000000000e+00,-5.000000000000000000e+00,-1.300000000000000000e+01,-1.300000000000000000e+01,1.000000000000000000e+00,2.000000000000000000e+00,2.000000000000000000e+00,-4.000000000000000000e+00,-3.632202148437500000e-01,3.509521484375000000e-01,5.155029296875000000e-01,6.921386718750000000e-01
4.000000000000000000e+00,1.000000000000000000e+00,1.200000000000000000e+01,5.000000000000000000e+00,-3.000000000000000000e+00,-3.000000000000000000e+00,0.000000000000000000e+00,0.000000000000000000e+00,-3.637695312500000000e-01,3.493652343750000000e-01,5.159912109375000000e-01,6.923217773437500000e-01
6.000000000000000000e+00,-1.000000000000000000e+00,-2.600000000000000000e+01,-1.200000000000000000e+01,-2.000000000000000000e+00,1.000000000000000000e+00,0.000000000000000000e+00,-4.000000000000000000e+00,-3.637695312500000000e-01,3.493652343750000000e-01,5.159912109375000000e-01,6.923217773437500000e-01
7.000000000000000000e+00,-4.000000000000000000e+00,6.000000000000000000e+00,-3.000000000000000000e+00,-8.000000000000000000e+00,-5.000000000000000000e+00,-3.000000000000000000e+00,7.000000000000000000e+00,-3.637695312500000000e-01,3.493652343750000000e-01,5.159912109375000000e-01,6.923217773437500000e-01
1.400000000000000000e+01,0.000000000000000000e+00,-4.000000000000000000e+00,-9.000000000000000000e+00,2.000000000000000000e+00,1.000000000000000000e+00,4.000000000000000000e+00,7.000000000000000000e+00,-3.637695312500000000e-01,3.493652343750000000e-01,5.159912109375000000e-01,6.923217773437500000e-01
-2.900000000000000000e+01,-1.000000000000000000e+00,-1.000000000000000000e+00,6.000000000000000000e+00,-2.000000000000000000e+00,-4.000000000000000000e+00,-4.000000000000000000e+00,-9.000000000000000000e+00,-3.646240234375000000e-01,3.478393554687500000e-01,5.157470703125000000e-01,6.928100585937500000e-01
-2.000000000000000000e+00,-2.000000000000000000e+00,2.000000000000000000e+00,9.000000000000000000e+00,-4.000000000000000000e+00,-2.000000000000000000e+00,-4.000000000000000000e+00,-4.000000000000000000e+00,-3.646240234375000000e-01,3.478393554687500000e-01,5.157470703125000000e-01,6.928100585937500000e-01
3.000000000000000000e+00,-2.000000000000000000e+00,1.000000000000000000e+00,-1.500000000000000000e+01,3.000000000000000000e+00,0.000000000000000000e+00,0.000000000000000000e+00,4.000000000000000000e+00,-3.646240234375000000e-01,3.478393554687500000e-01,5.157470703125000000e-01,6.928100585937500000e-01
-3.000000000000000000e+00,1.000000000000000000e+00,5.000000000000000000e+00,1.300000000000000000e+01,-1.000000000000000000e+00,-2.000000000000000000e+00,0.000000000000000000e+00,-8.000000000000000000e+00,-3.646240234375000000e-01,3.478393554687500000e-01,5.157470703125000000e-01,6.928100585937500000e-01
8.000000000000000000e+00,-1.000000000000000000e+00,2.000000000000000000e+00,-1.100000000000000000e+01,-2.000000000000000000e+00,1.000000000000000000e+00,0.000000000000000000e+00,5.000000000000000000e+00,-3.648071289062500000e-01,3.477172851562500000e-01,5.150146484375000000e-01,6.932983398437500000e-01
-5.000000000000000000e+00,1.000000000000000000e+00,1.500000000000000000e+01,1.500000000000000000e+01,1.000000000000000000e+00,2.000000000000000000e+00,0.000000000000000000e+00,0.000000000000000000e+00,-3.648071289062500000e-01,3.477172851562500000e-01,5.150146484375000000e-01,6.932983398437500000e-01
-2.000000000000000000e+00,-2.000000000000000000e+00,-4.000000000000000000e+00,-4.000000000000000000e+00,-4.000000000000000000e+00,-3.000000000000000000e+00,-6.000000000000000000e+00,-6.000000000000000000e+00,-3.648071289062500000e-01,3.477172851562500000e-01,5.150146484375000000e-01,6.932983398437500000e-01
-9.000000000000000000e+00,0.000000000000000000e+00,-1.800000000000000000e+01,-5.000000000000000000e+00,-1.000000000000000000e+00,-1.000000000000000000e+00,-1.000000000000000000e+00,5.000000000000000000e+00,-3.648071289062500000e-01,3.477172851562500000e-01,5.150146484375000000e-01,6.932983398437500000e-01
5.000000000000000000e+00,0.000000000000000000e+00,-3.400000000000000000e+01,-8.000000000000000000e+00,-4.000000000000000000e+00,-2.000000000000000000e+00,0.000000000000000000e+00,1.000000000000000000e+00,-3.645019531250000000e-01,3.481445312500000000e-01,5.144042968750000000e-01,6.937255859375000000e-01
-8.000000000000000000e+00,-4.000000000000000000e+00,2.500000000000000000e+01,5.000000000000000000e+00,0.000000000000000000e+00,-1.000000000000000000e+00,-2.000000000000000000e+00,-3.000000000000000000e+00,-3.645019531250000000e-01,3.481445312500000000e-01,5.144042968750000000e-01,6.937255859375000000e-01
3.000000000000000000e+00,1.000000000000000000e+00,3.000000000000000000e+01,1.700000000000000000e+01,5.000000000000000000e+00,6.000000000000000000e+00,3.000000000000000000e+00,7.000000000000000000e+00,-3.645019531250000000e-01,3.481445312500000000e-01,5.144042968750000000e-01,6.937255859375000000e-01
-7.000000000000000000e+00,-9.000000000000000000e+00,-3.600000000000000000e+01,3.000000000000000000e+00,-2.000000000000000000e+00,-2.000000000000000000e+00,-3.000000000000000000e+00,-3.000000000000000000e+00,-3.645019531250000000e-01,3.481445312500000000e-01,5.144042968750000000e-01,6.937255859375000000e-01
2.000000000000000000e+00,0.000000000000000000e+00,1.600000000000000000e+01,0.000000000000000000e+00,-4.000000000000000000e+00,0.000000000000000000e+00,0.000000000000000000e+00,-3.000000000000000000e+00,-3.644409179687500000e-01,3.481445312500000000e-01,5.142211914062500000e-01,6.939086914062500000e-01
-5.000000000000000000e+00,-4.000000000000000000e+00,-3.000000000000000000e+01,-1.700000000000000000e+01,-4.000000000000000000e+00,-4.000000000000000000e+00,-2.000000000000000000e+00,2.000000000000000000e+00,-3.644409179687500000e-01,3.481445312500000000e-01,5.142211914062500000e-01,6.939086914062500000e-01
0.000000000000000000e+00,-5.000000000000000000e+00,-2.000000000000000000e+01,-4.000000000000000000e+00,1.000000000000000000e+00,1.000000000000000000e+00,0.000000000000000000e+00,-5.000000000000000000e+00,-3.644409179687500000e-01,3.481445312500000000e-01,5.142211914062500000e-01,6.939086914062500000e-01
1.000000000000000000e+00,3.000000000000000000e+00,2.400000000000000000e+01,-8.000000000000000000e+00,-2.000000000000000000e+00,2.000000000000000000e+00,-1.000000000000000000e+00,-1.000000000000000000e+00,-3.644409179687500000e-01,3.481445312500000000e-01,5.142211914062500000e-01,6.939086914062500000e-01
-5.000000000000000000e+00,-1.000000000000000000e+00,-7.000000000000000000e+00,1.300000000000000000e+01,3.000000000000000000e+00,0.000000000000000000e+00,-4.000000000000000000e+00,-8.000000000000000000e+00,-3.646240234375000000e-01,3.478393554687500000e-01,5.142211914062500000e-01,6.939697265625000000e-01
2.000000000000000000e+01,2.000000000000000000e+00,-7.000000000000000000e+00,-2.600000000000000000e+01,-4.000000000000000000e+00,-1.000000000000000000e+00,0.000000000000000000e+00,8.000000000000000000e+00,-3.646240234375000000e-01,3.478393554687500000e-01,5.142211914062500000e-01,6.939697265625000000e-01
-3.500000000000000000e+01,-5.000000000000000000e+00,-5.000000000000000000e+00,-1.400000000000000000e+01,-4.000000000000000000e+00,0.000000000000000000e+00,3.000000000000000000e+00,-6.000000000000000000e+00,-3.646240234375000000e-01,3.478393554687500000e-01,5.142211914062500000e-01,6.939697265625000000e-01
-1.800000000000000000e+01,-1.000000000000000000e+00,-8.000000000000000000e+00,8.000000000000000000e+00,0.000000000000000000e+00,0.000000000000000000e+00,-2.000000000000000000e+00,-8.000000000000000000e+00,-3.646240234375000000e-01,3.478393554687500000e-01,5.142211914062500000e-01,6.939697265625000000e-01
-1.000000000000000000e+00,2.000000000000000000e+00,4.200000000000000000e+01,2.000000000000000000e+01,-1.000000000000000000e+00,1.000000000000000000e+00,4.000000000000000000e+00,1.400000000000000000e+01,-3.650512695312500000e-01,3.479003906250000000e-01,5.137939453125000000e-01,6.939697265625000000e-01
0.000000000000000000e+00,1.000000000000000000e+00,-2.800000000000000000e+01,-5.000000000000000000e+00,-1.000000000000000000e+00,-1.000000000000000000e+00,-3.000000000000000000e+00,1.000000000000000000e+00,-3.650512695312500000e-01,3.479003906250000000e-01,5.137939453125000000e-01,6.939697265625000000e-01
7.000000000000000000e+00,-6.000000000000000000e+00,-2.700000000000000000e+01,-1.500000000000000000e+01,-3.000000000000000000e+00,-3.000000000000000000e+00,0.000000000000000000e+00,-1.800000000000000000e+01,-3.650512695312500000e-01,3.479003906250000000e-01,5.137939453125000000e-01,6.939697265625000000e-01
4.000000000000000000e+00,2.000000000000000000e+00,1.900000000000000000e+01,-2.000000000000000000e+00,-1.000000000000000000e+00,-1.000000000000000000e+00,-1.000000000000000000e+00,-1.000000000000000000e+00,-3.650512695312500000e-01,3.479003906250000000e-01,5.137939453125000000e-01,6.939697265625000000e-01
2.000000000000000000e+00,-4.000000000000000000e+00,-3.000000000000000000e+01,-9.000000000000000000e+00,0.000000000000000000e+00,-1.000000000000000000e+00,0.000000000000000000e+00,3.000000000000000000e+00,-3.653564453125000000e-01,3.483886718750000000e-01,5.130615234375000000e-01,6.941528320312500000e-01
-6.000000000000000000e+00,0.000000000000000000e+00,3.000000000000000000e+01,1.000000000000000000e+01,1.000000000000000000e+00,1.000000000000000000e+00,2.000000000000000000e+00,1.000000000000000000e+00,-3.653564453125000000e-01,3.483886718750000000e-01,5.130615234375000000e-01,6.941528320312500000e-01
7.000000000000000000e+00,-7.000000000000000000e+00,-2.900000000000000000e+01,-2.000000000000000000e+00,-5.000000000000000000e+00,-3.000000000000000000e+00,-5.000000000000000000e+00,-1.000000000000000000e+00,-3.653564453125000000e-01,3.483886718750000000e-01,5.130615234375000000e-01,6.941528320312500000e-01
-4.000000000000000000e+00,1.000000000000000000e+00,1.700000000000000000e+01,5.000000000000000000e+00,-7.000000000000000000e+00,-5.000000000000000000e+00,-2.000000000000000000e+00,2.000000000000000000e+00,-3.653564453125000000e-01,3.483886718750000000e-01,5.130615234375000000e-01,6.941528320312500000e-01
5.000000000000000000e+00,-4.000000000000000000e+00,3.000000000000000000e+00,1.900000000000000000e+01,3.000000000000000000e+00,2.000000000000000000e+00,1.000000000000000000e+00,-3.000000000000000000e+00,-3.654785156250000000e-01,3.487548828125000000e-01,5.128173828125000000e-01,6.940917968750000000e-01
-3.000000000000000000e+00,0.000000000000000000e+00,-5.000000000000000000e+00,-3.000000000000000000e+01,-5.000000000000000000e+00,-3.000000000000000000e+00,-2.000000000000000000e+00,-2.000000000000000000e+00,-3.654785156250000000e-01,3.487548828125000000e-01,5.128173828125000000e-01,6.940917968750000000e-01
4.000000000000000000e+00,2.000000000000000000e+00,-8.000000000000000000e+00,-8.000000000000000000e+00,-1.000000000000000000e+00,-1.000000000000000000e+00,-2.000000000000000000e+00,3.000000000000000000e+00,-3.654785156250000000e-01,3.487548828125000000e-01,5.128173828125000000e-01,6.940917968750000000e-01
0.000000000000000000e+00,1.000000000000000000e+00,8.000000000000000000e+00,4.000000000000000000e+00,5.000000000000000000e+00,0.000000000000000000e+00,2.000000000000000000e+00,-1.000000000000000000e+00,-3.654785156250000000e-01,3.487548828125000000e-01,5.128173828125000000e-01,6.940917968750000000e-01
2.000000000000000000e+00,-2.000000000000000000e+00,-2.500000000000000000e+01,-1.100000000000000000e+01,-6.000000000000000000e+00,-2.000000000000000000e+00,-1.000000000000000000e+00,3.000000000000000000e+00,-3.662109375000000000e-01,3.485717773437500000e-01,5.130004882812500000e-01,6.936645507812500000e-01
-6.000000000000000000e+00,-4.000000000000000000e+00,-1.100000000000000000e+01,-1.300000000000000000e+01,-4.000000000000000000e+00,-1.000000000000000000e+00,-2.000000000000000000e+00,-5.000000000000000000e+00,-3.662109375000000000e-01,3.485717773437500000e-01,5.130004882812500000e-01,6.936645507812500000e-01
-3.000000000000000000e+00,0.000000000000000000e+00,2.000000000000000000e+00,1.200000000000000000e+01,2.000000000000000000e+00,-2.000000000000000000e+00,-3.000000000000000000e+00,2.000000000000000000e+00,-3.662109375000000000e-01,3.485717773437500000e-01,5.130004882812500000e-01,6.936645507812500000e-01
1.500000000000000000e+01,0.000000000000000000e+00,6.000000000000000000e+00,4.900000000000000000e+01,4.000000000000000000e+00,-1.000000000000000000e+00,-5.000000000000000000e+00,0.000000000000000000e+00,-3.662109375000000000e-01,3.485717773437500000e-01,5.130004882812500000e-01,6.936645507812500000e-01
-1.300000000000000000e+01,1.000000000000000000e+00,4.000000000000000000e+00,-5.600000000000000000e+01,-3.000000000000000000e+00,2.000000000000000000e+00,0.000000000000000000e+00,-4.000000000000000000e+00,-3.673706054687500000e-01,3.475341796875000000e-01,5.131225585937500000e-01,6.934814453125000000e-01
-7.000000000000000000e+00,-3.000000000000000000e+00,-1.200000000000000000e+01,-3.000000000000000000e+00,-3.000000000000000000e+00,-6.000000000000000000e+00,-6.000000000000000000e+00,-4.000000000000000000e+00,-3.673706054687500000e-01,3.475341796875000000e-01,5.131225585937500000e-01,6.934814453125000000e-01
2.000000000000000000e+00,3.000000000000000000e+00,-3.000000000000000000e+00,-1.500000000000000000e+01,-6.000000000000000000e+00,-4.000000000000000000e+00,8.000000000000000000e+00,4.000000000000000000e+00,-3.673706054687500000e-01,3.475341796875000000e-01,5.131225585937500000e-01,6.934814453125000000e-01
1.500000000000000000e+01,1.000000000000000000e+00,1.200000000000000000e+01,-2.000000000000000000e+00,-2.000000000000000000e+00,6.000000000000000000e+00,-5.000000000000000000e+00,0.000000000000000000e+00,-3.673706054687500000e-01,3.475341796875000000e-01,5.131225585937500000e-01,6.934814453125000000e-01
3.000000000000000000e+00,-3.000000000000000000e+00,-2.000000000000000000e+00,3.000000000000000000e+01,2.000000000000000000e+00,0.000000000000000000e+00,-3.000000000000000000e+00,-1.000000000000000000e+00,-3.679199218750000000e-01,3.467407226562500000e-01,5.128784179687500000e-01,6.937255859375000000e-01
-2.000000000000000000e+00,0.000000000000000000e+00,1.100000000000000000e+01,-5.000000000000000000e+00,3.000000000000000000e+00,3.000000000000000000e+00,1.500000000000000000e+01,1.200000000000000000e+01,-3.679199218750000000e-01,3.467407226562500000e-01,5.128784179687500000e-01,6.937255859375000000e-01
1.000000000000000000e+00,3.000000000000000000e+00,-3.000000000000000000e+00,2.100000000000000000e+01,-1.000000000000000000e+00,-3.000000000000000000e+00,-7.000000000000000000e+00,-1.900000000000000000e+01,-3.679199218750000000e-01,3.467407226562500000e-01,5.128784179687500000e-01,6.937255859375000000e-01
-1.300000000000000000e+01,0.000000000000000000e+00,-5.000000000000000000e+00,-4.500000000000000000e+01,-4.000000000000000000e+00,-2.000000000000000000e+00,0.000000000000000000e+00,-1.000000000000000000e+00,-3.679199218750000000e-01,3.467407226562500000e-01,5.128784179687500000e-01,6.937255859375000000e-01
4.000000000000000000e+00,-2.000000000000000000e+00,3.000000000000000000e+00,6.000000000000000000e+00,-7.000000000000000000e+00,-3.000000000000000000e+00,-3.000000000000000000e+00,1.000000000000000000e+00,-3.679809570312500000e-01,3.463745117187500000e-01,5.123291015625000000e-01,6.943359375000000000e-01
-5.000000000000000000e+00,8.000000000000000000e+00,4.200000000000000000e+01,8.000000000000000000e+00,-1.000000000000000000e+00,-2.000000000000000000e+00,-5.000000000000000000e+00,-6.000000000000000000e+00,-3.679809570312500000e-01,3.463745117187500000e-01,5.123291015625000000e-01,6.943359375000000000e-01
6.000000000000000000e+00,-1.500000000000000000e+01,-4.600000000000000000e+01,-1.000000000000000000e+00,-3.000000000000000000e+00,-4.000000000000000000e+00,-2.000000000000000000e+00,5.000000000000000000e+00,-3.679809570312500000e-01,3.463745117187500000e-01,5.123291015625000000e-01,6.943359375000000000e-01
-4.000000000000000000e+00,-2.000000000000000000e+00,-1.100000000000000000e+01,-2.000000000000000000e+01,0.000000000000000000e+00,2.000000000000000000e+00,3.000000000000000000e+00,2.000000000000000000e+00,-3.679809570312500000e-01,3.463745117187500000e-01,5.123291015625000000e-01,6.943359375000000000e-01
2.000000000000000000e+00,-6.000000000000000000e+00,-9.000000000000000000e+00,2.000000000000000000e+00,-2.000000000000000000e+00,-7.000000000000000000e+00,-5.000000000000000000e+00,-4.000000000000000000e+00,-3.676147460937500000e-01,3.465576171875000000e-01,5.115356445312500000e-01,6.950073242187500000e-01
-4.000000000000000000e+00,-3.000000000000000000e+00,-4.000000000000000000e+00,4.000000000000000000e+00,2.000000000000000000e+00,0.000000000000000000e+00,0.000000000000000000e+00,-3.000000000000000000e+00,-3.676147460937500000e-01,3.465576171875000000e-01,5.115356445312500000e-01,6.950073242187500000e-01
1.200000000000000000e+01,4.000000000000000000e+00,1.200000000000000000e+01,5.000000000000000000e+00,7.000000000000000000e+00,5.000000000000000000e+00,4.000000000000000000e+00,5.000000000000000000e+00,-3.676147460937500000e-01,3.465576171875000000e-01,5.115356445312500000e-01,6.950073242187500000e-01
-1.400000000000000000e+01,-4.000000000000000000e+00,2.000000000000000000e+00,8.500000000000000000e+01,8.000000000000000000e+00,2.000000000000000000e+00,-1.000000000000000000e+00,-3.000000000000000000e+00,-3.676147460937500000e-01,3.465576171875000000e-01,5.115356445312500000e-01,6.950073242187500000e-01
-2.000000000000000000e+00,6.000000000000000000e+00,3.100000000000000000e+01,-9.000000000000000000e+01,-1.100000000000000000e+01,-4.000000000000000000e+00,1.000000000000000000e+00,0.000000000000000000e+00,-3.672485351562500000e-01,3.463745117187500000e-01,5.111694335937500000e-01,6.955566406250000000e-01
7.000000000000000000e+00,-1.000000000000000000e+00,-7.000000000000000000e+00,2.100000000000000000e+01,1.000000000000000000e+00,0.000000000000000000e+00,-5.000000000000000000e+00,-4.000000000000000000e+00,-3.672485351562500000e-01,3.463745117187500000e-01,5.111694335937500000e-01,6.955566406250000000e-01
-1.000000000000000000e+00,1.000000000000000000e+00,1.900000000000000000e+01,9.000000000000000000e+00,2.000000000000000000e+00,2.000000000000000000e+00,0.000000000000000000e+00,1.000000000000000000e+00,-3.672485351562500000e-01,3.463745117187500000e-01,5.111694335937500000e-01,6.955566406250000000e-01
1.000000000000000000e+00,-7.000000000000000000e+00,-3.600000000000000000e+01,-2.900000000000000000e+01,-6.000000000000000000e+00,-1.000000000000000000e+00,2.000000000000000000e+00,1.700000000000000000e+01,-3.672485351562500000e-01,3.463745117187500000e-01,5.111694335937500000e-01,6.955566406250000000e-01
4.000000000000000000e+00,5.000000000000000000e+00,4.000000000000000000e+00,2.500000000000000000e+01,4.000000000000000000e+00,-5.000000000000000000e+00,-1.000000000000000000e+00,-3.000000000000000000e+00,-3.676757812500000000e-01,3.451538085937500000e-01,5.113525390625000000e-01,6.957397460937500000e-01
-9.000000000000000000e+00,-5.000000000000000000e+00,-1.000000000000000000e+01,2.000000000000000000e+00,-3.000000000000000000e+00,-1.000000000000000000e+01,-6.000000000000000000e+00,-1.300000000000000000e+01,-3.676757812500000000e-01,3.451538085937500000e-01,5.113525390625000000e-01,6.957397460937500000e-01
-3.000000000000000000e+00,4.000000000000000000e+00,1.700000000000000000e+01,-1.100000000000000000e+01,3.000000000000000000e+00,8.000000000000000000e+00,-1.400000000000000000e+01,-2.000000000000000000e+00,-3.676757812500000000e-01,3.451538085937500000e-01,5.113525390625000000e-01,6.957397460937500000e-01
2.300000000000000000e+01,1.000000000000000000e+00,7.000000000000000000e+00,3.700000000000000000e+01,9.000000000000000000e+00,3.000000000000000000e+00,1.200000000000000000e+01,8.000000000000000000e+00,-3.676757812500000000e-01,3.451538085937500000e-01,5.113525390625000000e-01,6.957397460937500000e-01
-1.500000000000000000e+01,6.000000000000000000e+00,1.800000000000000000e+01,-3.700000000000000000e+01,-7.000000000000000000e+00,4.000000000000000000e+00,5.000000000000000000e+00,-2.000000000000000000e+00,-3.682861328125000000e-01,3.437500000000000000e-01,5.117797851562500000e-01,6.958618164062500000e-01
1.000000000000000000e+00,-1.000000000000000000e+00,-2.500000000000000000e+01,-2.700000000000000000e+01,-8.000000000000000000e+00,-3.000000000000000000e+00,0.000000000000000000e+00,1.000000000000000000e+00,-3.682861328125000000e-01,3.437500000000000000e-01,5.117797851562500000e-01,6.958618164062500000e-01
1.000000000000000000e+00,-7.000000000000000000e+00,9.000000000000000000e+00,7.000000000000000000e+00,2.000000000000000000e+00,-3.000000000000000000e+00,1.000000000000000000e+00,3.000000000000000000e+00,-3.682861328125000000e-01,3.437500000000000000e-01,5.117797851562500000e-01,6.958618164062500000e-01
-1.200000000000000000e+01,2.000000000000000000e+00,9.000000000000000000e+00,2.000000000000000000e+00,0.000000000000000000e+00,-6.000000000000000000e+00,-7.000000000000000000e+00,-1.200000000000000000e+01,-3.682861328125000000e-01,3.437500000000000000e-01,5.117797851562500000e-01,6.958618164062500000e-01
9.000000000000000000e+00,-2.000000000000000000e+00,-1.000000000000000000e+01,1.200000000000000000e+01,3.000000000000000000e+00,-4.000000000000000000e+00,-3.000000000000000000e+00,3.000000000000000000e+00,-3.690185546875000000e-01,3.427734375000000000e-01,5.117797851562500000e-01,6.959228515625000000e-01
0.000000000000000000e+00,4.000000000000000000e+00,4.600000000000000000e+01,5.200000000000000000e+01,1.000000000000000000e+00,0.000000000000000000e+00,0.000000000000000000e+00,-2.000000000000000000e+00,-3.690185546875000000e-01,3.427734375000000000e-01,5.117797851562500000e-01,6.959228515625000000e-01
-7.000000000000000000e+00,-9.000000000000000000e+00,-4.000000000000000000e+01,-7.000000000000000000e+00,-4.000000000000000000e+00,-3.000000000000000000e+00,2.000000000000000000e+00,0.000000000000000000e+00,-3.690185546875000000e-01,3.427734375000000000e-01,5.117797851562500000e-01,6.959228515625000000e-01
-1.000000000000000000e+00,0.000000000000000000e+00,-2.000000000000000000e+00,-4.900000000000000000e+01,-7.000000000000000000e+00,-1.000000000000000000e+00,-2.000000000000000000e+00,-3.000000000000000000e+00,-3.690185546875000000e-01,3.427734375000000000e-01,5.117797851562500000e-01,6.959228515625000000e-01
1.000000000000000000e+00,-2.000000000000000000e+00,-3.000000000000000000e+00,3.300000000000000000e+01,0.000000000000000000e+00,1.000000000000000000e+00,0.000000000000000000e+00,-4.000000000000000000e+00,-3.692016601562500000e-01,3.423461914062500000e-01,5.117797851562500000e-01,6.961059570312500000e-01
-9.000000000000000000e+00,-2.000000000000000000e+00,9.000000000000000000e+00,-1.800000000000000000e+01,4.000000000000000000e+00,2.000000000000000000e+00,-1.000000000000000000e+00,2.000000000000000000e+00,-3.692016601562500000e-01,3.423461914062500000e-01,5.117797851562500000e-01,6.961059570312500000e-01
3.000000000000000000e+00,5.000000000000000000e+00,-1.200000000000000000e+01,-4.000000000000000000e+00,0.000000000000000000e+00,1.000000000000000000e+00,3.000000000000000000e+00,0.000000000000000000e+00,-3.692016601562500000e-01,3.423461914062500000e-01,5.117797851562500000e-01,6.961059570312500000e-01
1.000000000000000000e+00,-2.000000000000000000e+00,-2.400000000000000000e+01,-2.300000000000000000e+01,-3.000000000000000000e+00,0.000000000000000000e+00,-2.000000000000000000e+00,-4.000000000000000000e+00,-3.692016601562500000e-01,3.423461914062500000e-01,5.117797851562500000e-01,6.961059570312500000e-01
-3.000000000000000000e+00,-3.000000000000000000e+00,0.000000000000000000e+00,-1.300000000000000000e+01,-1.000000000000000000e+00,-2.000000000000000000e+00,-4.000000000000000000e+00,0.000000000000000000e+00,-3.690185546875000000e-01,3.418579101562500000e-01,5.120239257812500000e-01,6.962280273437500000e-01
9.000000000000000000e+00,-4.000000000000000000e+00,-2.700000000000000000e+01,1.200000000000000000e+01,-3.000000000000000000e+00,2.000000000000000000e+00,3.000000000000000000e+00,1.000000000000000000e+00,-3.690185546875000000e-01,3.418579101562500000e-01,5.120239257812500000e-01,6.962280273437500000e-01
0.000000000000000000e+00,2.000000000000000000e+00,2.000000000000000000e+01,4.000000000000000000e+00,4.000000000000000000e+00,-1.000000000000000000e+00,0.000000000000000000e+00,-3.000000000000000000e+00,-3.690185546875000000e-01,3.418579101562500000e-01,5.120239257812500000e-01,6.962280273437500000e-01
4.000000000000000000e+00,-6.000000000000000000e+00,-2.000000000000000000e+00,-2.100000000000000000e+01,-1.300000000000000000e+01,-7.000000000000000000e+00,0.000000000000000000e+00,2.200000000000000000e+01,-3.690185546875000000e-01,3.418579101562500000e-01,5.120239257812500000e-01,6.962280273437500000e-01
-1.800000000000000000e+01,-1.000000000000000000e+00,-3.000000000000000000e+00,3.700000000000000000e+01,1.000000000000000000e+00,1.000000000000000000e+00,-3.000000000000000000e+00,-2.600000000000000000e+01,-3.687744140625000000e-01,3.413085937500000000e-01,5.125122070312500000e-01,6.962890625000000000e-01
-2.000000000000000000e+00,0.000000000000000000e+00,-1.100000000000000000e+01,-2.300000000000000000e+01,2.000000000000000000e+00,1.000000000000000000e+00,-5.000000000000000000e+00,-2.000000000000000000e+00,-3.687744140625000000e-01,3.413085937500000000e-01,5.125122070312500000e-01,6.962890625000000000e-01
-5.000000000000000000e+00,-2.000000000000000000e+00,7.000000000000000000e+00,5.100000000000000000e+01,4.000000000000000000e+00,-1.000000000000000000e+00,-1.000000000000000000e+00,-3.000000000000000000e+00,-3.687744140625000000e-01,3.413085937500000000e-01,5.125122070312500000e-01,6.962890625000000000e-01
-1.400000000000000000e+01,4.000000000000000000e+00,2.700000000000000000e+01,-9.000000000000000000e+01,-1.000000000000000000e+01,-4.000000000000000000e+00,-2.000000000000000000e+00,-2.000000000000000000e+00,-3.687744140625000000e-01,3.413085937500000000e-01,5.125122070312500000e-01,6.962890625000000000e-01
2.000000000000000000e+01,-8.000000000000000000e+00,-5.100000000000000000e+01,-2.000000000000000000e+00,3.000000000000000000e+00,0.000000000000000000e+00,-4.000000000000000000e+00,3.000000000000000000e+00,-3.688964843750000000e-01,3.408813476562500000e-01,5.131835937500000000e-01,6.959228515625000000e-01
-1.000000000000000000e+00,3.000000000000000000e+00,9.000000000000000000e+00,8.000000000000000000e+00,2.000000000000000000e+00,2.000000000000000000e+00,1.000000000000000000e+00,3.000000000000000000e+00,-3.688964843750000000e-01,3.408813476562500000e-01,5.131835937500000000e-01,6.959228515625000000e-01
-1.000000000000000000e+00,0.000000000000000000e+00,-1.000000000000000000e+01,-7.000000000000000000e+00,0.000000000000000000e+00,-4.000000000000000000e+00,-4.000000000000000000e+00,-1.000000000000000000e+00,-3.688964843750000000e-01,3.408813476562500000e-01,5.131835937500000000e-01,6.959228515625000000e-01
-3.000000000000000000e+00,-4.000000000000000000e+00,-1.100000000000000000e+01,-2.000000000000000000e+00,-6.000000000000000000e+00,2.000000000000000000e+00,4.000000000000000000e+00,-1.000000000000000000e+01,-3.688964843750000000e-01,3.408813476562500000e-01,5.131835937500000000e-01,6.959228515625000000e-01
-4.000000000000000000e+00,-4.000000000000000000e+00,2.000000000000000000e+00,2.000000000000000000e+00,2.000000000000000000e+00,-2.000000000000000000e+00,1.000000000000000000e+00,3.000000000000000000e+00,-3.695068359375000000e-01,3.405151367187500000e-01,5.137939453125000000e-01,6.953125000000000000e-01
-4.000000000000000000e+00,3.000000000000000000e+00,-1.100000000000000000e+01,-1.900000000000000000e+01,-5.000000000000000000e+00,-4.000000000000000000e+00,-3.000000000000000000e+00,-7.000000000000000000e+00,-3.695068359375000000e-01,3.405151367187500000e-01,5.137939453125000000e-01,6.953125000000000000e-01
0.000000000000000000e+00,-1.000000000000000000e+00,2.000000000000000000e+00,-1.000000000000000000e+00,-2.000000000000000000e+00,0.000000000000000000e+00,1.000000000000000000e+00,6.000000000000000000e+00,-3.695068359375000000e-01,3.405151367187500000e-01,5.137939453125000000e-01,6.953125000000000000e-01
-3.000000000000000000e+00,0.000000000000000000e+00,4.000000000000000000e+00,5.700000000000000000e+01,1.100000000000000000e+01,2.000000000000000000e+00,0.000000000000000000e+00,-4.000000000000000000e+00,-3.695068359375000000e-01,3.405151367187500000e-01,5.137939453125000000e-01,6.953125000000000000e-01
0.000000000000000000e+00,1.000000000000000000e+00,1.000000000000000000e+00,-4.100000000000000000e+01,-3.000000000000000000e+00,-3.000000000000000000e+00,-2.000000000000000000e+00,0.000000000000000000e+00,-3.700561523437500000e-01,3.401489257812500000e-01,5.138549804687500000e-01,6.951904296875000000e-01
-2.000000000000000000e+00,-3.000000000000000000e+00,5.000000000000000000e+00,-2.000000000000000000e+00,-7.000000000000000000e+00,-2.000000000000000000e+00,-3.000000000000000000e+00,1.000000000000000000e+00,-3.700561523437500000e-01,3.401489257812500000e-01,5.138549804687500000e-01,6.951904296875000000e-01
1.000000000000000000e+00,2.000000000000000000e+00,1.100000000000000000e+01,-1.100000000000000000e+01,-4.000000000000000000e+00,1.000000000000000000e+00,4.000000000000000000e+00,1.000000000000000000e+00,-3.700561523437500000e-01,3.401489257812500000e-01,5.138549804687500000e-01,6.951904296875000000e-01
-5.000000000000000000e+00,0.000000000000000000e+00,1.300000000000000000e+01,2.000000000000000000e+01,2.000000000000000000e+00,-5.000000000000000000e+00,-5.000000000000000000e+00,-5.000000000000000000e+00,-3.700561523437500000e-01,3.401489257812500000e-01,5.138549804687500000e-01,6.951904296875000000e-01
1.800000000000000000e+01,0.000000000000000000e+00,2.000000000000000000e+00,-6.000000000000000000e+00,1.000000000000000000e+00,7.000000000000000000e+00,4.000000000000000000e+00,4.000000000000000000e+00,-3.699951171875000000e-01,3.399047851562500000e-01,5.136108398437500000e-01,6.954956054687500000e-01
-2.200000000000000000e+01,-4.000000000000000000e+00,7.000000000000000000e+00,2.900000000000000000e+01,0.000000000000000000e+00,-4.000000000000000000e+00,-3.000000000000000000e+00,0.000000000000000000e+00,-3.699951171875000000e-01,3.399047851562500000e-01,5.136108398437500000e-01,6.954956054687500000e-01
-4.000000000000000000e+00,-1.000000000000000000e+00,-5.000000000000000000e+00,-1.900000000000000000e+01,-5.000000000000000000e+00,-2.000000000000000000e+00,-5.000000000000000000e+00,-8.000000000000000000e+00,-3.699951171875000000e-01,3.399047851562500000e-01,5.136108398437500000e-01,6.954956054687500000e-01
-1.100000000000000000e+01,-2.000000000000000000e+00,-2.000000000000000000e+00,5.400000000000000000e+01,4.000000000000000000e+00,-3.000000000000000000e+00,0.000000000000000000e+00,6.000000000000000000e+00,-3.699951171875000000e-01,3.399047851562500000e-01,5.136108398437500000e-01,6.954956054687500000e-01
3.000000000000000000e+00,1.000000000000000000e+00,1.000000000000000000e+01,-3.000000000000000000e+00,-6.000000000000000000e+00,4.000000000000000000e+00,-2.000000000000000000e+00,-1.200000000000000000e+01,-3.699951171875000000e-01,3.398437500000000000e-01,5.136108398437500000e-01,6.954956054687500000e-01
2.000000000000000000e+00,-5.000000000000000000e+00,-2.500000000000000000e+01,-3.900000000000000000e+01,-2.000000000000000000e+00,-2.000000000000000000e+00,-3.000000000000000000e+00,0.000000000000000000e+00,-3.699951171875000000e-01,3.398437500000000000e-01,5.136108398437500000e-01,6.954956054687500000e-01
7.000000000000000000e+00,1.000000000000000000e+00,1.900000000000000000e+01,-9.000000000000000000e+00,-2.000000000000000000e+00,1.000000000000000000e+00,1.000000000000000000e+00,2.000000000000000000e+00,-3.699951171875000000e-01,3.398437500000000000e-01,5.136108398437500000e-01,6.954956054687500000e-01
-4.000000000000000000e+00,3.000000000000000000e+00,1.000000000000000000e+00,2.800000000000000000e+01,7.000000000000000000e+00,-2.000000000000000000e+00,-3.000000000000000000e+00,0.000000000000000000e+00,-3.699951171875000000e-01,3.398437500000000000e-01,5.136108398437500000e-01,6.954956054687500000e-01
-6.000000000000000000e+00,-6.000000000000000000e+00,-2.300000000000000000e+01,-4.000000000000000000e+00,-8.000000000000000000e+00,-7.000000000000000000e+00,-3.000000000000000000e+00,6.000000000000000000e+00,-3.702392578125000000e-01,3.393554687500000000e-01,5.140380859375000000e-01,6.953125000000000000e-01
4.000000000000000000e+00,-1.000000000000000000e+00,5.000000000000000000e+00,2.100000000000000000e+01,3.000000000000000000e+00,2.000000000000000000e+00,1.000000000000000000e+00,0.000000000000000000e+00,-3.702392578125000000e-01,3.393554687500000000e-01,5.140380859375000000e-01,6.953125000000000000e-01
-9.000000000000000000e+00,-1.000000000000000000e+00,-4.000000000000000000e+00,-1.100000000000000000e+01,-1.000000000000000000e+00,0.000000000000000000e+00,0.000000000000000000e+00,1.000000000000000000e+00,-3.702392578125000000e-01,3.393554687500000000e-01,5.140380859375000000e-01,6.953125000000000000e-01
6.000000000000000000e+00,-4.000000000000000000e+00,-1.200000000000000000e+01,-4.500000000000000000e+01,-5.000000000000000000e+00,-3.000000000000000000e+00,-3.000000000000000000e+00,-8.000000000000000000e+00,-3.702392578125000000e-01,3.393554687500000000e-01,5.140380859375000000e-01,6.953125000000000000e-01
-6.000000000000000000e+00,1.100000000000000000e+01,4.900000000000000000e+01,4.800000000000000000e+01,5.000000000000000000e+00,-3.000000000000000000e+00,0.000000000000000000e+00,2.000000000000000000e+00,-3.709716796875000000e-01,3.378906250000000000e-01,5.147705078125000000e-01,6.950683593750000000e-01
2.000000000000000000e+00,0.000000000000000000e+00,-1.500000000000000000e+01,-1.000000000000000000e+01,2.000000000000000000e+00,4.000000000000000000e+00,2.000000000000000000e+00,-7.000000000000000000e+00,-3.709716796875000000e-01,3.378906250000000000e-01,5.147705078125000000e-01,6.950683593750000000e-01
1.000000000000000000e+00,-1.000000000000000000e+00,-8.000000000000000000e+00,2.200000000000000000e+01,4.000000000000000000e+00,-1.000000000000000000e+00,2.000000000000000000e+00,4.000000000000000000e+00,-3.709716796875000000e-01,3.378906250000000000e-01,5.147705078125000000e-01,6.950683593750000000e-01
-1.000000000000000000e+00,-2.000000000000000000e+00,-6.000000000000000000e+00,-1.600000000000000000e+01,-7.000000000000000000e+00,-1.000000000000000000e+00,-2.000000000000000000e+00,-4.000000000000000000e+00,-3.709716796875000000e-01,3.378906250000000000e-01,5.147705078125000000e-01,6.950683593750000000e-01
-1.000000000000000000e+00,-1.000000000000000000e+00,-3.200000000000000000e+01,-3.900000000000000000e+01,0.000000000000000000e+00,-2.000000000000000000e+00,-1.000000000000000000e+00,-1.000000000000000000e+00,-3.710327148437500000e-01,3.362426757812500000e-01,5.153198242187500000e-01,6.954345703125000000e-01
9.000000000000000000e+00,-6.000000000000000000e+00,-9.000000000000000000e+00,2.000000000000000000e+00,-8.000000000000000000e+00,-5.000000000000000000e+00,-3.000000000000000000e+00,4.000000000000000000e+00,-3.710327148437500000e-01,3.362426757812500000e-01,5.153198242187500000e-01,6.954345703125000000e-01
-2.100000000000000000e+01,-6.000000000000000000e+00,1.000000000000000000e+00,-4.000000000000000000e+00,-2.000000000000000000e+00,-2.000000000000000000e+00,1.000000000000000000e+00,0.000000000000000000e+00,-3.710327148437500000e-01,3.362426757812500000e-01,5.153198242187500000e-01,6.954345703125000000e-01
1.400000000000000000e+01,-2.000000000000000000e+00,2.000000000000000000e+00,-3.000000000000000000e+00,1.000000000000000000e+00,2.000000000000000000e+00,-1.000000000000000000e+00,-7.000000000000000000e+00,-3.710327148437500000e-01,3.362426757812500000e-01,5.153198242187500000e-01,6.954345703125000000e-01
-2.000000000000000000e+00,-2.000000000000000000e+00,3.000000000000000000e+00,1.900000000000000000e+01,4.000000000000000000e+00,-1.000000000000000000e+00,-3.000000000000000000e+00,1.200000000000000000e+01,-3.699340820312500000e-01,3.355102539062500000e-01,5.153198242187500000e-01,6.964111328125000000e-01
4.000000000000000000e+00,2.000000000000000000e+00,4.000000000000000000e+00,1.600000000000000000e+01,4.000000000000000000e+00,3.000000000000000000e+00,5.000000000000000000e+00,2.000000000000000000e+00,-3.699340820312500000e-01,3.355102539062500000e-01,5.153198242187500000e-01,6.964111328125000000e-01
9.000000000000000000e+00,2.000000000000000000e+00,-1.000000000000000000e+00,-3.300000000000000000e+01,-1.000000000000000000e+01,-4.000000000000000000e+00,-5.000000000000000000e+00,7.000000000000000000e+00,-3.699340820312500000e-01,3.355102539062500000e-01,5.153198242187500000e-01,6.964111328125000000e-01
-8.000000000000000000e+00,1.000000000000000000e+00,1.700000000000000000e+01,1.900000000000000000e+01,4.000000000000000000e+00,-2.000000000000000000e+00,-3.000000000000000000e+00,-8.000000000000000000e+00,-3.699340820312500000e-01,3.355102539062500000e-01,5.153198242187500000e-01,6.964111328125000000e-01
-4.000000000000000000e+00,-2.000000000000000000e+00,-7.000000000000000000e+00,-1.300000000000000000e+01,-4.000000000000000000e+00,-3.000000000000000000e+00,0.000000000000000000e+00,-4.000000000000000000e+00,-3.684692382812500000e-01,3.351440429687500000e-01,5.155029296875000000e-01,6.972045898437500000e-01
-1.000000000000000000e+00,-5.000000000000000000e+00,-5.000000000000000000e+00,1.000000000000000000e+00,-1.000000000000000000e+00,0.000000000000000000e+00,1.000000000000000000e+00,3.000000000000000000e+00,-3.684692382812500000e-01,3.351440429687500000e-01,5.155029296875000000e-01,6.972045898437500000e-01
-2.000000000000000000e+00,-1.000000000000000000e+00,1.000000000000000000e+00,1.900000000000000000e+01,2.000000000000000000e+00,0.000000000000000000e+00,0.000000000000000000e+00,-3.000000000000000000e+00,-3.684692382812500000e-01,3.351440429687500000e-01,5.155029296875000000e-01,6.972045898437500000e-01
1.600000000000000000e+01,1.200000000000000000e+01,1.700000000000000000e+01,1.500000000000000000e+01,3.000000000000000000e+00,1.000000000000000000e+00,-1.000000000000000000e+00,-1.000000000000000000e+00,-3.684692382812500000e-01,3.351440429687500000e-01,5.155029296875000000e-01,6.972045898437500000e-01
-1.000000000000000000e+00,-1.000000000000000000e+01,-1.700000000000000000e+01,-1.100000000000000000e+01,-8.000000000000000000e+00,-5.000000000000000000e+00,0.000000000000000000e+00,5.000000000000000000e+00,-3.676147460937500000e-01,3.344116210937500000e-01,5.162963867187500000e-01,6.973876953125000000e-01
-8.000000000000000000e+00,-9.000000000000000000e+00,2.000000000000000000e+00,-4.700000000000000000e+01,-6.000000000000000000e+00,-2.000000000000000000e+00,-2.000000000000000000e+00,-5.000000000000000000e+00,-3.676147460937500000e-01,3.344116210937500000e-01,5.162963867187500000e-01,6.973876953125000000e-01
-4.000000000000000000e+00,-1.000000000000000000e+00,9.000000000000000000e+00,9.000000000000000000e+00,3.000000000000000000e+00,-3.000000000000000000e+00,-2.000000000000000000e+00,-7.000000000000000000e+00,-3.676147460937500000e-01,3.344116210937500000e-01,5.162963867187500000e-01,6.973876953125000000e-01
-2.000000000000000000e+00,0.000000000000000000e+00,-2.500000000000000000e+01,-4.000000000000000000e+00,-2.000000000000000000e+00,-2.000000000000000000e+00,-3.000000000000000000e+00,1.000000000000000000e+00,-3.676147460937500000e-01,3.344116210937500000e-01,5.162963867187500000e-01,6.973876953125000000e-01
-3.000000000000000000e+00,3.000000000000000000e+00,1.900000000000000000e+01,1.300000000000000000e+01,5.000000000000000000e+00,2.000000000000000000e+00,0.000000000000000000e+00,0.000000000000000000e+00,-3.670654296875000000e-01,3.347778320312500000e-01,5.170288085937500000e-01,6.970214843750000000e-01
1.000000000000000000e+00,3.000000000000000000e+00,6.000000000000000000e+00,1.500000000000000000e+01,2.000000000000000000e+00,1.000000000000000000e+00,-2.000000000000000000e+00,-3.000000000000000000e+00,-3.670654296875000000e-01,3.347778320312500000e-01,5.170288085937500000e-01,6.970214843750000000e-01
3.000000000000000000e+00,-3.000000000000000000e+00,-2.000000000000000000e+01,-1.400000000000000000e+01,-5.000000000000000000e+00,-3.000000000000000000e+00,-2.000000000000000000e+00,-5.000000000000000000e+00,-3.670654296875000000e-01,3.347778320312500000e-01,5.170288085937500000e-01,6.970214843750000000e-01
-1.800000000000000000e+01,-2.000000000000000000e+00,2.000000000000000000e+01,-1.000000000000000000e+01,-3.000000000000000000e+00,1.000000000000000000e+00,-1.000000000000000000e+00,2.000000000000000000e+00,-3.670654296875000000e-01,3.347778320312500000e-01,5.170288085937500000e-01,6.970214843750000000e-01
1.600000000000000000e+01,-1.000000000000000000e+00,3.000000000000000000e+00,2.500000000000000000e+01,1.000000000000000000e+00,1.000000000000000000e+00,0.000000000000000000e+00,-3.000000000000000000e+00,-3.661499023437500000e-01,3.358764648437500000e-01,5.180053710937500000e-01,6.962280273437500000e-01
-1.400000000000000000e+01,3.000000000000000000e+00,-4.000000000000000000e+00,7.000000000000000000e+00,-1.000000000000000000e+00,0.000000000000000000e+00,3.000000000000000000e+00,-7.000000000000000000e+00,-3.661499023437500000e-01,3.358764648437500000e-01,5.180053710937500000e-01,6.962280273437500000e-01
-3.000000000000000000e+00,2.000000000000000000e+00,-3.000000000000000000e+00,-1.500000000000000000e+01,-1.000000000000000000e+00,-2.000000000000000000e+00,3.000000000000000000e+00,2.000000000000000000e+01,-3.661499023437500000e-01,3.358764648437500000e-01,5.180053710937500000e-01,6.962280273437500000e-01
-9.000000000000000000e+00,-4.000000000000000000e+00,-1.000000000000000000e+01,-9.000000000000000000e+00,-5.000000000000000000e+00,-1.000000000000000000e+01,-7.000000000000000000e+00,-1.900000000000000000e+01,-3.661499023437500000e-01,3.358764648437500000e-01,5.180053710937500000e-01,6.962280273437500000e-01
-1.000000000000000000e+01,-4.000000000000000000e+00,1.100000000000000000e+01,2.000000000000000000e+01,-1.000000000000000000e+00,0.000000000000000000e+00,-1.000000000000000000e+00,2.000000000000000000e+00,-3.649291992187500000e-01,3.372192382812500000e-01,5.197143554687500000e-01,6.949462890625000000e-01
5.000000000000000000e+00,-1.000000000000000000e+00,-1.200000000000000000e+01,-1.700000000000000000e+01,0.000000000000000000e+00,8.000000000000000000e+00,6.000000000000000000e+00,-1.000000000000000000e+00,-3.649291992187500000e-01,3.372192382812500000e-01,5.197143554687500000e-01,6.949462890625000000e-01
8.000000000000000000e+00,0.000000000000000000e+00,6.000000000000000000e+00,-1.000000000000000000e+01,-1.000000000000000000e+00,-2.000000000000000000e+00,1.000000000000000000e+00,-5.000000000000000000e+00,-3.649291992187500000e-01,3.372192382812500000e-01,5.197143554687500000e-01,6.949462890625000000e-01
-9.000000000000000000e+00,-3.000000000000000000e+00,1.100000000000000000e+01,1.000000000000000000e+01,-1.000000000000000000e+00,0.000000000000000000e+00,3.000000000000000000e+00,4.000000000000000000e+00,-3.649291992187500000e-01,3.372192382812500000e-01,5.197143554687500000e-01,6.949462890625000000e-01
1.200000000000000000e+01,-3.000000000000000000e+00,5.000000000000000000e+00,-9.000000000000000000e+00,-1.000000000000000000e+00,-6.000000000000000000e+00,-3.000000000000000000e+00,-5.000000000000000000e+00,-3.632812500000000000e-01,3.392944335937500000e-01,5.213012695312500000e-01,6.936035156250000000e-01
7.000000000000000000e+00,5.000000000000000000e+00,4.400000000000000000e+01,1.500000000000000000e+01,6.000000000000000000e+00,1.000000000000000000e+00,0.000000000000000000e+00,1.000000000000000000e+00,-3.632812500000000000e-01,3.392944335937500000e-01,5.213012695312500000e-01,6.936035156250000000e-01
-4.000000000000000000e+00,-5.000000000000000000e+00,-3.900000000000000000e+01,6.000000000000000000e+00,-1.000000000000000000e+00,-2.000000000000000000e+00,-2.000000000000000000e+00,-5.000000000000000000e+00,-3.632812500000000000e-01,3.392944335937500000e-01,5.213012695312500000e-01,6.936035156250000000e-01
1.000000000000000000e+00,-2.000000000000000000e+00,-1.000000000000000000e+00,-1.200000000000000000e+01,-1.000000000000000000e+00,1.000000000000000000e+00,2.000000000000000000e+00,2.000000000000000000e+00,-3.632812500000000000e-01,3.392944335937500000e-01,5.213012695312500000e-01,6.936035156250000000e-01
-6.000000000000000000e+00,0.000000000000000000e+00,-1.500000000000000000e+01,5.000000000000000000e+00,0.000000000000000000e+00,0.000000000000000000e+00,-2.000000000000000000e+00,-2.000000000000000000e+00,-3.617553710937500000e-01,3.416748046875000000e-01,5.223999023437500000e-01,6.923828125000000000e-01
-3.000000000000000000e+00,-1.000000000000000000e+00,1.800000000000000000e+01,1.400000000000000000e+01,1.000000000000000000e+00,-2.000000000000000000e+00,-4.000000000000000000e+00,2.000000000000000000e+00,-3.617553710937500000e-01,3.416748046875000000e-01,5.223999023437500000e-01,6.923828125000000000e-01
-2.000000000000000000e+00,1.000000000000000000e+00,-1.400000000000000000e+01,1.000000000000000000e+00,-2.000000000000000000e+00,2.000000000000000000e+00,2.000000000000000000e+00,-2.000000000000000000e+00,-3.617553710937500000e-01,3.416748046875000000e-01,5.223999023437500000e-01,6.923828125000000000e-01
5.000000000000000000e+00,-6.000000000000000000e+00,1.200000000000000000e+01,-3.400000000000000000e+01,-4.000000000000000000e+00,0.000000000000000000e+00,-2.000000000000000000e+00,-3.000000000000000000e+00,-3.617553710937500000e-01,3.416748046875000000e-01,5.223999023437500000e-01,6.923828125000000000e-01
-4.000000000000000000e+00,-1.000000000000000000e+00,-4.000000000000000000e+00,-1.000000000000000000e+00,-3.000000000000000000e+00,-1.000000000000000000e+00,-1.000000000000000000e+00,-3.000000000000000000e+00,-3.616943359375000000e-01,3.430175781250000000e-01,5.230712890625000000e-01,6.912231445312500000e-01
-1.000000000000000000e+00,0.000000000000000000e+00,-4.000000000000000000e+00,-1.000000000000000000e+00,-1.000000000000000000e+00,-1.000000000000000000e+00,-4.000000000000000000e+00,2.000000000000000000e+00,-3.616943359375000000e-01,3.430175781250000000e-01,5.230712890625000000e-01,6.912231445312500000e-01
4.000000000000000000e+00,1.000000000000000000e+00,1.000000000000000000e+00,-4.000000000000000000e+00,1.000000000000000000e+00,-2.000000000000000000e+00,-4.000000000000000000e+00,-2.000000000000000000e+00,-3.616943359375000000e-01,3.430175781250000000e-01,5.230712890625000000e-01,6.912231445312500000e-01
-5.000000000000000000e+00,-5.000000000000000000e+00,-2.600000000000000000e+01,-3.000000000000000000e+00,-4.000000000000000000e+00,-3.000000000000000000e+00,-2.000000000000000000e+00,-1.000000000000000000e+00,-3.616943359375000000e-01,3.430175781250000000e-01,5.230712890625000000e-01,6.912231445312500000e-01
-3.000000000000000000e+00,0.000000000000000000e+00,-1.000000000000000000e+00,-6.000000000000000000e+00,3.000000000000000000e+00,0.000000000000000000e+00,3.000000000000000000e+00,0.000000000000000000e+00,-3.626708984375000000e-01,3.432006835937500000e-01,5.233154296875000000e-01,6.904907226562500000e-01
1.000000000000000000e+00,0.000000000000000000e+00,-5.000000000000000000e+00,-8.000000000000000000e+00,-1.000000000000000000e+00,-1.000000000000000000e+00,-2.000000000000000000e+00,1.000000000000000000e+00,-3.626708984375000000e-01,3.432006835937500000e-01,5.233154296875000000e-01,6.904907226562500000e-01
2.000000000000000000e+00,-1.000000000000000000e+00,1.800000000000000000e+01,-2.000000000000000000e+00,-6.000000000000000000e+00,-5.000000000000000000e+00,-2.000000000000000000e+00,-5.000000000000000000e+00,-3.626708984375000000e-01,3.432006835937500000e-01,5.233154296875000000e-01,6.904907226562500000e-01
8.000000000000000000e+00,1.000000000000000000e+00,-4.000000000000000000e+00,2.000000000000000000e+01,5.000000000000000000e+00,3.000000000000000000e+00,1.000000000000000000e+00,0.000000000000000000e+00,-3.626708984375000000e-01,3.432006835937500000e-01,5.233154296875000000e-01,6.904907226562500000e-01
-1.900000000000000000e+01,-2.000000000000000000e+00,1.400000000000000000e+01,-3.400000000000000000e+01,-6.000000000000000000e+00,-2.000000000000000000e+00,1.000000000000000000e+00,-9.000000000000000000e+00,-3.632202148437500000e-01,3.425292968750000000e-01,5.227050781250000000e-01,6.909790039062500000e-01
-3.000000000000000000e+00,-5.000000000000000000e+00,-5.800000000000000000e+01,1.300000000000000000e+01,-1.000000000000000000e+00,-5.000000000000000000e+00,-2.000000000000000000e+00,-1.000000000000000000e+00,-3.632202148437500000e-01,3.425292968750000000e-01,5.227050781250000000e-01,6.909790039062500000e-01
-2.000000000000000000e+00,-2.000000000000000000e+00,1.800000000000000000e+01,5.000000000000000000e+00,-1.000000000000000000e+00,1.000000000000000000e+00,-1.000000000000000000e+00,-1.000000000000000000e+00,-3.632202148437500000e-01,3.425292968750000000e-01,5.227050781250000000e-01,6.909790039062500000e-01
6.000000000000000000e+00,2.000000000000000000e+00,1.100000000000000000e+01,3.000000000000000000e+00,-1.000000000000000000e+00,1.000000000000000000e+00,3.000000000000000000e+00,1.000000000000000000e+00,-3.632202148437500000e-01,3.425292968750000000e-01,5.227050781250000000e-01,6.909790039062500000e-01
-3.000000000000000000e+00,-1.000000000000000000e+00,-2.000000000000000000e+01,1.300000000000000000e+01,2.000000000000000000e+00,-1.000000000000000000e+00,-3.000000000000000000e+00,0.000000000000000000e+00,-3.634033203125000000e-01,3.411865234375000000e-01,5.216064453125000000e-01,6.923828125000000000e-01
7.000000000000000000e+00,-6.000000000000000000e+00,-2.000000000000000000e+01,-1.900000000000000000e+01,-6.000000000000000000e+00,-6.000000000000000000e+00,-5.000000000000000000e+00,-3.000000000000000000e+00,-3.634033203125000000e-01,3.411865234375000000e-01,5.216064453125000000e-01,6.923828125000000000e-01
-2.000000000000000000e+00,-1.000000000000000000e+00,5.000000000000000000e+00,5.000000000000000000e+00,-2.000000000000000000e+00,0.000000000000000000e+00,0.000000000000000000e+00,-4.000000000000000000e+00,-3.634033203125000000e-01,3.411865234375000000e-01,5.216064453125000000e-01,6.923828125000000000e-01
-1.000000000000000000e+00,0.000000000000000000e+00,-9.000000000000000000e+00,-3.000000000000000000e+01,-7.000000000000000000e+00,-3.000000000000000000e+00,0.000000000000000000e+00,1.000000000000000000e+00,-3.634033203125000000e-01,3.411865234375000000e-01,5.216064453125000000e-01,6.923828125000000000e-01
3.000000000000000000e+00,5.000000000000000000e+00,1.800000000000000000e+01,1.100000000000000000e+01,1.100000000000000000e+01,6.000000000000000000e+00,3.000000000000000000e+00,2.000000000000000000e+00,-3.640136718750000000e-01,3.388671875000000000e-01,5.202636718750000000e-01,6.941528320312500000e-01
-5.000000000000000000e+00,-6.000000000000000000e+00,-2.400000000000000000e+01,-1.600000000000000000e+01,-8.000000000000000000e+00,-4.000000000000000000e+00,-3.000000000000000000e+00,6.000000000000000000e+00,-3.640136718750000000e-01,3.388671875000000000e-01,5.202636718750000000e-01,6.941528320312500000e-01
1.000000000000000000e+00,-2.000000000000000000e+00,-1.000000000000000000e+00,1.000000000000000000e+00,2.000000000000000000e+00,2.000000000000000000e+00,0.000000000000000000e+00,-7.000000000000000000e+00,-3.640136718750000000e-01,3.388671875000000000e-01,5.202636718750000000e-01,6.941528320312500000e-01
-3.000000000000000000e+00,-5.000000000000000000e+00,-2.400000000000000000e+01,4.000000000000000000e+00,2.000000000000000000e+00,-1.000000000000000000e+00,-3.000000000000000000e+00,-3.000000000000000000e+00,-3.640136718750000000e-01,3.388671875000000000e-01,5.202636718750000000e-01,6.941528320312500000e-01
-4.000000000000000000e+00,2.000000000000000000e+00,1.200000000000000000e+01,3.000000000000000000e+01,-3.000000000000000000e+00,-4.000000000000000000e+00,0.000000000000000000e+00,3.000000000000000000e+00,-3.649902343750000000e-01,3.357543945312500000e-01,5.187988281250000000e-01,6.962890625000000000e-01
-4.000000000000000000e+00,-1.000000000000000000e+00,3.000000000000000000e+00,-5.000000000000000000e+01,-5.000000000000000000e+00,-3.000000000000000000e+00,-3.000000000000000000e+00,-3.000000000000000000e+00,-3.649902343750000000e-01,3.357543945312500000e-01,5.187988281250000000e-01,6.962890625000000000e-01
-1.000000000000000000e+00,3.000000000000000000e+00,1.700000000000000000e+01,-1.000000000000000000e+00,-2.000000000000000000e+00,4.000000000000000000e+00,0.000000000000000000e+00,4.000000000000000000e+00,-3.649902343750000000e-01,3.357543945312500000e-01,5.187988281250000000e-01,6.962890625000000000e-01
0.000000000000000000e+00,-1.000000000000000000e+00,9.000000000000000000e+00,2.500000000000000000e+01,6.000000000000000000e+00,1.000000000000000000e+00,1.000000000000000000e+00,-8.000000000000000000e+00,-3.649902343750000000e-01,3.357543945312500000e-01,5.187988281250000000e-01,6.962890625000000000e-01
-6.000000000000000000e+00,-5.000000000000000000e+00,-1.800000000000000000e+01,-1.900000000000000000e+01,-5.000000000000000000e+00,2.000000000000000000e+00,0.000000000000000000e+00,-2.000000000000000000e+00,-3.660278320312500000e-01,3.325805664062500000e-01,5.169677734375000000e-01,6.986694335937500000e-01
1.300000000000000000e+01,4.000000000000000000e+00,2.300000000000000000e+01,4.200000000000000000e+01,3.000000000000000000e+00,-3.000000000000000000e+00,-3.000000000000000000e+00,-8.000000000000000000e+00,-3.660278320312500000e-01,3.325805664062500000e-01,5.169677734375000000e-01,6.986694335937500000e-01
2.000000000000000000e+00,1.000000000000000000e+00,6.000000000000000000e+00,-3.000000000000000000e+00,2.000000000000000000e+00,-2.000000000000000000e+00,0.000000000000000000e+00,7.000000000000000000e+00,-3.660278320312500000e-01,3.325805664062500000e-01,5.169677734375000000e-01,6.986694335937500000e-01
-4.000000000000000000e+00,-2.000000000000000000e+00,6.000000000000000000e+00,-2.300000000000000000e+01,-5.000000000000000000e+00,0.000000000000000000e+00,0.000000000000000000e+00,-3.000000000000000000e+00,-3.660278320312500000e-01,3.325805664062500000e-01,5.169677734375000000e-01,6.986694335937500000e-01
4.000000000000000000e+00,-6.000000000000000000e+00,-2.300000000000000000e+01,6.000000000000000000e+00,-1.000000000000000000e+00,0.000000000000000000e+00,0.000000000000000000e+00,1.000000000000000000e+00,-3.666992187500000000e-01,3.298950195312500000e-01,5.148925781250000000e-01,7.010498046875000000e-01
-2.000000000000000000e+00,4.000000000000000000e+00,6.000000000000000000e+00,6.000000000000000000e+00,0.000000000000000000e+00,1.000000000000000000e+00,1.000000000000000000e+00,-3.000000000000000000e+00,-3.666992187500000000e-01,3.298950195312500000e-01,5.148925781250000000e-01,7.010498046875000000e-01
-4.000000000000000000e+00,0.000000000000000000e+00,1.600000000000000000e+01,9.000000000000000000e+00,3.000000000000000000e+00,-1.000000000000000000e+00,-2.000000000000000000e+00,-2.000000000000000000e+00,-3.666992187500000000e-01,3.298950195312500000e-01,5.148925781250000000e-01,7.010498046875000000e-01
0.000000000000000000e+00,1.000000000000000000e+00,-4.000000000000000000e+00,6.000000000000000000e+00,-5.000000000000000000e+00,-5.000000000000000000e+00,-2.000000000000000000e+00,2.000000000000000000e+00,-3.666992187500000000e-01,3.298950195312500000e-01,5.148925781250000000e-01,7.010498046875000000e-01
2.000000000000000000e+00,-2.000000000000000000e+00,-3.000000000000000000e+00,-3.400000000000000000e+01,-4.000000000000000000e+00,-1.000000000000000000e+00,0.000000000000000000e+00,-1.000000000000000000e+00,-3.678588867187500000e-01,3.269653320312500000e-01,5.131225585937500000e-01,7.031250000000000000e-01
-1.000000000000000000e+00,2.000000000000000000e+00,6.000000000000000000e+00,1.800000000000000000e+01,6.000000000000000000e+00,3.000000000000000000e+00,2.000000000000000000e+00,2.000000000000000000e+00,-3.678588867187500000e-01,3.269653320312500000e-01,5.131225585937500000e-01,7.031250000000000000e-01
0.000000000000000000e+00,-2.000000000000000000e+00,1.100000000000000000e+01,2.000000000000000000e+00,-1.000000000000000000e+00,-1.000000000000000000e+00,-1.000000000000000000e+00,-2.000000000000000000e+00,-3.678588867187500000e-01,3.269653320312500000e-01,5.131225585937500000e-01,7.031250000000000000e-01
-4.000000000000000000e+00,-6.000000000000000000e+00,-1.800000000000000000e+01,-2.700000000000000000e+01,-4.000000000000000000e+00,-3.000000000000000000e+00,-2.000000000000000000e+00,2.000000000000000000e+00,-3.678588867187500000e-01,3.269653320312500000e-01,5.131225585937500000e-01,7.031250000000000000e-01
1.000000000000000000e+00,-2.000000000000000000e+00,1.700000000000000000e+01,3.800000000000000000e+01,9.000000000000000000e+00,3.000000000000000000e+00,1.000000000000000000e+00,-2.000000000000000000e+00,-3.689575195312500000e-01,3.245239257812500000e-01,5.113525390625000000e-01,7.050170898437500000e-01
-2.000000000000000000e+00,3.000000000000000000e+00,1.900000000000000000e+01,-1.000000000000000000e+00,-2.000000000000000000e+00,-1.000000000000000000e+00,-2.000000000000000000e+00,2.000000000000000000e+00,-3.689575195312500000e-01,3.245239257812500000e-01,5.113525390625000000e-01,7.050170898437500000e-01
4.000000000000000000e+00,-1.000000000000000000e+00,-1.000000000000000000e+01,2.000000000000000000e+00,-1.000000000000000000e+00,0.000000000000000000e+00,-1.000000000000000000e+00,0.000000000000000000e+00,-3.689575195312500000e-01,3.245239257812500000e-01,5.113525390625000000e-01,7.050170898437500000e-01
-3.000000000000000000e+00,2.000000000000000000e+00,-7.000000000000000000e+00,-4.000000000000000000e+00,-2.000000000000000000e+00,-1.000000000000000000e+00,-4.000000000000000000e+00,0.000000000000000000e+00,-3.689575195312500000e-01,3.245239257812500000e-01,5.113525390625000000e-01,7.050170898437500000e-01
-1.300000000000000000e+01,-2.000000000000000000e+00,2.000000000000000000e+01,8.000000000000000000e+00,0.000000000000000000e+00,-2.000000000000000000e+00,2.000000000000000000e+00,-1.000000000000000000e+00,-3.701782226562500000e-01,3.226928710937500000e-01,5.097045898437500000e-01,7.064208984375000000e-01
-4.000000000000000000e+00,-4.000000000000000000e+00,-1.000000000000000000e+01,-2.000000000000000000e+01,-6.000000000000000000e+00,-3.000000000000000000e+00,0.000000000000000000e+00,2.000000000000000000e+01,-3.701782226562500000e-01,3.226928710937500000e-01,5.097045898437500000e-01,7.064208984375000000e-01
-3.000000000000000000e+00,-2.000000000000000000e+00,4.000000000000000000e+00,3.400000000000000000e+01,0.000000000000000000e+00,0.000000000000000000e+00,-2.000000000000000000e+00,-2.200000000000000000e+01,-3.701782226562500000e-01,3.226928710937500000e-01,5.097045898437500000e-01,7.064208984375000000e-01
9.000000000000000000e+00,4.000000000000000000e+00,-1.300000000000000000e+01,-2.700000000000000000e+01,-3.000000000000000000e+00,-3.000000000000000000e+00,0.000000000000000000e+00,-6.000000000000000000e+00,-3.701782226562500000e-01,3.226928710937500000e-01,5.097045898437500000e-01,7.064208984375000000e-01
0.000000000000000000e+00,-1.000000000000000000e+00,6.000000000000000000e+00,-2.600000000000000000e+01,-1.000000000000000000e+01,-7.000000000000000000e+00,-1.100000000000000000e+01,-1.000000000000000000e+01,-3.712768554687500000e-01,3.214111328125000000e-01,5.083007812500000000e-01,7.073974609375000000e-01
-1.000000000000000000e+01,-6.000000000000000000e+00,-2.600000000000000000e+01,-7.000000000000000000e+00,2.000000000000000000e+00,3.000000000000000000e+00,2.000000000000000000e+00,-5.000000000000000000e+00,-3.712768554687500000e-01,3.214111328125000000e-01,5.083007812500000000e-01,7.073974609375000000e-01
2.000000000000000000e+00,0.000000000000000000e+00,-3.400000000000000000e+01,-2.000000000000000000e+01,-4.000000000000000000e+00,-3.000000000000000000e+00,-3.000000000000000000e+00,0.000000000000000000e+00,-3.712768554687500000e-01,3.214111328125000000e-01,5.083007812500000000e-01,7.073974609375000000e-01
2.000000000000000000e+00,-4.000000000000000000e+00,2.800000000000000000e+01,2.800000000000000000e+01,4.000000000000000000e+00,1.000000000000000000e+00,1.000000000000000000e+00,2.000000000000000000e+00,-3.712768554687500000e-01,3.214111328125000000e-01,5.083007812500000000e-01,7.073974609375000000e-01
1.000000000000000000e+00,3.000000000000000000e+00,2.000000000000000000e+00,9.000000000000000000e+00,1.000000000000000000e+00,-2.000000000000000000e+00,-2.000000000000000000e+00,1.000000000000000000e+00,-3.720703125000000000e-01,3.208618164062500000e-01,5.072631835937500000e-01,7.079467773437500000e-01
-2.000000000000000000e+00,-4.000000000000000000e+00,-5.000000000000000000e+00,4.000000000000000000e+00,1.000000000000000000e+00,-1.000000000000000000e+00,-1.000000000000000000e+00,-1.100000000000000000e+01,-3.720703125000000000e-01,3.208618164062500000e-01,5.072631835937500000e-01,7.079467773437500000e-01
-6.000000000000000000e+00,0.000000000000000000e+00,1.000000000000000000e+00,-1.200000000000000000e+01,3.000000000000000000e+00,2.000000000000000000e+00,1.000000000000000000e+00,1.000000000000000000e+00,-3.720703125000000000e-01,3.208618164062500000e-01,5.072631835937500000e-01,7.079467773437500000e-01
2.100000000000000000e+01,3.000000000000000000e+00,-7.000000000000000000e+00,-3.000000000000000000e+00,-3.000000000000000000e+00,-2.000000000000000000e+00,-2.000000000000000000e+00,1.000000000000000000e+00,-3.720703125000000000e-01,3.208618164062500000e-01,5.072631835937500000e-01,7.079467773437500000e-01
-1.700000000000000000e+01,1.000000000000000000e+00,-1.000000000000000000e+00,-2.400000000000000000e+01,-2.000000000000000000e+00,-1.000000000000000000e+00,1.000000000000000000e+00,7.000000000000000000e+00,-3.728637695312500000e-01,3.203735351562500000e-01,5.064697265625000000e-01,7.083740234375000000e-01
4.000000000000000000e+00,1.000000000000000000e+00,1.100000000000000000e+01,2.400000000000000000e+01,6.000000000000000000e+00,1.000000000000000000e+00,-1.000000000000000000e+00,-5.000000000000000000e+00,-3.728637695312500000e-01,3.203735351562500000e-01,5.064697265625000000e-01,7.083740234375000000e-01
3.000000000000000000e+00,0.000000000000000000e+00,-2.000000000000000000e+00,1.400000000000000000e+01,4.000000000000000000e+00,1.000000000000000000e+00,1.000000000000000000e+00,6.000000000000000000e+00,-3.728637695312500000e-01,3.203735351562500000e-01,5.064697265625000000e-01,7.083740234375000000e-01
-1.900000000000000000e+01,-1.000000000000000000e+00,4.000000000000000000e+00,2.700000000000000000e+01,1.000000000000000000e+00,0.000000000000000000e+00,1.000000000000000000e+00,4.000000000000000000e+00,-3.728637695312500000e-01,3.203735351562500000e-01,5.064697265625000000e-01,7.083740234375000000e-01
3.700000000000000000e+01,-3.000000000000000000e+00,-6.000000000000000000e+00,-3.100000000000000000e+01,-7.000000000000000000e+00,-4.000000000000000000e+00,-3.000000000000000000e+00,-3.000000000000000000e+00,-3.736572265625000000e-01,3.201293945312500000e-01,5.054931640625000000e-01,7.086791992187500000e-01
8.000000000000000000e+00,6.000000000000000000e+00,9.000000000000000000e+00,-3.000000000000000000e+00,-4.000000000000000000e+00,-2.000000000000000000e+00,1.000000000000000000e+00,0.000000000000000000e+00,-3.736572265625000000e-01,3.201293945312500000e-01,5.054931640625000000e-01,7.086791992187500000e-01
-1.500000000000000000e+01,-4.000000000000000000e+00,3.000000000000000000e+00,0.000000000000000000e+00,-4.000000000000000000e+00,-3.000000000000000000e+00,-3.000000000000000000e+00,-2.000000000000000000e+00,-3.736572265625000000e-01,3.201293945312500000e-01,5.054931640625000000e-01,7.086791992187500000e-01
-4.000000000000000000e+00,-4.000000000000000000e+00,-7.000000000000000000e+00,1.000000000000000000e+01,3.000000000000000000e+00,1.000000000000000000e+00,0.000000000000000000e+00,-2.000000000000000000e+00,-3.736572265625000000e-01,3.201293945312500000e-01,5.054931640625000000e-01,7.086791992187500000e-01
2.000000000000000000e+00,-1.000000000000000000e+00,-1.300000000000000000e+01,-7.000000000000000000e+00,1.000000000000000000e+00,1.000000000000000000e+00,0.000000000000000000e+00,1.000000000000000000e+00,-3.733520507812500000e-01,3.208007812500000000e-01,5.045166015625000000e-01,7.092895507812500000e-01
-4.000000000000000000e+00,1.000000000000000000e+00,2.300000000000000000e+01,-1.700000000000000000e+01,-4.000000000000000000e+00,-1.000000000000000000e+00,1.000000000000000000e+00,1.000000000000000000e+01,-3.733520507812500000e-01,3.208007812500000000e-01,5.045166015625000000e-01,7.092895507812500000e-01
7.000000000000000000e+00,-1.000000000000000000e+00,-2.800000000000000000e+01,2.000000000000000000e+00,0.000000000000000000e+00,-1.000000000000000000e+00,0.000000000000000000e+00,-4.000000000000000000e+00,-3.733520507812500000e-01,3.208007812500000000e-01,5.045166015625000000e-01,7.092895507812500000e-01
4.000000000000000000e+00,-2.000000000000000000e+00,-8.000000000000000000e+00,1.100000000000000000e+01,-3.000000000000000000e+00,0.000000000000000000e+00,0.000000000000000000e+00,-2.000000000000000000e+00,-3.733520507812500000e-01,3.208007812500000000e-01,5.045166015625000000e-01,7.092895507812500000e-01
-1.000000000000000000e+01,-4.000000000000000000e+00,-1.000000000000000000e+00,-9.000000000000000000e+00,-3.000000000000000000e+00,1.000000000000000000e+00,2.000000000000000000e+00,3.000000000000000000e+00,-3.724365234375000000e-01,3.216552734375000000e-01,5.040283203125000000e-01,7.097167968750000000e-01
-2.100000000000000000e+01,-7.000000000000000000e+00,-1.200000000000000000e+01,4.500000000000000000e+01,3.000000000000000000e+00,-1.000000000000000000e+00,-4.000000000000000000e+00,-6.000000000000000000e+00,-3.724365234375000000e-01,3.216552734375000000e-01,5.040283203125000000e-01,7.097167968750000000e-01
8.000000000000000000e+00,8.000000000000000000e+00,1.200000000000000000e+01,-4.600000000000000000e+01,-3.000000000000000000e+00,-3.000000000000000000e+00,0.000000000000000000e+00,3.000000000000000000e+00,-3.724365234375000000e-01,3.216552734375000000e-01,5.040283203125000000e-01,7.097167968750000000e-01
0.000000000000000000e+00,4.000000000000000000e+00,5.000000000000000000e+00,-4.000000000000000000e+01,-8.000000000000000000e+00,-1.000000000000000000e+00,2.000000000000000000e+00,2.000000000000000000e+00,-3.724365234375000000e-01,3.216552734375000000e-01,5.040283203125000000e-01,7.097167968750000000e-01
-7.000000000000000000e+00,-2.000000000000000000e+00,-1.400000000000000000e+01,1.400000000000000000e+01,-1.000000000000000000e+00,0.000000000000000000e+00,-2.000000000000000000e+00,4.000000000000000000e+00,-3.716430664062500000e-01,3.225097656250000000e-01,5.039672851562500000e-01,7.097778320312500000e-01
1.500000000000000000e+01,-6.000000000000000000e+00,5.000000000000000000e+00,2.400000000000000000e+01,2.000000000000000000e+00,2.000000000000000000e+00,1.000000000000000000e+00,-1.000000000000000000e+01,-3.716430664062500000e-01,3.225097656250000000e-01,5.039672851562500000e-01,7.097778320312500000e-01
3.000000000000000000e+00,0.000000000000000000e+00,5.000000000000000000e+00,-3.000000000000000000e+00,3.000000000000000000e+00,0.000000000000000000e+00,-1.000000000000000000e+00,-6.000000000000000000e+00,-3.716430664062500000e-01,3.225097656250000000e-01,5.039672851562500000e-01,7.097778320312500000e-01
-1.000000000000000000e+01,-2.000000000000000000e+00,3.000000000000000000e+01,-6.000000000000000000e+00,-1.000000000000000000e+00,-1.000000000000000000e+00,4.000000000000000000e+00,1.600000000000000000e+01,-3.716430664062500000e-01,3.225097656250000000e-01,5.039672851562500000e-01,7.097778320312500000e-01
1.000000000000000000e+00,-2.000000000000000000e+00,-2.400000000000000000e+01,1.000000000000000000e+00,1.000000000000000000e+00,0.000000000000000000e+00,-1.000000000000000000e+00,1.000000000000000000e+00,-3.710937500000000000e-01,3.232421875000000000e-01,5.041503906250000000e-01,7.095947265625000000e-01
-5.000000000000000000e+00,2.000000000000000000e+00,7.000000000000000000e+00,-1.500000000000000000e+01,-6.000000000000000000e+00,-5.000000000000000000e+00,-2.000000000000000000e+00,-1.700000000000000000e+01,-3.710937500000000000e-01,3.232421875000000000e-01,5.041503906250000000e-01,7.095947265625000000e-01
1.000000000000000000e+00,-1.000000000000000000e+00,0.000000000000000000e+00,1.600000000000000000e+01,-2.000000000000000000e+00,-1.000000000000000000e+00,9.000000000000000000e+00,4.400000000000000000e+01,-3.710937500000000000e-01,3.232421875000000000e-01,5.041503906250000000e-01,7.095947265625000000e-01
5.000000000000000000e+00,0.000000000000000000e+00,5.000000000000000000e+00,2.100000000000000000e+01,4.000000000000000000e+00,0.000000000000000000e+00,-1.500000000000000000e+01,-5.300000000000000000e+01,-3.710937500000000000e-01,3.232421875000000000e-01,5.041503906250000000e-01,7.095947265625000000e-01
-8.000000000000000000e+00,-3.000000000000000000e+00,0.000000000000000000e+00,-3.000000000000000000e+01,-1.000000000000000000e+00,-2.000000000000000000e+00,2.000000000000000000e+00,1.300000000000000000e+01,-3.706054687500000000e-01,3.236083984375000000e-01,5.043334960937500000e-01,7.095947265625000000e-01
7.000000000000000000e+00,4.000000000000000000e+00,4.000000000000000000e+00,4.200000000000000000e+01,7.000000000000000000e+00,2.000000000000000000e+00,-2.000000000000000000e+00,-6.000000000000000000e+00,-3.706054687500000000e-01,3.236083984375000000e-01,5.043334960937500000e-01,7.095947265625000000e-01
-7.000000000000000000e+00,-2.000000000000000000e+00,1.000000000000000000e+00,-2.000000000000000000e+01,-7.000000000000000000e+00,-7.000000000000000000e+00,-1.100000000000000000e+01,-1.600000000000000000e+01,-3.706054687500000000e-01,3.236083984375000000e-01,5.043334960937500000e-01,7.095947265625000000e-01
-8.000000000000000000e+00,-7.000000000000000000e+00,-3.000000000000000000e+00,-1.300000000000000000e+01,-1.100000000000000000e+01,-6.000000000000000000e+00,6.000000000000000000e+00,2.800000000000000000e+01,-3.706054687500000000e-01,3.236083984375000000e-01,5.043334960937500000e-01,7.095947265625000000e-01
-3.000000000000000000e+00,-1.000000000000000000e+00,-4.000000000000000000e+00,3.300000000000000000e+01,5.000000000000000000e+00,1.100000000000000000e+01,3.000000000000000000e+00,-2.600000000000000000e+01,-3.694458007812500000e-01,3.244018554687500000e-01,5.047607421875000000e-01,7.095336914062500000e-01
1.100000000000000000e+01,-3.000000000000000000e+00,-1.900000000000000000e+01,-3.800000000000000000e+01,-6.000000000000000000e+00,0.000000000000000000e+00,0.000000000000000000e+00,-4.000000000000000000e+00,-3.694458007812500000e-01,3.244018554687500000e-01,5.047607421875000000e-01,7.095336914062500000e-01
-2.000000000000000000e+00,4.000000000000000000e+00,1.900000000000000000e+01,1.400000000000000000e+01,8.000000000000000000e+00,1.000000000000000000e+00,-3.000000000000000000e+00,2.000000000000000000e+00,-3.694458007812500000e-01,3.244018554687500000e-01,5.047607421875000000e-01,7.095336914062500000e-01
-3.000000000000000000e+00,-1.600000000000000000e+01,-7.700000000000000000e+01,-2.900000000000000000e+01,-6.000000000000000000e+00,-5.000000000000000000e+00,0.000000000000000000e+00,9.000000000000000000e+00,-3.694458007812500000e-01,3.244018554687500000e-01,5.047607421875000000e-01,7.095336914062500000e-01
1.000000000000000000e+00,5.000000000000000000e+00,2.100000000000000000e+01,1.800000000000000000e+01,-5.000000000000000000e+00,-9.000000000000000000e+00,-7.000000000000000000e+00,-1.200000000000000000e+01,-3.687744140625000000e-01,3.248901367187500000e-01,5.054931640625000000e-01,7.091064453125000000e-01
2.000000000000000000e+00,-2.000000000000000000e+00,1.500000000000000000e+01,1.000000000000000000e+00,-1.000000000000000000e+00,0.000000000000000000e+00,-1.000000000000000000e+00,8.000000000000000000e+00,-3.687744140625000000e-01,3.248901367187500000e-01,5.054931640625000000e-01,7.091064453125000000e-01
1.000000000000000000e+00,0.000000000000000000e+00,-7.000000000000000000e+00,-1.400000000000000000e+01,-6.000000000000000000e+00,1.000000000000000000e+00,0.000000000000000000e+00,-6.000000000000000000e+00,-3.687744140625000000e-01,3.248901367187500000e-01,5.054931640625000000e-01,7.091064453125000000e-01
3.000000000000000000e+00,7.000000000000000000e+00,1.800000000000000000e+01,1.400000000000000000e+01,9.000000000000000000e+00,1.000000000000000000e+00,3.000000000000000000e+00,2.000000000000000000e+00,-3.687744140625000000e-01,3.248901367187500000e-01,5.054931640625000000e-01,7.091064453125000000e-01
4.000000000000000000e+00,-3.000000000000000000e+00,1.000000000000000000e+00,-2.900000000000000000e+01,-1.200000000000000000e+01,-5.000000000000000000e+00,-2.000000000000000000e+00,4.000000000000000000e+00,-3.687744140625000000e-01,3.244628906250000000e-01,5.067749023437500000e-01,7.084350585937500000e-01
-9.000000000000000000e+00,-2.000000000000000000e+00,6.000000000000000000e+00,3.000000000000000000e+00,-3.000000000000000000e+00,-5.000000000000000000e+00,-4.000000000000000000e+00,-3.000000000000000000e+00,-3.687744140625000000e-01,3.244628906250000000e-01,5.067749023437500000e-01,7.084350585937500000e-01
-4.000000000000000000e+00,-4.000000000000000000e+00,-6.000000000000000000e+00,-2.500000000000000000e+01,-3.000000000000000000e+00,-1.000000000000000000e+00,-2.000000000000000000e+00,0.000000000000000000e+00,-3.687744140625000000e-01,3.244628906250000000e-01,5.067749023437500000e-01,7.084350585937500000e-01
3.000000000000000000e+00,0.000000000000000000e+00,3.000000000000000000e+00,3.700000000000000000e+01,4.000000000000000000e+00,1.000000000000000000e+00,8.000000000000000000e+00,2.000000000000000000e+00,-3.687744140625000000e-01,3.244628906250000000e-01,5.067749023437500000e-01,7.084350585937500000e-01
