0.000000000000000000e+00,0.000000000000000000e+00,-4.000000000000000000e+00,4.000000000000000000e+00,-1.000000000000000000e+00,0.000000000000000000e+00,-2.000000000000000000e+00,0.000000000000000000e+00,-3.347778320312500000e-01,4.381103515625000000e-01,3.909301757812500000e-01,7.369384765625000000e-01
0.000000000000000000e+00,1.000000000000000000e+00,-2.000000000000000000e+00,1.400000000000000000e+01,2.000000000000000000e+00,0.000000000000000000e+00,-2.000000000000000000e+00,0.000000000000000000e+00,-3.347778320312500000e-01,4.381103515625000000e-01,3.909301757812500000e-01,7.369384765625000000e-01
0.000000000000000000e+00,-1.000000000000000000e+00,5.000000000000000000e+00,2.100000000000000000e+01,3.000000000000000000e+00,2.000000000000000000e+00,-1.000000000000000000e+00,0.000000000000000000e+00,-3.347778320312500000e-01,4.381103515625000000e-01,3.909301757812500000e-01,7.369384765625000000e-01
-1.000000000000000000e+00,-2.000000000000000000e+00,-6.000000000000000000e+00,-2.200000000000000000e+01,-1.000000000000000000e+00,-2.000000000000000000e+00,-2.000000000000000000e+00,0.000000000000000000e+00,-3.347778320312500000e-01,4.381103515625000000e-01,3.909301757812500000e-01,7.369384765625000000e-01
-2.000000000000000000e+00,-2.000000000000000000e+00,1.200000000000000000e+01,7.000000000000000000e+00,0.000000000000000000e+00,-1.000000000000000000e+00,-1.000000000000000000e+00,0.000000000000000000e+00,-3.348388671875000000e-01,4.379882812500000000e-01,3.914184570312500000e-01,7.366943359375000000e-01
-3.000000000000000000e+00,-2.000000000000000000e+00,-1.000000000000000000e+01,-1.500000000000000000e+01,-5.000000000000000000e+00,-5.000000000000000000e+00,-2.000000000000000000e+00,-2.000000000000000000e+00,-3.348388671875000000e-01,4.379882812500000000e-01,3.914184570312500000e-01,7.366943359375000000e-01
-3.000000000000000000e+00,-2.000000000000000000e+00,-3.000000000000000000e+00,1.200000000000000000e+01,4.000000000000000000e+00,1.000000000000000000e+00,-1.000000000000000000e+00,0.000000000000000000e+00,-3.348388671875000000e-01,4.379882812500000000e-01,3.914184570312500000e-01,7.366943359375000000e-01
0.000000000000000000e+00,-1.000000000000000000e+00,-7.000000000000000000e+00,-2.600000000000000000e+01,-4.000000000000000000e+00,0.000000000000000000e+00,1.000000000000000000e+00,0.000000000000000000e+00,-3.348388671875000000e-01,4.379882812500000000e-01,3.914184570312500000e-01,7.366943359375000000e-01
-1.000000000000000000e+00,0.000000000000000000e+00,0.000000000000000000e+00,1.700000000000000000e+01,3.000000000000000000e+00,0.000000000000000000e+00,-1.000000000000000000e+00,-3.000000000000000000e+00,-3.348388671875000000e-01,4.379882812500000000e-01,3.914184570312500000e-01,7.366943359375000000e-01
0.000000000000000000e+00,0.000000000000000000e+00,9.000000000000000000e+00,4.100000000000000000e+01,8.000000000000000000e+00,1.000000000000000000e+00,2.000000000000000000e+00,-1.000000000000000000e+00,-3.348388671875000000e-01,4.379882812500000000e-01,3.914184570312500000e-01,7.366943359375000000e-01
0.000000000000000000e+00,-2.000000000000000000e+00,-8.000000000000000000e+00,-6.500000000000000000e+01,-1.200000000000000000e+01,-2.000000000000000000e+00,0.000000000000000000e+00,0.000000000000000000e+00,-3.348388671875000000e-01,4.379882812500000000e-01,3.914184570312500000e-01,7.366943359375000000e-01
0.000000000000000000e+00,-1.000000000000000000e+00,1.800000000000000000e+01,1.700000000000000000e+01,0.000000000000000000e+00,1.000000000000000000e+00,-1.000000000000000000e+00,-3.000000000000000000e+00,-3.348388671875000000e-01,4.379882812500000000e-01,3.914184570312500000e-01,7.366943359375000000e-01
-1.000000000000000000e+00,-1.000000000000000000e+00,-1.000000000000000000e+01,2.800000000000000000e+01,4.000000000000000000e+00,-1.000000000000000000e+00,0.000000000000000000e+00,0.000000000000000000e+00,-3.348388671875000000e-01,4.379882812500000000e-01,3.914184570312500000e-01,7.366943359375000000e-01
-1.000000000000000000e+00,1.000000000000000000e+00,2.200000000000000000e+01,-2.300000000000000000e+01,-9.000000000000000000e+00,-1.000000000000000000e+00,-3.000000000000000000e+00,-2.000000000000000000e+00,-3.348388671875000000e-01,4.379882812500000000e-01,3.914184570312500000e-01,7.366943359375000000e-01
0.000000000000000000e+00,-1.000000000000000000e+00,-1.000000000000000000e+01,4.000000000000000000e+00,1.000000000000000000e+00,-3.000000000000000000e+00,-1.000000000000000000e+00,-1.000000000000000000e+00,-3.348388671875000000e-01,4.379882812500000000e-01,3.914184570312500000e-01,7.366943359375000000e-01
0.000000000000000000e+00,2.000000000000000000e+00,2.000000000000000000e+00,6.000000000000000000e+00,-3.000000000000000000e+00,-4.000000000000000000e+00,-1.000000000000000000e+00,0.000000000000000000e+00,-3.348388671875000000e-01,4.379882812500000000e-01,3.914184570312500000e-01,7.366943359375000000e-01
0.000000000000000000e+00,0.000000000000000000e+00,3.000000000000000000e+00,4.400000000000000000e+01,1.300000000000000000e+01,8.000000000000000000e+00,4.000000000000000000e+00,-1.000000000000000000e+00,-3.345947265625000000e-01,4.380493164062500000e-01,3.912963867187500000e-01,7.368774414062500000e-01
0.000000000000000000e+00,2.000000000000000000e+00,1.000000000000000000e+00,-4.200000000000000000e+01,-5.000000000000000000e+00,-3.000000000000000000e+00,-1.000000000000000000e+00,1.000000000000000000e+00,-3.345947265625000000e-01,4.380493164062500000e-01,3.912963867187500000e-01,7.368774414062500000e-01
-4.000000000000000000e+00,-6.000000000000000000e+00,-2.700000000000000000e+01,-7.000000000000000000e+00,-1.000000000000000000e+00,-1.000000000000000000e+00,-1.000000000000000000e+00,-1.000000000000000000e+00,-3.345947265625000000e-01,4.380493164062500000e-01,3.912963867187500000e-01,7.368774414062500000e-01
0.000000000000000000e+00,-1.000000000000000000e+00,-3.000000000000000000e+00,-4.000000000000000000e+00,-8.000000000000000000e+00,-4.000000000000000000e+00,-4.000000000000000000e+00,-2.000000000000000000e+00,-3.345947265625000000e-01,4.380493164062500000e-01,3.912963867187500000e-01,7.368774414062500000e-01
-2.000000000000000000e+00,-2.000000000000000000e+00,-5.000000000000000000e+00,0.000000000000000000e+00,-2.000000000000000000e+00,-1.000000000000000000e+00,-1.000000000000000000e+00,-2.000000000000000000e+00,-3.345947265625000000e-01,4.375610351562500000e-01,3.912353515625000000e-01,7.371826171875000000e-01
-3.000000000000000000e+00,-4.000000000000000000e+00,-1.700000000000000000e+01,-1.100000000000000000e+01,-2.000000000000000000e+00,0.000000000000000000e+00,0.000000000000000000e+00,-1.000000000000000000e+00,-3.345947265625000000e-01,4.375610351562500000e-01,3.912353515625000000e-01,7.371826171875000000e-01
1.000000000000000000e+00,4.000000000000000000e+00,2.000000000000000000e+01,2.700000000000000000e+01,-2.000000000000000000e+00,-2.000000000000000000e+00,0.000000000000000000e+00,-2.000000000000000000e+00,-3.345947265625000000e-01,4.375610351562500000e-01,3.912353515625000000e-01,7.371826171875000000e-01
-1.000000000000000000e+00,-2.000000000000000000e+00,-8.000000000000000000e+00,-1.700000000000000000e+01,7.000000000000000000e+00,4.000000000000000000e+00,1.000000000000000000e+00,-1.000000000000000000e+00,-3.345947265625000000e-01,4.375610351562500000e-01,3.912353515625000000e-01,7.371826171875000000e-01
-1.000000000000000000e+00,-3.000000000000000000e+00,-1.000000000000000000e+01,-2.500000000000000000e+01,-9.000000000000000000e+00,-6.000000000000000000e+00,-5.000000000000000000e+00,-3.000000000000000000e+00,-3.346557617187500000e-01,4.370117187500000000e-01,3.912963867187500000e-01,7.374267578125000000e-01
-1.000000000000000000e+00,2.000000000000000000e+00,5.000000000000000000e+00,8.000000000000000000e+00,3.000000000000000000e+00,3.000000000000000000e+00,2.000000000000000000e+00,0.000000000000000000e+00,-3.346557617187500000e-01,4.370117187500000000e-01,3.912963867187500000e-01,7.374267578125000000e-01
-2.000000000000000000e+00,1.000000000000000000e+00,6.000000000000000000e+00,1.000000000000000000e+01,0.000000000000000000e+00,-4.000000000000000000e+00,-1.000000000000000000e+00,-1.000000000000000000e+00,-3.346557617187500000e-01,4.370117187500000000e-01,3.912963867187500000e-01,7.374267578125000000e-01
-4.000000000000000000e+00,-5.000000000000000000e+00,-1.800000000000000000e+01,4.000000000000000000e+00,0.000000000000000000e+00,-1.000000000000000000e+00,-4.000000000000000000e+00,-1.000000000000000000e+00,-3.346557617187500000e-01,4.370117187500000000e-01,3.912963867187500000e-01,7.374267578125000000e-01
0.000000000000000000e+00,4.000000000000000000e+00,1.300000000000000000e+01,9.000000000000000000e+00,1.000000000000000000e+00,2.000000000000000000e+00,1.000000000000000000e+00,1.000000000000000000e+00,-3.346557617187500000e-01,4.369506835937500000e-01,3.912963867187500000e-01,7.374877929687500000e-01
-2.000000000000000000e+00,-4.000000000000000000e+00,-2.400000000000000000e+01,-9.000000000000000000e+00,-7.000000000000000000e+00,-3.000000000000000000e+00,-4.000000000000000000e+00,-1.000000000000000000e+00,-3.346557617187500000e-01,4.369506835937500000e-01,3.912963867187500000e-01,7.374877929687500000e-01
0.000000000000000000e+00,2.000000000000000000e+00,7.000000000000000000e+00,-1.600000000000000000e+01,0.000000000000000000e+00,2.000000000000000000e+00,1.000000000000000000e+00,0.000000000000000000e+00,-3.346557617187500000e-01,4.369506835937500000e-01,3.912963867187500000e-01,7.374877929687500000e-01
1.000000000000000000e+00,1.000000000000000000e+00,6.000000000000000000e+00,9.000000000000000000e+00,3.000000000000000000e+00,0.000000000000000000e+00,1.000000000000000000e+00,0.000000000000000000e+00,-3.346557617187500000e-01,4.369506835937500000e-01,3.912963867187500000e-01,7.374877929687500000e-01
-3.000000000000000000e+00,-1.000000000000000000e+00,1.000000000000000000e+00,-4.000000000000000000e+00,-2.000000000000000000e+00,-2.000000000000000000e+00,-2.000000000000000000e+00,-1.000000000000000000e+00,-3.346557617187500000e-01,4.369506835937500000e-01,3.912353515625000000e-01,7.374877929687500000e-01
-1.000000000000000000e+00,-3.000000000000000000e+00,2.000000000000000000e+01,1.100000000000000000e+01,-2.000000000000000000e+00,-2.000000000000000000e+00,-3.000000000000000000e+00,-1.000000000000000000e+00,-3.346557617187500000e-01,4.369506835937500000e-01,3.912353515625000000e-01,7.374877929687500000e-01
-2.000000000000000000e+00,-2.000000000000000000e+00,-6.000000000000000000e+00,-1.000000000000000000e+00,0.000000000000000000e+00,0.000000000000000000e+00,-2.000000000000000000e+00,-1.000000000000000000e+00,-3.346557617187500000e-01,4.369506835937500000e-01,3.912353515625000000e-01,7.374877929687500000e-01
-2.000000000000000000e+00,1.000000000000000000e+00,1.000000000000000000e+00,2.900000000000000000e+01,2.000000000000000000e+00,0.000000000000000000e+00,0.000000000000000000e+00,-1.000000000000000000e+00,-3.346557617187500000e-01,4.369506835937500000e-01,3.912353515625000000e-01,7.374877929687500000e-01
0.000000000000000000e+00,-3.000000000000000000e+00,-2.500000000000000000e+01,-5.200000000000000000e+01,-8.000000000000000000e+00,-4.000000000000000000e+00,-2.000000000000000000e+00,-1.000000000000000000e+00,-3.344726562500000000e-01,4.371337890625000000e-01,3.910522460937500000e-01,7.376098632812500000e-01
-1.000000000000000000e+00,-2.000000000000000000e+00,-3.000000000000000000e+00,1.700000000000000000e+01,4.000000000000000000e+00,1.000000000000000000e+00,1.000000000000000000e+00,0.000000000000000000e+00,-3.344726562500000000e-01,4.371337890625000000e-01,3.910522460937500000e-01,7.376098632812500000e-01
0.000000000000000000e+00,-2.000000000000000000e+00,1.200000000000000000e+01,-1.100000000000000000e+01,-4.000000000000000000e+00,-6.000000000000000000e+00,0.000000000000000000e+00,-1.000000000000000000e+00,-3.344726562500000000e-01,4.371337890625000000e-01,3.910522460937500000e-01,7.376098632812500000e-01
1.000000000000000000e+00,-1.000000000000000000e+00,-1.000000000000000000e+00,2.000000000000000000e+00,0.000000000000000000e+00,0.000000000000000000e+00,-3.000000000000000000e+00,-1.000000000000000000e+00,-3.344726562500000000e-01,4.371337890625000000e-01,3.910522460937500000e-01,7.376098632812500000e-01
-2.000000000000000000e+00,-1.000000000000000000e+00,7.000000000000000000e+00,1.200000000000000000e+01,0.000000000000000000e+00,0.000000000000000000e+00,-2.000000000000000000e+00,-2.000000000000000000e+00,-3.341674804687500000e-01,4.372558593750000000e-01,3.909301757812500000e-01,7.377319335937500000e-01
0.000000000000000000e+00,-4.000000000000000000e+00,8.000000000000000000e+00,-2.100000000000000000e+01,-5.000000000000000000e+00,-3.000000000000000000e+00,-3.000000000000000000e+00,-1.000000000000000000e+00,-3.341674804687500000e-01,4.372558593750000000e-01,3.909301757812500000e-01,7.377319335937500000e-01
-2.000000000000000000e+00,1.000000000000000000e+00,-5.000000000000000000e+00,1.000000000000000000e+00,0.000000000000000000e+00,1.000000000000000000e+00,1.000000000000000000e+00,-2.000000000000000000e+00,-3.341674804687500000e-01,4.372558593750000000e-01,3.909301757812500000e-01,7.377319335937500000e-01
-3.000000000000000000e+00,1.000000000000000000e+00,-3.000000000000000000e+00,5.000000000000000000e+00,3.000000000000000000e+00,6.000000000000000000e+00,5.000000000000000000e+00,2.000000000000000000e+00,-3.341674804687500000e-01,4.372558593750000000e-01,3.909301757812500000e-01,7.377319335937500000e-01
-1.000000000000000000e+00,-1.000000000000000000e+00,7.000000000000000000e+00,2.000000000000000000e+00,-3.000000000000000000e+00,-4.000000000000000000e+00,-2.000000000000000000e+00,0.000000000000000000e+00,-3.340454101562500000e-01,4.373168945312500000e-01,3.910522460937500000e-01,7.376708984375000000e-01
-1.000000000000000000e+00,-3.000000000000000000e+00,-6.000000000000000000e+00,1.400000000000000000e+01,1.000000000000000000e+00,0.000000000000000000e+00,1.000000000000000000e+00,-2.000000000000000000e+00,-3.340454101562500000e-01,4.373168945312500000e-01,3.910522460937500000e-01,7.376708984375000000e-01
0.000000000000000000e+00,0.000000000000000000e+00,3.000000000000000000e+00,-8.000000000000000000e+00,2.000000000000000000e+00,0.000000000000000000e+00,-3.000000000000000000e+00,-1.000000000000000000e+00,-3.340454101562500000e-01,4.373168945312500000e-01,3.910522460937500000e-01,7.376708984375000000e-01
-4.000000000000000000e+00,-4.000000000000000000e+00,-1.800000000000000000e+01,-1.600000000000000000e+01,-7.000000000000000000e+00,-6.000000000000000000e+00,-5.000000000000000000e+00,-3.000000000000000000e+00,-3.340454101562500000e-01,4.373168945312500000e-01,3.910522460937500000e-01,7.376708984375000000e-01
-1.000000000000000000e+00,-2.000000000000000000e+00,-5.000000000000000000e+00,-3.000000000000000000e+00,-1.000000000000000000e+00,1.000000000000000000e+00,2.000000000000000000e+00,0.000000000000000000e+00,-3.341064453125000000e-01,4.374389648437500000e-01,3.912963867187500000e-01,7.374267578125000000e-01
-2.000000000000000000e+00,0.000000000000000000e+00,1.000000000000000000e+00,3.000000000000000000e+00,0.000000000000000000e+00,-2.000000000000000000e+00,1.000000000000000000e+00,0.000000000000000000e+00,-3.341064453125000000e-01,4.374389648437500000e-01,3.912963867187500000e-01,7.374267578125000000e-01
-2.000000000000000000e+00,-6.000000000000000000e+00,-2.000000000000000000e+01,-1.500000000000000000e+01,-2.000000000000000000e+00,-3.000000000000000000e+00,-1.000000000000000000e+00,-4.000000000000000000e+00,-3.341064453125000000e-01,4.374389648437500000e-01,3.912963867187500000e-01,7.374267578125000000e-01
0.000000000000000000e+00,1.000000000000000000e+00,8.000000000000000000e+00,4.000000000000000000e+00,-2.000000000000000000e+00,-2.000000000000000000e+00,0.000000000000000000e+00,0.000000000000000000e+00,-3.341064453125000000e-01,4.374389648437500000e-01,3.912963867187500000e-01,7.374267578125000000e-01
0.000000000000000000e+00,-1.000000000000000000e+00,-2.100000000000000000e+01,2.000000000000000000e+00,2.000000000000000000e+00,0.000000000000000000e+00,-2.000000000000000000e+00,-2.000000000000000000e+00,-3.342895507812500000e-01,4.374389648437500000e-01,3.916015625000000000e-01,7.371826171875000000e-01
-1.000000000000000000e+00,-1.000000000000000000e+00,-1.000000000000000000e+00,-1.000000000000000000e+01,-5.000000000000000000e+00,-5.000000000000000000e+00,-2.000000000000000000e+00,-3.000000000000000000e+00,-3.342895507812500000e-01,4.374389648437500000e-01,3.916015625000000000e-01,7.371826171875000000e-01
0.000000000000000000e+00,-1.000000000000000000e+00,-1.000000000000000000e+01,1.800000000000000000e+01,3.000000000000000000e+00,1.000000000000000000e+00,1.000000000000000000e+00,1.000000000000000000e+00,-3.342895507812500000e-01,4.374389648437500000e-01,3.916015625000000000e-01,7.371826171875000000e-01
0.000000000000000000e+00,0.000000000000000000e+00,1.900000000000000000e+01,-1.500000000000000000e+01,0.000000000000000000e+00,3.000000000000000000e+00,3.000000000000000000e+00,2.000000000000000000e+00,-3.342895507812500000e-01,4.374389648437500000e-01,3.916015625000000000e-01,7.371826171875000000e-01
0.000000000000000000e+00,-3.000000000000000000e+00,-7.000000000000000000e+00,-3.000000000000000000e+00,-5.000000000000000000e+00,-3.000000000000000000e+00,-3.000000000000000000e+00,1.000000000000000000e+00,-3.345336914062500000e-01,4.373779296875000000e-01,3.916625976562500000e-01,7.371215820312500000e-01
-2.000000000000000000e+00,-1.000000000000000000e+00,-2.000000000000000000e+00,-2.000000000000000000e+00,4.000000000000000000e+00,1.000000000000000000e+00,0.000000000000000000e+00,-1.000000000000000000e+00,-3.345336914062500000e-01,4.373779296875000000e-01,3.916625976562500000e-01,7.371215820312500000e-01
0.000000000000000000e+00,0.000000000000000000e+00,5.000000000000000000e+00,1.100000000000000000e+01,0.000000000000000000e+00,-2.000000000000000000e+00,-4.000000000000000000e+00,1.000000000000000000e+00,-3.345336914062500000e-01,4.373779296875000000e-01,3.916625976562500000e-01,7.371215820312500000e-01
1.000000000000000000e+00,-1.000000000000000000e+00,-4.000000000000000000e+00,0.000000000000000000e+00,-5.000000000000000000e+00,-4.000000000000000000e+00,-1.000000000000000000e+00,-3.000000000000000000e+00,-3.345336914062500000e-01,4.373779296875000000e-01,3.916625976562500000e-01,7.371215820312500000e-01
-1.000000000000000000e+00,0.000000000000000000e+00,-3.000000000000000000e+00,1.600000000000000000e+01,0.000000000000000000e+00,0.000000000000000000e+00,-3.000000000000000000e+00,-2.000000000000000000e+00,-3.345336914062500000e-01,4.373779296875000000e-01,3.917236328125000000e-01,7.370605468750000000e-01
-1.000000000000000000e+00,1.000000000000000000e+00,-2.000000000000000000e+00,-3.300000000000000000e+01,1.000000000000000000e+00,4.000000000000000000e+00,1.000000000000000000e+00,0.000000000000000000e+00,-3.345336914062500000e-01,4.373779296875000000e-01,3.917236328125000000e-01,7.370605468750000000e-01
-1.000000000000000000e+00,0.000000000000000000e+00,4.000000000000000000e+00,-2.000000000000000000e+00,-2.000000000000000000e+00,-3.000000000000000000e+00,-2.000000000000000000e+00,-1.000000000000000000e+00,-3.345336914062500000e-01,4.373779296875000000e-01,3.917236328125000000e-01,7.370605468750000000e-01
0.000000000000000000e+00,3.000000000000000000e+00,2.800000000000000000e+01,1.200000000000000000e+01,-1.000000000000000000e+00,-3.000000000000000000e+00,-3.000000000000000000e+00,-1.000000000000000000e+00,-3.345336914062500000e-01,4.373779296875000000e-01,3.917236328125000000e-01,7.370605468750000000e-01
-4.000000000000000000e+00,-1.200000000000000000e+01,-7.700000000000000000e+01,-4.300000000000000000e+01,-9.000000000000000000e+00,-2.000000000000000000e+00,0.000000000000000000e+00,-2.000000000000000000e+00,-3.344726562500000000e-01,4.373168945312500000e-01,3.917236328125000000e-01,7.371215820312500000e-01
-3.000000000000000000e+00,-2.000000000000000000e+00,9.000000000000000000e+00,1.000000000000000000e+00,-2.000000000000000000e+00,0.000000000000000000e+00,1.000000000000000000e+00,0.000000000000000000e+00,-3.344726562500000000e-01,4.373168945312500000e-01,3.917236328125000000e-01,7.371215820312500000e-01
-2.000000000000000000e+00,-2.000000000000000000e+00,-5.000000000000000000e+00,1.600000000000000000e+01,2.000000000000000000e+00,1.000000000000000000e+00,0.000000000000000000e+00,0.000000000000000000e+00,-3.344726562500000000e-01,4.373168945312500000e-01,3.917236328125000000e-01,7.371215820312500000e-01
-4.000000000000000000e+00,-4.000000000000000000e+00,2.000000000000000000e+00,-1.400000000000000000e+01,-2.000000000000000000e+00,-2.000000000000000000e+00,-5.000000000000000000e+00,-3.000000000000000000e+00,-3.344726562500000000e-01,4.373168945312500000e-01,3.917236328125000000e-01,7.371215820312500000e-01
-1.000000000000000000e+00,1.000000000000000000e+00,2.200000000000000000e+01,7.000000000000000000e+00,0.000000000000000000e+00,-1.000000000000000000e+00,0.000000000000000000e+00,0.000000000000000000e+00,-3.342895507812500000e-01,4.373779296875000000e-01,3.919677734375000000e-01,7.369995117187500000e-01
1.000000000000000000e+00,-1.000000000000000000e+00,-7.000000000000000000e+00,0.000000000000000000e+00,-1.000000000000000000e+00,0.000000000000000000e+00,-2.000000000000000000e+00,-1.000000000000000000e+00,-3.342895507812500000e-01,4.373779296875000000e-01,3.919677734375000000e-01,7.369995117187500000e-01
-2.000000000000000000e+00,-4.000000000000000000e+00,-1.100000000000000000e+01,3.900000000000000000e+01,2.000000000000000000e+00,-3.000000000000000000e+00,-3.000000000000000000e+00,-2.000000000000000000e+00,-3.342895507812500000e-01,4.373779296875000000e-01,3.919677734375000000e-01,7.369995117187500000e-01
-2.000000000000000000e+00,-1.000000000000000000e+00,-9.000000000000000000e+00,-3.700000000000000000e+01,-4.000000000000000000e+00,0.000000000000000000e+00,0.000000000000000000e+00,-1.000000000000000000e+00,-3.342895507812500000e-01,4.373779296875000000e-01,3.919677734375000000e-01,7.369995117187500000e-01
0.000000000000000000e+00,2.000000000000000000e+00,2.500000000000000000e+01,-8.000000000000000000e+00,-3.000000000000000000e+00,-2.000000000000000000e+00,0.000000000000000000e+00,0.000000000000000000e+00,-3.344726562500000000e-01,4.373168945312500000e-01,3.922119140625000000e-01,7.368774414062500000e-01
-1.000000000000000000e+00,-2.000000000000000000e+00,-3.200000000000000000e+01,-3.000000000000000000e+00,-2.000000000000000000e+00,-1.000000000000000000e+00,-3.000000000000000000e+00,-2.000000000000000000e+00,-3.344726562500000000e-01,4.373168945312500000e-01,3.922119140625000000e-01,7.368774414062500000e-01
0.000000000000000000e+00,-2.000000000000000000e+00,3.000000000000000000e+01,-4.000000000000000000e+00,-1.000000000000000000e+00,-1.000000000000000000e+00,1.000000000000000000e+00,-2.000000000000000000e+00,-3.344726562500000000e-01,4.373168945312500000e-01,3.922119140625000000e-01,7.368774414062500000e-01
-1.000000000000000000e+00,-3.000000000000000000e+00,-1.500000000000000000e+01,1.600000000000000000e+01,3.000000000000000000e+00,-1.000000000000000000e+00,0.000000000000000000e+00,-1.000000000000000000e+00,-3.344726562500000000e-01,4.373168945312500000e-01,3.922119140625000000e-01,7.368774414062500000e-01
-1.000000000000000000e+00,0.000000000000000000e+00,9.000000000000000000e+00,-4.000000000000000000e+00,1.000000000000000000e+00,-2.000000000000000000e+00,-1.000000000000000000e+00,0.000000000000000000e+00,-3.346557617187500000e-01,4.373168945312500000e-01,3.922729492187500000e-01,7.367553710937500000e-01
0.000000000000000000e+00,2.000000000000000000e+00,6.000000000000000000e+00,1.600000000000000000e+01,-2.000000000000000000e+00,-1.000000000000000000e+00,4.000000000000000000e+00,1.000000000000000000e+00,-3.346557617187500000e-01,4.373168945312500000e-01,3.922729492187500000e-01,7.367553710937500000e-01
-1.000000000000000000e+00,1.000000000000000000e+00,0.000000000000000000e+00,-1.200000000000000000e+01,-1.000000000000000000e+00,-1.000000000000000000e+00,-2.000000000000000000e+00,1.000000000000000000e+00,-3.346557617187500000e-01,4.373168945312500000e-01,3.922729492187500000e-01,7.367553710937500000e-01
-1.000000000000000000e+00,-2.000000000000000000e+00,-3.000000000000000000e+00,5.000000000000000000e+00,1.000000000000000000e+00,1.000000000000000000e+00,-1.000000000000000000e+00,-2.000000000000000000e+00,-3.346557617187500000e-01,4.373168945312500000e-01,3.922729492187500000e-01,7.367553710937500000e-01
0.000000000000000000e+00,0.000000000000000000e+00,-9.000000000000000000e+00,-8.000000000000000000e+00,-2.000000000000000000e+00,-2.000000000000000000e+00,-2.000000000000000000e+00,-2.000000000000000000e+00,-3.343505859375000000e-01,4.373168945312500000e-01,3.922729492187500000e-01,7.369384765625000000e-01
0.000000000000000000e+00,1.000000000000000000e+00,1.100000000000000000e+01,1.800000000000000000e+01,-1.000000000000000000e+00,-6.000000000000000000e+00,-4.000000000000000000e+00,-1.000000000000000000e+00,-3.343505859375000000e-01,4.373168945312500000e-01,3.922729492187500000e-01,7.369384765625000000e-01
-1.000000000000000000e+00,-2.000000000000000000e+00,-1.100000000000000000e+01,-1.200000000000000000e+01,-5.000000000000000000e+00,0.000000000000000000e+00,-2.000000000000000000e+00,-2.000000000000000000e+00,-3.343505859375000000e-01,4.373168945312500000e-01,3.922729492187500000e-01,7.369384765625000000e-01
0.000000000000000000e+00,2.000000000000000000e+00,1.600000000000000000e+01,5.000000000000000000e+00,-1.000000000000000000e+00,-1.000000000000000000e+00,0.000000000000000000e+00,1.000000000000000000e+00,-3.343505859375000000e-01,4.373168945312500000e-01,3.922729492187500000e-01,7.369384765625000000e-01
0.000000000000000000e+00,-3.000000000000000000e+00,-4.200000000000000000e+01,3.000000000000000000e+00,-2.000000000000000000e+00,-1.000000000000000000e+00,1.000000000000000000e+00,0.000000000000000000e+00,-3.341674804687500000e-01,4.375000000000000000e-01,3.923339843750000000e-01,7.368164062500000000e-01
-3.000000000000000000e+00,-7.000000000000000000e+00,-3.000000000000000000e+00,1.500000000000000000e+01,-1.000000000000000000e+00,-1.000000000000000000e+00,-2.000000000000000000e+00,-1.000000000000000000e+00,-3.341674804687500000e-01,4.375000000000000000e-01,3.923339843750000000e-01,7.368164062500000000e-01
0.000000000000000000e+00,0.000000000000000000e+00,1.000000000000000000e+00,-3.900000000000000000e+01,-5.000000000000000000e+00,1.000000000000000000e+00,0.000000000000000000e+00,-1.000000000000000000e+00,-3.341674804687500000e-01,4.375000000000000000e-01,3.923339843750000000e-01,7.368164062500000000e-01
1.000000000000000000e+00,-1.000000000000000000e+00,-8.000000000000000000e+00,-1.400000000000000000e+01,-5.000000000000000000e+00,-2.000000000000000000e+00,-4.000000000000000000e+00,-2.000000000000000000e+00,-3.341674804687500000e-01,4.375000000000000000e-01,3.923339843750000000e-01,7.368164062500000000e-01
0.000000000000000000e+00,2.000000000000000000e+00,2.300000000000000000e+01,1.300000000000000000e+01,6.000000000000000000e+00,1.000000000000000000e+00,0.000000000000000000e+00,1.000000000000000000e+00,-3.342285156250000000e-01,4.375000000000000000e-01,3.923339843750000000e-01,7.368164062500000000e-01
-2.000000000000000000e+00,-1.000000000000000000e+00,9.000000000000000000e+00,9.000000000000000000e+00,-3.000000000000000000e+00,-1.000000000000000000e+00,-1.000000000000000000e+00,0.000000000000000000e+00,-3.342285156250000000e-01,4.375000000000000000e-01,3.923339843750000000e-01,7.368164062500000000e-01
0.000000000000000000e+00,-1.000000000000000000e+00,-4.000000000000000000e+00,-1.800000000000000000e+01,-2.000000000000000000e+00,1.000000000000000000e+00,2.000000000000000000e+00,-1.000000000000000000e+00,-3.342285156250000000e-01,4.375000000000000000e-01,3.923339843750000000e-01,7.368164062500000000e-01
-3.000000000000000000e+00,-4.000000000000000000e+00,-8.000000000000000000e+00,1.400000000000000000e+01,3.000000000000000000e+00,-1.000000000000000000e+00,-1.000000000000000000e+00,-1.000000000000000000e+00,-3.342285156250000000e-01,4.375000000000000000e-01,3.923339843750000000e-01,7.368164062500000000e-01
1.000000000000000000e+00,1.000000000000000000e+00,2.900000000000000000e+01,1.100000000000000000e+01,0.000000000000000000e+00,1.000000000000000000e+00,0.000000000000000000e+00,-1.000000000000000000e+00,-3.345947265625000000e-01,4.374389648437500000e-01,3.925781250000000000e-01,7.365722656250000000e-01
-4.000000000000000000e+00,-5.000000000000000000e+00,-2.100000000000000000e+01,-2.100000000000000000e+01,0.000000000000000000e+00,2.000000000000000000e+00,-3.000000000000000000e+00,-3.000000000000000000e+00,-3.345947265625000000e-01,4.374389648437500000e-01,3.925781250000000000e-01,7.365722656250000000e-01
1.000000000000000000e+00,-1.000000000000000000e+00,4.000000000000000000e+00,1.000000000000000000e+01,-2.000000000000000000e+00,-2.000000000000000000e+00,0.000000000000000000e+00,-2.000000000000000000e+00,-3.345947265625000000e-01,4.374389648437500000e-01,3.925781250000000000e-01,7.365722656250000000e-01
0.000000000000000000e+00,2.000000000000000000e+00,-7.000000000000000000e+00,1.800000000000000000e+01,2.000000000000000000e+00,-1.000000000000000000e+00,-1.000000000000000000e+00,-1.000000000000000000e+00,-3.345947265625000000e-01,4.374389648437500000e-01,3.925781250000000000e-01,7.365722656250000000e-01
-3.000000000000000000e+00,-2.000000000000000000e+00,-5.000000000000000000e+00,-2.000000000000000000e+01,-6.000000000000000000e+00,-2.000000000000000000e+00,-3.000000000000000000e+00,-1.000000000000000000e+00,-3.345947265625000000e-01,4.373779296875000000e-01,3.925170898437500000e-01,7.365722656250000000e-01
-2.000000000000000000e+00,3.000000000000000000e+00,1.800000000000000000e+01,-1.100000000000000000e+01,-2.000000000000000000e+00,1.000000000000000000e+00,-1.000000000000000000e+00,-2.000000000000000000e+00,-3.345947265625000000e-01,4.373779296875000000e-01,3.925170898437500000e-01,7.365722656250000000e-01
-2.000000000000000000e+00,-4.000000000000000000e+00,-1.700000000000000000e+01,-1.000000000000000000e+00,2.000000000000000000e+00,-1.000000000000000000e+00,2.000000000000000000e+00,1.000000000000000000e+00,-3.345947265625000000e-01,4.373779296875000000e-01,3.925170898437500000e-01,7.365722656250000000e-01
0.000000000000000000e+00,-1.000000000000000000e+00,8.000000000000000000e+00,7.000000000000000000e+00,-1.000000000000000000e+00,-2.000000000000000000e+00,-2.000000000000000000e+00,0.000000000000000000e+00,-3.345947265625000000e-01,4.373779296875000000e-01,3.925170898437500000e-01,7.365722656250000000e-01
-2.000000000000000000e+00,-1.000000000000000000e+00,-7.000000000000000000e+00,6.000000000000000000e+00,1.000000000000000000e+00,-1.000000000000000000e+00,-1.000000000000000000e+00,-1.000000000000000000e+00,-3.344116210937500000e-01,4.373168945312500000e-01,3.923339843750000000e-01,7.368164062500000000e-01
0.000000000000000000e+00,-1.000000000000000000e+00,6.000000000000000000e+00,3.300000000000000000e+01,3.000000000000000000e+00,-2.000000000000000000e+00,-1.000000000000000000e+00,-3.000000000000000000e+00,-3.344116210937500000e-01,4.373168945312500000e-01,3.923339843750000000e-01,7.368164062500000000e-01
0.000000000000000000e+00,3.000000000000000000e+00,4.000000000000000000e+00,-3.500000000000000000e+01,-6.000000000000000000e+00,-1.000000000000000000e+00,-2.000000000000000000e+00,0.000000000000000000e+00,-3.344116210937500000e-01,4.373168945312500000e-01,3.923339843750000000e-01,7.368164062500000000e-01
0.000000000000000000e+00,-1.000000000000000000e+00,-1.100000000000000000e+01,1.000000000000000000e+00,3.000000000000000000e+00,-1.000000000000000000e+00,2.000000000000000000e+00,-1.000000000000000000e+00,-3.344116210937500000e-01,4.373168945312500000e-01,3.923339843750000000e-01,7.368164062500000000e-01
-2.000000000000000000e+00,-1.000000000000000000e+00,1.600000000000000000e+01,0.000000000000000000e+00,-4.000000000000000000e+00,-2.000000000000000000e+00,-2.000000000000000000e+00,-1.000000000000000000e+00,-3.344116210937500000e-01,4.373779296875000000e-01,3.923339843750000000e-01,7.368164062500000000e-01
2.000000000000000000e+00,3.000000000000000000e+00,-2.000000000000000000e+00,1.400000000000000000e+01,4.000000000000000000e+00,0.000000000000000000e+00,1.000000000000000000e+00,0.000000000000000000e+00,-3.344116210937500000e-01,4.373779296875000000e-01,3.923339843750000000e-01,7.368164062500000000e-01
-2.000000000000000000e+00,-5.000000000000000000e+00,-4.000000000000000000e+00,2.200000000000000000e+01,-2.000000000000000000e+00,-1.000000000000000000e+00,-2.000000000000000000e+00,-2.000000000000000000e+00,-3.344116210937500000e-01,4.373779296875000000e-01,3.923339843750000000e-01,7.368164062500000000e-01
0.000000000000000000e+00,-1.000000000000000000e+00,-1.000000000000000000e+00,-2.200000000000000000e+01,-6.000000000000000000e+00,-2.000000000000000000e+00,-2.000000000000000000e+00,0.000000000000000000e+00,-3.344116210937500000e-01,4.373779296875000000e-01,3.923339843750000000e-01,7.368164062500000000e-01
-1.000000000000000000e+00,-1.000000000000000000e+00,4.000000000000000000e+00,-1.600000000000000000e+01,-2.000000000000000000e+00,1.000000000000000000e+00,-1.000000000000000000e+00,-2.000000000000000000e+00,-3.346557617187500000e-01,4.371337890625000000e-01,3.924560546875000000e-01,7.367553710937500000e-01
-1.000000000000000000e+00,-2.000000000000000000e+00,-1.000000000000000000e+01,-1.500000000000000000e+01,-4.000000000000000000e+00,-1.000000000000000000e+00,0.000000000000000000e+00,0.000000000000000000e+00,-3.346557617187500000e-01,4.371337890625000000e-01,3.924560546875000000e-01,7.367553710937500000e-01
1.000000000000000000e+00,2.000000000000000000e+00,-7.000000000000000000e+00,1.100000000000000000e+01,1.000000000000000000e+00,-5.000000000000000000e+00,-2.000000000000000000e+00,-1.000000000000000000e+00,-3.346557617187500000e-01,4.371337890625000000e-01,3.924560546875000000e-01,7.367553710937500000e-01
-2.000000000000000000e+00,-4.000000000000000000e+00,-6.000000000000000000e+00,1.300000000000000000e+01,4.000000000000000000e+00,1.000000000000000000e+00,1.000000000000000000e+00,0.000000000000000000e+00,-3.346557617187500000e-01,4.371337890625000000e-01,3.924560546875000000e-01,7.367553710937500000e-01
-1.000000000000000000e+00,1.000000000000000000e+00,1.500000000000000000e+01,1.600000000000000000e+01,0.000000000000000000e+00,0.000000000000000000e+00,-1.000000000000000000e+00,-1.000000000000000000e+00,-3.348999023437500000e-01,4.368896484375000000e-01,3.924560546875000000e-01,7.368164062500000000e-01
-4.000000000000000000e+00,-3.000000000000000000e+00,-4.000000000000000000e+00,-4.400000000000000000e+01,-5.000000000000000000e+00,0.000000000000000000e+00,-2.000000000000000000e+00,-1.000000000000000000e+00,-3.348999023437500000e-01,4.368896484375000000e-01,3.924560546875000000e-01,7.368164062500000000e-01
-2.000000000000000000e+00,2.000000000000000000e+00,6.000000000000000000e+00,4.000000000000000000e+00,-5.000000000000000000e+00,-2.000000000000000000e+00,1.000000000000000000e+00,1.000000000000000000e+00,-3.348999023437500000e-01,4.368896484375000000e-01,3.924560546875000000e-01,7.368164062500000000e-01
-2.000000000000000000e+00,-2.000000000000000000e+00,0.000000000000000000e+00,-1.000000000000000000e+00,1.000000000000000000e+00,0.000000000000000000e+00,0.000000000000000000e+00,-2.000000000000000000e+00,-3.348999023437500000e-01,4.368896484375000000e-01,3.924560546875000000e-01,7.368164062500000000e-01
0.000000000000000000e+00,-3.000000000000000000e+00,5.000000000000000000e+00,7.000000000000000000e+00,4.000000000000000000e+00,2.000000000000000000e+00,1.000000000000000000e+00,0.000000000000000000e+00,-3.350830078125000000e-01,4.366455078125000000e-01,3.922729492187500000e-01,7.369384765625000000e-01
-1.000000000000000000e+00,0.000000000000000000e+00,-5.000000000000000000e+00,-1.600000000000000000e+01,-5.000000000000000000e+00,-6.000000000000000000e+00,-6.000000000000000000e+00,-2.000000000000000000e+00,-3.350830078125000000e-01,4.366455078125000000e-01,3.922729492187500000e-01,7.369384765625000000e-01
-3.000000000000000000e+00,-4.000000000000000000e+00,2.000000000000000000e+00,-2.000000000000000000e+00,-1.000000000000000000e+00,-1.000000000000000000e+00,-3.000000000000000000e+00,0.000000000000000000e+00,-3.350830078125000000e-01,4.366455078125000000e-01,3.922729492187500000e-01,7.369384765625000000e-01
1.000000000000000000e+00,2.000000000000000000e+00,7.000000000000000000e+00,1.600000000000000000e+01,-3.000000000000000000e+00,-2.000000000000000000e+00,0.000000000000000000e+00,0.000000000000000000e+00,-3.350830078125000000e-01,4.366455078125000000e-01,3.922729492187500000e-01,7.369384765625000000e-01
-2.000000000000000000e+00,0.000000000000000000e+00,-4.000000000000000000e+00,-2.600000000000000000e+01,0.000000000000000000e+00,2.000000000000000000e+00,0.000000000000000000e+00,-2.000000000000000000e+00,-3.353271484375000000e-01,4.365844726562500000e-01,3.921508789062500000e-01,7.369995117187500000e-01
-1.000000000000000000e+00,-1.000000000000000000e+00,-8.000000000000000000e+00,5.000000000000000000e+00,3.000000000000000000e+00,-1.000000000000000000e+00,0.000000000000000000e+00,0.000000000000000000e+00,-3.353271484375000000e-01,4.365844726562500000e-01,3.921508789062500000e-01,7.369995117187500000e-01
-1.000000000000000000e+00,-1.000000000000000000e+00,-3.000000000000000000e+00,1.100000000000000000e+01,6.000000000000000000e+00,3.000000000000000000e+00,-1.000000000000000000e+00,-1.000000000000000000e+00,-3.353271484375000000e-01,4.365844726562500000e-01,3.921508789062500000e-01,7.369995117187500000e-01
-2.000000000000000000e+00,-2.000000000000000000e+00,1.700000000000000000e+01,-1.000000000000000000e+01,-7.000000000000000000e+00,-3.000000000000000000e+00,-3.000000000000000000e+00,-1.000000000000000000e+00,-3.353271484375000000e-01,4.365844726562500000e-01,3.921508789062500000e-01,7.369995117187500000e-01
0.000000000000000000e+00,-2.000000000000000000e+00,-1.500000000000000000e+01,9.000000000000000000e+00,-3.000000000000000000e+00,-5.000000000000000000e+00,-3.000000000000000000e+00,1.000000000000000000e+00,-3.355712890625000000e-01,4.365844726562500000e-01,3.918457031250000000e-01,7.369995117187500000e-01
0.000000000000000000e+00,2.000000000000000000e+00,-7.000000000000000000e+00,-3.200000000000000000e+01,-7.000000000000000000e+00,-4.000000000000000000e+00,0.000000000000000000e+00,0.000000000000000000e+00,-3.355712890625000000e-01,4.365844726562500000e-01,3.918457031250000000e-01,7.369995117187500000e-01
0.000000000000000000e+00,1.000000000000000000e+00,5.000000000000000000e+00,2.000000000000000000e+00,1.000000000000000000e+00,0.000000000000000000e+00,1.000000000000000000e+00,0.000000000000000000e+00,-3.355712890625000000e-01,4.365844726562500000e-01,3.918457031250000000e-01,7.369995117187500000e-01
0.000000000000000000e+00,-1.000000000000000000e+00,2.300000000000000000e+01,1.600000000000000000e+01,2.000000000000000000e+00,1.000000000000000000e+00,0.000000000000000000e+00,-1.000000000000000000e+00,-3.355712890625000000e-01,4.365844726562500000e-01,3.918457031250000000e-01,7.369995117187500000e-01
-2.000000000000000000e+00,-2.000000000000000000e+00,4.000000000000000000e+00,2.000000000000000000e+00,-2.000000000000000000e+00,-2.000000000000000000e+00,-1.000000000000000000e+00,-2.000000000000000000e+00,-3.357543945312500000e-01,4.365844726562500000e-01,3.916625976562500000e-01,7.370605468750000000e-01
-1.000000000000000000e+00,1.000000000000000000e+00,4.000000000000000000e+00,6.000000000000000000e+00,2.000000000000000000e+00,2.000000000000000000e+00,0.000000000000000000e+00,0.000000000000000000e+00,-3.357543945312500000e-01,4.365844726562500000e-01,3.916625976562500000e-01,7.370605468750000000e-01
-2.000000000000000000e+00,-2.000000000000000000e+00,-8.000000000000000000e+00,3.000000000000000000e+00,-1.000000000000000000e+00,-2.000000000000000000e+00,0.000000000000000000e+00,-1.000000000000000000e+00,-3.357543945312500000e-01,4.365844726562500000e-01,3.916625976562500000e-01,7.370605468750000000e-01
-1.000000000000000000e+00,-1.000000000000000000e+00,-9.000000000000000000e+00,-1.500000000000000000e+01,-7.000000000000000000e+00,-3.000000000000000000e+00,-3.000000000000000000e+00,0.000000000000000000e+00,-3.357543945312500000e-01,4.365844726562500000e-01,3.916625976562500000e-01,7.370605468750000000e-01
-1.000000000000000000e+00,-2.000000000000000000e+00,-6.000000000000000000e+00,2.000000000000000000e+00,-2.000000000000000000e+00,-1.000000000000000000e+00,-1.000000000000000000e+00,-1.000000000000000000e+00,-3.360595703125000000e-01,4.365844726562500000e-01,3.914184570312500000e-01,7.369995117187500000e-01
-1.000000000000000000e+00,-1.000000000000000000e+00,-6.000000000000000000e+00,1.200000000000000000e+01,2.000000000000000000e+00,1.000000000000000000e+00,0.000000000000000000e+00,-1.000000000000000000e+00,-3.360595703125000000e-01,4.365844726562500000e-01,3.914184570312500000e-01,7.369995117187500000e-01
1.000000000000000000e+00,-4.000000000000000000e+00,-3.000000000000000000e+00,-7.000000000000000000e+00,-4.000000000000000000e+00,-2.000000000000000000e+00,-2.000000000000000000e+00,-1.000000000000000000e+00,-3.360595703125000000e-01,4.365844726562500000e-01,3.914184570312500000e-01,7.369995117187500000e-01
-3.000000000000000000e+00,-2.000000000000000000e+00,-1.300000000000000000e+01,5.000000000000000000e+00,6.000000000000000000e+00,4.000000000000000000e+00,2.000000000000000000e+00,-2.000000000000000000e+00,-3.360595703125000000e-01,4.365844726562500000e-01,3.914184570312500000e-01,7.369995117187500000e-01
-1.000000000000000000e+00,0.000000000000000000e+00,5.000000000000000000e+00,1.600000000000000000e+01,2.000000000000000000e+00,-2.000000000000000000e+00,0.000000000000000000e+00,-1.000000000000000000e+00,-3.364257812500000000e-01,4.367675781250000000e-01,3.912353515625000000e-01,7.368164062500000000e-01
-1.000000000000000000e+00,-1.000000000000000000e+00,3.000000000000000000e+00,-1.200000000000000000e+01,-1.000000000000000000e+00,0.000000000000000000e+00,1.000000000000000000e+00,0.000000000000000000e+00,-3.364257812500000000e-01,4.367675781250000000e-01,3.912353515625000000e-01,7.368164062500000000e-01
-1.000000000000000000e+00,-2.000000000000000000e+00,4.000000000000000000e+00,-7.000000000000000000e+00,-3.000000000000000000e+00,-3.000000000000000000e+00,-1.000000000000000000e+00,-1.000000000000000000e+00,-3.364257812500000000e-01,4.367675781250000000e-01,3.912353515625000000e-01,7.368164062500000000e-01
-1.000000000000000000e+00,-4.000000000000000000e+00,-2.100000000000000000e+01,-2.900000000000000000e+01,-5.000000000000000000e+00,-2.000000000000000000e+00,-1.000000000000000000e+00,0.000000000000000000e+00,-3.364257812500000000e-01,4.367675781250000000e-01,3.912353515625000000e-01,7.368164062500000000e-01
-1.000000000000000000e+00,1.000000000000000000e+00,6.000000000000000000e+00,1.500000000000000000e+01,2.000000000000000000e+00,0.000000000000000000e+00,1.000000000000000000e+00,-2.000000000000000000e+00,-3.367919921875000000e-01,4.367675781250000000e-01,3.911743164062500000e-01,7.366333007812500000e-01
-3.000000000000000000e+00,-5.000000000000000000e+00,-6.000000000000000000e+00,9.000000000000000000e+00,2.000000000000000000e+00,1.000000000000000000e+00,-1.000000000000000000e+00,-3.000000000000000000e+00,-3.367919921875000000e-01,4.367675781250000000e-01,3.911743164062500000e-01,7.366333007812500000e-01
-4.000000000000000000e+00,1.000000000000000000e+00,5.000000000000000000e+00,1.800000000000000000e+01,2.000000000000000000e+00,1.000000000000000000e+00,-1.000000000000000000e+00,0.000000000000000000e+00,-3.367919921875000000e-01,4.367675781250000000e-01,3.911743164062500000e-01,7.366333007812500000e-01
0.000000000000000000e+00,1.000000000000000000e+00,-1.000000000000000000e+00,-4.000000000000000000e+00,0.000000000000000000e+00,-1.000000000000000000e+00,-1.000000000000000000e+00,0.000000000000000000e+00,-3.367919921875000000e-01,4.367675781250000000e-01,3.911743164062500000e-01,7.366333007812500000e-01
-3.000000000000000000e+00,-2.000000000000000000e+00,-7.000000000000000000e+00,-3.300000000000000000e+01,-6.000000000000000000e+00,-2.000000000000000000e+00,-3.000000000000000000e+00,-1.000000000000000000e+00,-3.373413085937500000e-01,4.370117187500000000e-01,3.910522460937500000e-01,7.363281250000000000e-01
1.000000000000000000e+00,0.000000000000000000e+00,1.000000000000000000e+01,5.000000000000000000e+00,3.000000000000000000e+00,2.000000000000000000e+00,0.000000000000000000e+00,-1.000000000000000000e+00,-3.373413085937500000e-01,4.370117187500000000e-01,3.910522460937500000e-01,7.363281250000000000e-01
-1.000000000000000000e+00,-4.000000000000000000e+00,4.000000000000000000e+00,0.000000000000000000e+00,-1.000000000000000000e+00,1.000000000000000000e+00,-1.000000000000000000e+00,-2.000000000000000000e+00,-3.373413085937500000e-01,4.370117187500000000e-01,3.910522460937500000e-01,7.363281250000000000e-01
0.000000000000000000e+00,2.000000000000000000e+00,-4.000000000000000000e+00,5.000000000000000000e+00,-1.000000000000000000e+00,-1.000000000000000000e+00,-2.000000000000000000e+00,-1.000000000000000000e+00,-3.373413085937500000e-01,4.370117187500000000e-01,3.910522460937500000e-01,7.363281250000000000e-01
1.000000000000000000e+00,0.000000000000000000e+00,5.000000000000000000e+00,2.700000000000000000e+01,3.000000000000000000e+00,1.000000000000000000e+00,-1.000000000000000000e+00,-1.000000000000000000e+00,-3.374633789062500000e-01,4.375610351562500000e-01,3.909912109375000000e-01,7.360229492187500000e-01
0.000000000000000000e+00,1.000000000000000000e+00,4.000000000000000000e+00,-2.400000000000000000e+01,-4.000000000000000000e+00,-3.000000000000000000e+00,0.000000000000000000e+00,-1.000000000000000000e+00,-3.374633789062500000e-01,4.375610351562500000e-01,3.909912109375000000e-01,7.360229492187500000e-01
1.000000000000000000e+00,1.000000000000000000e+00,9.000000000000000000e+00,-4.000000000000000000e+00,2.000000000000000000e+00,1.000000000000000000e+00,1.000000000000000000e+00,-1.000000000000000000e+00,-3.374633789062500000e-01,4.375610351562500000e-01,3.909912109375000000e-01,7.360229492187500000e-01
-2.000000000000000000e+00,-2.000000000000000000e+00,-6.000000000000000000e+00,-1.000000000000000000e+00,-1.000000000000000000e+00,1.000000000000000000e+00,0.000000000000000000e+00,-1.000000000000000000e+00,-3.374633789062500000e-01,4.375610351562500000e-01,3.909912109375000000e-01,7.360229492187500000e-01
1.000000000000000000e+00,-2.000000000000000000e+00,-1.000000000000000000e+00,-1.000000000000000000e+00,-4.000000000000000000e+00,-3.000000000000000000e+00,-2.000000000000000000e+00,-4.000000000000000000e+00,-3.371582031250000000e-01,4.382934570312500000e-01,3.911132812500000000e-01,7.355957031250000000e-01
1.000000000000000000e+00,1.000000000000000000e+00,-4.000000000000000000e+00,5.000000000000000000e+00,-2.000000000000000000e+00,-1.000000000000000000e+00,0.000000000000000000e+00,1.000000000000000000e+00,-3.371582031250000000e-01,4.382934570312500000e-01,3.911132812500000000e-01,7.355957031250000000e-01
-2.000000000000000000e+00,0.000000000000000000e+00,-6.000000000000000000e+00,7.000000000000000000e+00,-1.000000000000000000e+00,-1.000000000000000000e+00,-1.000000000000000000e+00,-3.000000000000000000e+00,-3.371582031250000000e-01,4.382934570312500000e-01,3.911132812500000000e-01,7.355957031250000000e-01
-3.000000000000000000e+00,-2.000000000000000000e+00,8.000000000000000000e+00,2.000000000000000000e+00,1.000000000000000000e+00,-1.000000000000000000e+00,0.000000000000000000e+00,-2.000000000000000000e+00,-3.371582031250000000e-01,4.382934570312500000e-01,3.911132812500000000e-01,7.355957031250000000e-01
-1.000000000000000000e+00,0.000000000000000000e+00,-9.000000000000000000e+00,2.000000000000000000e+00,2.000000000000000000e+00,0.000000000000000000e+00,-1.000000000000000000e+00,1.000000000000000000e+00,-3.370971679687500000e-01,4.387207031250000000e-01,3.914184570312500000e-01,7.352294921875000000e-01
0.000000000000000000e+00,2.000000000000000000e+00,1.100000000000000000e+01,-1.900000000000000000e+01,-7.000000000000000000e+00,-2.000000000000000000e+00,-3.000000000000000000e+00,-1.000000000000000000e+00,-3.370971679687500000e-01,4.387207031250000000e-01,3.914184570312500000e-01,7.352294921875000000e-01
3.000000000000000000e+00,1.000000000000000000e+00,3.000000000000000000e+00,-1.000000000000000000e+01,-3.000000000000000000e+00,-2.000000000000000000e+00,-2.000000000000000000e+00,-1.000000000000000000e+00,-3.370971679687500000e-01,4.387207031250000000e-01,3.914184570312500000e-01,7.352294921875000000e-01
-2.000000000000000000e+00,-3.000000000000000000e+00,-1.200000000000000000e+01,3.000000000000000000e+00,0.000000000000000000e+00,-2.000000000000000000e+00,-2.000000000000000000e+00,-2.000000000000000000e+00,-3.370971679687500000e-01,4.387207031250000000e-01,3.914184570312500000e-01,7.352294921875000000e-01
-3.000000000000000000e+00,-2.000000000000000000e+00,-2.000000000000000000e+00,-9.000000000000000000e+00,0.000000000000000000e+00,1.000000000000000000e+00,3.000000000000000000e+00,-1.000000000000000000e+00,-3.370971679687500000e-01,4.392700195312500000e-01,3.917236328125000000e-01,7.348022460937500000e-01
0.000000000000000000e+00,-2.000000000000000000e+00,-1.300000000000000000e+01,0.000000000000000000e+00,-1.000000000000000000e+00,-1.000000000000000000e+00,-1.000000000000000000e+00,1.000000000000000000e+00,-3.370971679687500000e-01,4.392700195312500000e-01,3.917236328125000000e-01,7.348022460937500000e-01
-4.000000000000000000e+00,-1.000000000000000000e+00,1.200000000000000000e+01,1.100000000000000000e+01,2.000000000000000000e+00,-1.000000000000000000e+00,-1.000000000000000000e+00,1.000000000000000000e+00,-3.370971679687500000e-01,4.392700195312500000e-01,3.917236328125000000e-01,7.348022460937500000e-01
0.000000000000000000e+00,0.000000000000000000e+00,1.000000000000000000e+00,-1.600000000000000000e+01,-1.000000000000000000e+00,0.000000000000000000e+00,0.000000000000000000e+00,1.000000000000000000e+00,-3.370971679687500000e-01,4.392700195312500000e-01,3.917236328125000000e-01,7.348022460937500000e-01
-1.000000000000000000e+00,0.000000000000000000e+00,1.800000000000000000e+01,1.500000000000000000e+01,0.000000000000000000e+00,-2.000000000000000000e+00,-2.000000000000000000e+00,0.000000000000000000e+00,-3.373413085937500000e-01,4.396972656250000000e-01,3.918457031250000000e-01,7.343139648437500000e-01
0.000000000000000000e+00,-2.000000000000000000e+00,-5.000000000000000000e+00,1.400000000000000000e+01,0.000000000000000000e+00,0.000000000000000000e+00,-1.000000000000000000e+00,-2.000000000000000000e+00,-3.373413085937500000e-01,4.396972656250000000e-01,3.918457031250000000e-01,7.343139648437500000e-01
0.000000000000000000e+00,1.000000000000000000e+00,0.000000000000000000e+00,-1.000000000000000000e+01,-1.000000000000000000e+00,0.000000000000000000e+00,0.000000000000000000e+00,-1.000000000000000000e+00,-3.373413085937500000e-01,4.396972656250000000e-01,3.918457031250000000e-01,7.343139648437500000e-01
-1.000000000000000000e+00,-4.000000000000000000e+00,-4.000000000000000000e+00,0.000000000000000000e+00,-7.000000000000000000e+00,-4.000000000000000000e+00,-2.000000000000000000e+00,0.000000000000000000e+00,-3.373413085937500000e-01,4.396972656250000000e-01,3.918457031250000000e-01,7.343139648437500000e-01
1.000000000000000000e+00,2.000000000000000000e+00,1.000000000000000000e+00,-1.100000000000000000e+01,-1.000000000000000000e+00,-2.000000000000000000e+00,-4.000000000000000000e+00,1.000000000000000000e+00,-3.373413085937500000e-01,4.397583007812500000e-01,3.918457031250000000e-01,7.343139648437500000e-01
-5.000000000000000000e+00,-4.000000000000000000e+00,0.000000000000000000e+00,1.500000000000000000e+01,1.100000000000000000e+01,6.000000000000000000e+00,3.000000000000000000e+00,-1.000000000000000000e+00,-3.373413085937500000e-01,4.397583007812500000e-01,3.918457031250000000e-01,7.343139648437500000e-01
0.000000000000000000e+00,-1.000000000000000000e+00,-9.000000000000000000e+00,-6.000000000000000000e+00,-3.000000000000000000e+00,-3.000000000000000000e+00,-2.000000000000000000e+00,-2.000000000000000000e+00,-3.373413085937500000e-01,4.397583007812500000e-01,3.918457031250000000e-01,7.343139648437500000e-01
-3.000000000000000000e+00,-1.000000000000000000e+00,3.000000000000000000e+00,-2.100000000000000000e+01,-1.000000000000000000e+00,-1.000000000000000000e+00,2.000000000000000000e+00,-3.000000000000000000e+00,-3.373413085937500000e-01,4.397583007812500000e-01,3.918457031250000000e-01,7.343139648437500000e-01
-1.000000000000000000e+00,-1.000000000000000000e+00,-9.000000000000000000e+00,-8.000000000000000000e+00,-7.000000000000000000e+00,-4.000000000000000000e+00,-3.000000000000000000e+00,-2.000000000000000000e+00,-3.372802734375000000e-01,4.398803710937500000e-01,3.916015625000000000e-01,7.343750000000000000e-01
0.000000000000000000e+00,-4.000000000000000000e+00,9.000000000000000000e+00,8.000000000000000000e+00,1.000000000000000000e+00,-1.000000000000000000e+00,-2.000000000000000000e+00,-2.000000000000000000e+00,-3.372802734375000000e-01,4.398803710937500000e-01,3.916015625000000000e-01,7.343750000000000000e-01
-1.000000000000000000e+00,0.000000000000000000e+00,-6.000000000000000000e+00,5.000000000000000000e+00,0.000000000000000000e+00,-1.000000000000000000e+00,-2.000000000000000000e+00,0.000000000000000000e+00,-3.372802734375000000e-01,4.398803710937500000e-01,3.916015625000000000e-01,7.343750000000000000e-01
-1.000000000000000000e+00,0.000000000000000000e+00,-1.600000000000000000e+01,2.000000000000000000e+01,-1.000000000000000000e+00,-2.000000000000000000e+00,-3.000000000000000000e+00,-1.000000000000000000e+00,-3.372802734375000000e-01,4.398803710937500000e-01,3.916015625000000000e-01,7.343750000000000000e-01
-3.000000000000000000e+00,-4.000000000000000000e+00,-3.000000000000000000e+00,-2.100000000000000000e+01,-6.000000000000000000e+00,-4.000000000000000000e+00,0.000000000000000000e+00,1.000000000000000000e+00,-3.372802734375000000e-01,4.397583007812500000e-01,3.912963867187500000e-01,7.346191406250000000e-01
-1.000000000000000000e+00,0.000000000000000000e+00,-8.000000000000000000e+00,2.000000000000000000e+00,-1.000000000000000000e+00,-1.000000000000000000e+00,0.000000000000000000e+00,-1.000000000000000000e+00,-3.372802734375000000e-01,4.397583007812500000e-01,3.912963867187500000e-01,7.346191406250000000e-01
0.000000000000000000e+00,-1.000000000000000000e+00,8.000000000000000000e+00,1.200000000000000000e+01,0.000000000000000000e+00,-1.000000000000000000e+00,-1.000000000000000000e+00,-1.000000000000000000e+00,-3.372802734375000000e-01,4.397583007812500000e-01,3.912963867187500000e-01,7.346191406250000000e-01
1.000000000000000000e+00,-1.000000000000000000e+00,-2.000000000000000000e+01,-1.500000000000000000e+01,-2.000000000000000000e+00,-3.000000000000000000e+00,-4.000000000000000000e+00,-1.000000000000000000e+00,-3.372802734375000000e-01,4.397583007812500000e-01,3.912963867187500000e-01,7.346191406250000000e-01
2.000000000000000000e+00,-1.000000000000000000e+00,-2.000000000000000000e+00,-1.000000000000000000e+01,-3.000000000000000000e+00,0.000000000000000000e+00,1.000000000000000000e+00,-1.000000000000000000e+00,-3.372802734375000000e-01,4.395141601562500000e-01,3.911132812500000000e-01,7.348632812500000000e-01
-1.000000000000000000e+00,-1.000000000000000000e+00,-4.000000000000000000e+00,5.000000000000000000e+00,0.000000000000000000e+00,-1.000000000000000000e+00,-3.000000000000000000e+00,-1.000000000000000000e+00,-3.372802734375000000e-01,4.395141601562500000e-01,3.911132812500000000e-01,7.348632812500000000e-01
-4.000000000000000000e+00,-2.000000000000000000e+00,2.000000000000000000e+00,1.400000000000000000e+01,-4.000000000000000000e+00,-1.000000000000000000e+00,-2.000000000000000000e+00,0.000000000000000000e+00,-3.372802734375000000e-01,4.395141601562500000e-01,3.911132812500000000e-01,7.348632812500000000e-01
-1.000000000000000000e+00,-3.000000000000000000e+00,-1.000000000000000000e+01,-2.800000000000000000e+01,-3.000000000000000000e+00,2.000000000000000000e+00,-1.000000000000000000e+00,-1.000000000000000000e+00,-3.372802734375000000e-01,4.395141601562500000e-01,3.911132812500000000e-01,7.348632812500000000e-01
0.000000000000000000e+00,1.000000000000000000e+00,6.000000000000000000e+00,-7.000000000000000000e+00,-3.000000000000000000e+00,-1.000000000000000000e+00,-1.000000000000000000e+00,-1.000000000000000000e+00,-3.375854492187500000e-01,4.391479492187500000e-01,3.911743164062500000e-01,7.349243164062500000e-01
-2.000000000000000000e+00,-1.000000000000000000e+00,-7.000000000000000000e+00,1.000000000000000000e+00,-1.000000000000000000e+00,-3.000000000000000000e+00,-1.000000000000000000e+00,-2.000000000000000000e+00,-3.375854492187500000e-01,4.391479492187500000e-01,3.911743164062500000e-01,7.349243164062500000e-01
0.000000000000000000e+00,-1.000000000000000000e+00,-5.000000000000000000e+00,-4.000000000000000000e+00,3.000000000000000000e+00,1.000000000000000000e+00,2.000000000000000000e+00,-1.000000000000000000e+00,-3.375854492187500000e-01,4.391479492187500000e-01,3.911743164062500000e-01,7.349243164062500000e-01
0.000000000000000000e+00,1.000000000000000000e+00,1.800000000000000000e+01,1.900000000000000000e+01,1.000000000000000000e+00,-3.000000000000000000e+00,0.000000000000000000e+00,0.000000000000000000e+00,-3.375854492187500000e-01,4.391479492187500000e-01,3.911743164062500000e-01,7.349243164062500000e-01
-1.000000000000000000e+00,-2.000000000000000000e+00,-1.300000000000000000e+01,7.000000000000000000e+00,1.000000000000000000e+00,0.000000000000000000e+00,0.000000000000000000e+00,-1.000000000000000000e+00,-3.381347656250000000e-01,4.387817382812500000e-01,3.911743164062500000e-01,7.348632812500000000e-01
1.000000000000000000e+00,1.000000000000000000e+00,-1.000000000000000000e+00,-6.000000000000000000e+00,-5.000000000000000000e+00,-3.000000000000000000e+00,-2.000000000000000000e+00,1.000000000000000000e+00,-3.381347656250000000e-01,4.387817382812500000e-01,3.911743164062500000e-01,7.348632812500000000e-01
-3.000000000000000000e+00,-3.000000000000000000e+00,-1.500000000000000000e+01,-4.000000000000000000e+00,0.000000000000000000e+00,0.000000000000000000e+00,1.000000000000000000e+00,-2.000000000000000000e+00,-3.381347656250000000e-01,4.387817382812500000e-01,3.911743164062500000e-01,7.348632812500000000e-01
0.000000000000000000e+00,1.000000000000000000e+00,1.200000000000000000e+01,1.000000000000000000e+00,2.000000000000000000e+00,0.000000000000000000e+00,0.000000000000000000e+00,-1.000000000000000000e+00,-3.381347656250000000e-01,4.387817382812500000e-01,3.911743164062500000e-01,7.348632812500000000e-01
-1.000000000000000000e+00,-2.000000000000000000e+00,-9.000000000000000000e+00,-1.100000000000000000e+01,-1.000000000000000000e+00,1.000000000000000000e+00,0.000000000000000000e+00,0.000000000000000000e+00,-3.382568359375000000e-01,4.383544921875000000e-01,3.911743164062500000e-01,7.351074218750000000e-01
-2.000000000000000000e+00,-2.000000000000000000e+00,1.000000000000000000e+00,4.000000000000000000e+00,-4.000000000000000000e+00,-3.000000000000000000e+00,-3.000000000000000000e+00,-1.000000000000000000e+00,-3.382568359375000000e-01,4.383544921875000000e-01,3.911743164062500000e-01,7.351074218750000000e-01
-2.000000000000000000e+00,-3.000000000000000000e+00,-1.000000000000000000e+01,5.000000000000000000e+00,0.000000000000000000e+00,-2.000000000000000000e+00,0.000000000000000000e+00,-1.000000000000000000e+00,-3.382568359375000000e-01,4.383544921875000000e-01,3.911743164062500000e-01,7.351074218750000000e-01
0.000000000000000000e+00,0.000000000000000000e+00,4.000000000000000000e+00,-1.700000000000000000e+01,-2.000000000000000000e+00,-1.000000000000000000e+00,0.000000000000000000e+00,0.000000000000000000e+00,-3.382568359375000000e-01,4.383544921875000000e-01,3.911743164062500000e-01,7.351074218750000000e-01
-2.000000000000000000e+00,-1.000000000000000000e+00,1.000000000000000000e+00,7.000000000000000000e+00,4.000000000000000000e+00,0.000000000000000000e+00,0.000000000000000000e+00,0.000000000000000000e+00,-3.383789062500000000e-01,4.379272460937500000e-01,3.914184570312500000e-01,7.351074218750000000e-01
0.000000000000000000e+00,1.000000000000000000e+00,4.000000000000000000e+00,8.000000000000000000e+00,1.000000000000000000e+00,-1.000000000000000000e+00,-1.000000000000000000e+00,-1.000000000000000000e+00,-3.383789062500000000e-01,4.379272460937500000e-01,3.914184570312500000e-01,7.351074218750000000e-01
-3.000000000000000000e+00,-4.000000000000000000e+00,-1.200000000000000000e+01,-3.200000000000000000e+01,-8.000000000000000000e+00,-2.000000000000000000e+00,-2.000000000000000000e+00,-2.000000000000000000e+00,-3.383789062500000000e-01,4.379272460937500000e-01,3.914184570312500000e-01,7.351074218750000000e-01
-1.000000000000000000e+00,-1.000000000000000000e+00,1.300000000000000000e+01,1.500000000000000000e+01,-2.000000000000000000e+00,-2.000000000000000000e+00,0.000000000000000000e+00,1.000000000000000000e+00,-3.383789062500000000e-01,4.379272460937500000e-01,3.914184570312500000e-01,7.351074218750000000e-01
-2.000000000000000000e+00,-1.000000000000000000e+00,-4.000000000000000000e+00,2.000000000000000000e+00,-1.000000000000000000e+00,-2.000000000000000000e+00,-2.000000000000000000e+00,-2.000000000000000000e+00,-3.389282226562500000e-01,4.374389648437500000e-01,3.918457031250000000e-01,7.349243164062500000e-01
0.000000000000000000e+00,-3.000000000000000000e+00,-2.000000000000000000e+00,-2.000000000000000000e+00,3.000000000000000000e+00,2.000000000000000000e+00,1.000000000000000000e+00,1.000000000000000000e+00,-3.389282226562500000e-01,4.374389648437500000e-01,3.918457031250000000e-01,7.349243164062500000e-01
0.000000000000000000e+00,2.000000000000000000e+00,1.100000000000000000e+01,1.700000000000000000e+01,4.000000000000000000e+00,1.000000000000000000e+00,-1.000000000000000000e+00,-1.000000000000000000e+00,-3.389282226562500000e-01,4.374389648437500000e-01,3.918457031250000000e-01,7.349243164062500000e-01
-1.000000000000000000e+00,-2.000000000000000000e+00,-9.000000000000000000e+00,-6.000000000000000000e+00,-7.000000000000000000e+00,-4.000000000000000000e+00,-3.000000000000000000e+00,-2.000000000000000000e+00,-3.389282226562500000e-01,4.374389648437500000e-01,3.918457031250000000e-01,7.349243164062500000e-01
1.000000000000000000e+00,0.000000000000000000e+00,1.000000000000000000e+00,-3.000000000000000000e+00,-1.000000000000000000e+00,-1.000000000000000000e+00,-2.000000000000000000e+00,0.000000000000000000e+00,-3.395385742187500000e-01,4.368286132812500000e-01,3.925781250000000000e-01,7.346191406250000000e-01
-2.000000000000000000e+00,-1.000000000000000000e+00,-3.000000000000000000e+00,1.100000000000000000e+01,1.000000000000000000e+00,-2.000000000000000000e+00,0.000000000000000000e+00,-1.000000000000000000e+00,-3.395385742187500000e-01,4.368286132812500000e-01,3.925781250000000000e-01,7.346191406250000000e-01
0.000000000000000000e+00,3.000000000000000000e+00,4.000000000000000000e+00,-2.000000000000000000e+01,-5.000000000000000000e+00,-2.000000000000000000e+00,-3.000000000000000000e+00,-2.000000000000000000e+00,-3.395385742187500000e-01,4.368286132812500000e-01,3.925781250000000000e-01,7.346191406250000000e-01
0.000000000000000000e+00,0.000000000000000000e+00,-3.000000000000000000e+00,2.000000000000000000e+00,1.000000000000000000e+00,0.000000000000000000e+00,-3.000000000000000000e+00,1.000000000000000000e+00,-3.395385742187500000e-01,4.368286132812500000e-01,3.925781250000000000e-01,7.346191406250000000e-01
-1.000000000000000000e+00,0.000000000000000000e+00,1.000000000000000000e+01,1.100000000000000000e+01,2.000000000000000000e+00,2.000000000000000000e+00,1.000000000000000000e+00,-1.000000000000000000e+00,-3.400878906250000000e-01,4.363403320312500000e-01,3.931884765625000000e-01,7.343750000000000000e-01
0.000000000000000000e+00,1.000000000000000000e+00,-9.000000000000000000e+00,2.000000000000000000e+00,-3.000000000000000000e+00,0.000000000000000000e+00,-3.000000000000000000e+00,-2.000000000000000000e+00,-3.400878906250000000e-01,4.363403320312500000e-01,3.931884765625000000e-01,7.343750000000000000e-01
1.000000000000000000e+00,-5.000000000000000000e+00,-5.000000000000000000e+00,-9.000000000000000000e+00,-1.000000000000000000e+00,-1.000000000000000000e+00,0.000000000000000000e+00,0.000000000000000000e+00,-3.400878906250000000e-01,4.363403320312500000e-01,3.931884765625000000e-01,7.343750000000000000e-01
-3.000000000000000000e+00,0.000000000000000000e+00,-5.000000000000000000e+00,4.000000000000000000e+00,-1.000000000000000000e+00,-2.000000000000000000e+00,0.000000000000000000e+00,-2.000000000000000000e+00,-3.400878906250000000e-01,4.363403320312500000e-01,3.931884765625000000e-01,7.343750000000000000e-01
-1.000000000000000000e+00,0.000000000000000000e+00,7.000000000000000000e+00,-1.000000000000000000e+00,-1.000000000000000000e+00,0.000000000000000000e+00,-2.000000000000000000e+00,-1.000000000000000000e+00,-3.404541015625000000e-01,4.363403320312500000e-01,3.933105468750000000e-01,7.340698242187500000e-01
-3.000000000000000000e+00,-1.000000000000000000e+00,1.200000000000000000e+01,2.200000000000000000e+01,3.000000000000000000e+00,0.000000000000000000e+00,-1.000000000000000000e+00,-1.000000000000000000e+00,-3.404541015625000000e-01,4.363403320312500000e-01,3.933105468750000000e-01,7.340698242187500000e-01
0.000000000000000000e+00,-4.000000000000000000e+00,-1.600000000000000000e+01,-3.600000000000000000e+01,-2.000000000000000000e+00,0.000000000000000000e+00,-1.000000000000000000e+00,1.000000000000000000e+00,-3.404541015625000000e-01,4.363403320312500000e-01,3.933105468750000000e-01,7.340698242187500000e-01
-1.000000000000000000e+00,-1.000000000000000000e+00,-2.000000000000000000e+00,1.100000000000000000e+01,0.000000000000000000e+00,0.000000000000000000e+00,1.000000000000000000e+00,0.000000000000000000e+00,-3.404541015625000000e-01,4.363403320312500000e-01,3.933105468750000000e-01,7.340698242187500000e-01
-1.000000000000000000e+00,1.000000000000000000e+00,6.000000000000000000e+00,-1.000000000000000000e+00,-2.000000000000000000e+00,-2.000000000000000000e+00,-1.000000000000000000e+00,-2.000000000000000000e+00,-3.402709960937500000e-01,4.370117187500000000e-01,3.928833007812500000e-01,7.340698242187500000e-01
1.000000000000000000e+00,2.000000000000000000e+00,5.000000000000000000e+00,0.000000000000000000e+00,0.000000000000000000e+00,-1.000000000000000000e+00,-1.000000000000000000e+00,-1.000000000000000000e+00,-3.402709960937500000e-01,4.370117187500000000e-01,3.928833007812500000e-01,7.340698242187500000e-01
-2.000000000000000000e+00,-4.000000000000000000e+00,-1.800000000000000000e+01,-6.000000000000000000e+00,-4.000000000000000000e+00,-2.000000000000000000e+00,-3.000000000000000000e+00,1.000000000000000000e+00,-3.402709960937500000e-01,4.370117187500000000e-01,3.928833007812500000e-01,7.340698242187500000e-01
-3.000000000000000000e+00,-3.000000000000000000e+00,-7.000000000000000000e+00,-3.000000000000000000e+00,-2.000000000000000000e+00,-2.000000000000000000e+00,0.000000000000000000e+00,-3.000000000000000000e+00,-3.402709960937500000e-01,4.370117187500000000e-01,3.928833007812500000e-01,7.340698242187500000e-01
-1.000000000000000000e+00,1.000000000000000000e+00,0.000000000000000000e+00,1.000000000000000000e+00,2.000000000000000000e+00,2.000000000000000000e+00,2.000000000000000000e+00,-1.000000000000000000e+00,-3.396606445312500000e-01,4.375000000000000000e-01,3.927612304687500000e-01,7.340698242187500000e-01
-3.000000000000000000e+00,-5.000000000000000000e+00,4.000000000000000000e+00,-8.000000000000000000e+00,-5.000000000000000000e+00,-4.000000000000000000e+00,-1.000000000000000000e+00,-3.000000000000000000e+00,-3.396606445312500000e-01,4.375000000000000000e-01,3.927612304687500000e-01,7.340698242187500000e-01
-2.000000000000000000e+00,-1.000000000000000000e+00,-1.500000000000000000e+01,-3.000000000000000000e+00,-1.000000000000000000e+00,-1.000000000000000000e+00,0.000000000000000000e+00,-2.000000000000000000e+00,-3.396606445312500000e-01,4.375000000000000000e-01,3.927612304687500000e-01,7.340698242187500000e-01
1.000000000000000000e+00,3.000000000000000000e+00,1.200000000000000000e+01,-4.000000000000000000e+00,2.000000000000000000e+00,2.000000000000000000e+00,0.000000000000000000e+00,2.000000000000000000e+00,-3.396606445312500000e-01,4.375000000000000000e-01,3.927612304687500000e-01,7.340698242187500000e-01
-3.000000000000000000e+00,-6.000000000000000000e+00,-6.000000000000000000e+00,3.000000000000000000e+00,-8.000000000000000000e+00,-5.000000000000000000e+00,-4.000000000000000000e+00,-2.000000000000000000e+00,-3.395385742187500000e-01,4.375000000000000000e-01,3.931884765625000000e-01,7.339477539062500000e-01
1.000000000000000000e+00,2.000000000000000000e+00,-1.000000000000000000e+00,-3.100000000000000000e+01,-2.000000000000000000e+00,-2.000000000000000000e+00,0.000000000000000000e+00,0.000000000000000000e+00,-3.395385742187500000e-01,4.375000000000000000e-01,3.931884765625000000e-01,7.339477539062500000e-01
-2.000000000000000000e+00,-2.000000000000000000e+00,7.000000000000000000e+00,2.500000000000000000e+01,5.000000000000000000e+00,0.000000000000000000e+00,-1.000000000000000000e+00,-2.000000000000000000e+00,-3.395385742187500000e-01,4.375000000000000000e-01,3.931884765625000000e-01,7.339477539062500000e-01
-1.000000000000000000e+00,0.000000000000000000e+00,2.000000000000000000e+00,-1.000000000000000000e+00,-4.000000000000000000e+00,-1.000000000000000000e+00,0.000000000000000000e+00,-1.000000000000000000e+00,-3.395385742187500000e-01,4.375000000000000000e-01,3.931884765625000000e-01,7.339477539062500000e-01
-1.000000000000000000e+00,1.000000000000000000e+00,-2.000000000000000000e+00,0.000000000000000000e+00,8.000000000000000000e+00,2.000000000000000000e+00,0.000000000000000000e+00,1.000000000000000000e+00,-3.399658203125000000e-01,4.370117187500000000e-01,3.935546875000000000e-01,7.338256835937500000e-01
0.000000000000000000e+00,-3.000000000000000000e+00,-3.000000000000000000e+00,-1.000000000000000000e+00,-7.000000000000000000e+00,-1.000000000000000000e+00,0.000000000000000000e+00,0.000000000000000000e+00,-3.399658203125000000e-01,4.370117187500000000e-01,3.935546875000000000e-01,7.338256835937500000e-01
1.000000000000000000e+00,-1.000000000000000000e+00,6.000000000000000000e+00,-2.000000000000000000e+00,0.000000000000000000e+00,2.000000000000000000e+00,1.000000000000000000e+00,-1.000000000000000000e+00,-3.399658203125000000e-01,4.370117187500000000e-01,3.935546875000000000e-01,7.338256835937500000e-01
0.000000000000000000e+00,-3.000000000000000000e+00,3.000000000000000000e+00,2.900000000000000000e+01,2.000000000000000000e+00,-1.000000000000000000e+00,-3.000000000000000000e+00,-3.000000000000000000e+00,-3.399658203125000000e-01,4.370117187500000000e-01,3.935546875000000000e-01,7.338256835937500000e-01
0.000000000000000000e+00,0.000000000000000000e+00,2.000000000000000000e+00,-4.400000000000000000e+01,-4.000000000000000000e+00,-3.000000000000000000e+00,-1.000000000000000000e+00,0.000000000000000000e+00,-3.400268554687500000e-01,4.369506835937500000e-01,3.934936523437500000e-01,7.338867187500000000e-01
-2.000000000000000000e+00,-1.000000000000000000e+00,-1.800000000000000000e+01,3.000000000000000000e+00,3.000000000000000000e+00,2.000000000000000000e+00,0.000000000000000000e+00,-1.000000000000000000e+00,-3.400268554687500000e-01,4.369506835937500000e-01,3.934936523437500000e-01,7.338867187500000000e-01
0.000000000000000000e+00,0.000000000000000000e+00,5.000000000000000000e+00,-5.000000000000000000e+00,-4.000000000000000000e+00,-1.000000000000000000e+00,-2.000000000000000000e+00,-1.000000000000000000e+00,-3.400268554687500000e-01,4.369506835937500000e-01,3.934936523437500000e-01,7.338867187500000000e-01
0.000000000000000000e+00,-1.000000000000000000e+00,-9.000000000000000000e+00,2.300000000000000000e+01,5.000000000000000000e+00,2.000000000000000000e+00,1.000000000000000000e+00,-1.000000000000000000e+00,-3.400268554687500000e-01,4.369506835937500000e-01,3.934936523437500000e-01,7.338867187500000000e-01
2.000000000000000000e+00,4.000000000000000000e+00,1.400000000000000000e+01,-6.000000000000000000e+00,-3.000000000000000000e+00,-1.000000000000000000e+00,1.000000000000000000e+00,0.000000000000000000e+00,-3.395996093750000000e-01,4.373779296875000000e-01,3.930053710937500000e-01,7.340698242187500000e-01
-2.000000000000000000e+00,-5.000000000000000000e+00,-2.600000000000000000e+01,-2.100000000000000000e+01,-7.000000000000000000e+00,-1.000000000000000000e+00,-1.000000000000000000e+00,-2.000000000000000000e+00,-3.395996093750000000e-01,4.373779296875000000e-01,3.930053710937500000e-01,7.340698242187500000e-01
0.000000000000000000e+00,0.000000000000000000e+00,4.000000000000000000e+00,2.000000000000000000e+00,2.000000000000000000e+00,1.000000000000000000e+00,1.000000000000000000e+00,-1.000000000000000000e+00,-3.395996093750000000e-01,4.373779296875000000e-01,3.930053710937500000e-01,7.340698242187500000e-01
-2.000000000000000000e+00,-3.000000000000000000e+00,-8.000000000000000000e+00,9.000000000000000000e+00,3.000000000000000000e+00,2.000000000000000000e+00,0.000000000000000000e+00,-1.000000000000000000e+00,-3.395996093750000000e-01,4.373779296875000000e-01,3.930053710937500000e-01,7.340698242187500000e-01
0.000000000000000000e+00,-3.000000000000000000e+00,4.000000000000000000e+00,2.000000000000000000e+00,-3.000000000000000000e+00,1.000000000000000000e+00,-3.000000000000000000e+00,-1.000000000000000000e+00,-3.391723632812500000e-01,4.376220703125000000e-01,3.929443359375000000e-01,7.341308593750000000e-01
1.000000000000000000e+00,3.000000000000000000e+00,1.200000000000000000e+01,-4.000000000000000000e+00,-1.000000000000000000e+00,-1.000000000000000000e+00,-1.000000000000000000e+00,0.000000000000000000e+00,-3.391723632812500000e-01,4.376220703125000000e-01,3.929443359375000000e-01,7.341308593750000000e-01
-1.000000000000000000e+00,-1.000000000000000000e+00,-2.000000000000000000e+00,9.000000000000000000e+00,-1.000000000000000000e+00,0.000000000000000000e+00,1.000000000000000000e+00,-1.000000000000000000e+00,-3.391723632812500000e-01,4.373779296875000000e-01,3.932495117187500000e-01,7.341308593750000000e-01
0.000000000000000000e+00,-2.000000000000000000e+00,-1.400000000000000000e+01,-1.500000000000000000e+01,3.000000000000000000e+00,1.000000000000000000e+00,-1.000000000000000000e+00,-1.000000000000000000e+00,-3.391723632812500000e-01,4.373779296875000000e-01,3.932495117187500000e-01,7.341308593750000000e-01
-3.000000000000000000e+00,-6.000000000000000000e+00,2.000000000000000000e+00,2.800000000000000000e+01,-1.000000000000000000e+00,-5.000000000000000000e+00,-1.000000000000000000e+00,-2.000000000000000000e+00,-3.391723632812500000e-01,4.373779296875000000e-01,3.932495117187500000e-01,7.341308593750000000e-01
-1.000000000000000000e+00,3.000000000000000000e+00,5.000000000000000000e+00,-2.700000000000000000e+01,2.000000000000000000e+00,4.000000000000000000e+00,2.000000000000000000e+00,1.000000000000000000e+00,-3.391723632812500000e-01,4.373779296875000000e-01,3.932495117187500000e-01,7.341308593750000000e-01
-1.000000000000000000e+00,-1.000000000000000000e+00,-5.000000000000000000e+00,-2.000000000000000000e+00,-2.000000000000000000e+00,-1.000000000000000000e+00,-2.000000000000000000e+00,-2.000000000000000000e+00,-3.399047851562500000e-01,4.363403320312500000e-01,3.937377929687500000e-01,7.341308593750000000e-01
-1.000000000000000000e+00,-1.000000000000000000e+00,-9.000000000000000000e+00,-1.200000000000000000e+01,-4.000000000000000000e+00,-3.000000000000000000e+00,-3.000000000000000000e+00,-3.000000000000000000e+00,-3.399047851562500000e-01,4.363403320312500000e-01,3.937377929687500000e-01,7.341308593750000000e-01
1.000000000000000000e+00,1.000000000000000000e+00,-4.000000000000000000e+00,1.700000000000000000e+01,0.000000000000000000e+00,0.000000000000000000e+00,-1.000000000000000000e+00,-2.000000000000000000e+00,-3.399047851562500000e-01,4.363403320312500000e-01,3.937377929687500000e-01,7.341308593750000000e-01
0.000000000000000000e+00,-2.000000000000000000e+00,1.100000000000000000e+01,-1.400000000000000000e+01,2.000000000000000000e+00,-3.000000000000000000e+00,-3.000000000000000000e+00,-1.000000000000000000e+00,-3.399047851562500000e-01,4.363403320312500000e-01,3.937377929687500000e-01,7.341308593750000000e-01
