1.000000000000000000e+00,1.000000000000000000e+01,7.000000000000000000e+00,-2.000000000000000000e+00,-2.000000000000000000e+00,-1.000000000000000000e+00,-2.000000000000000000e+00,-1.000000000000000000e+00,-2.870483398437500000e-01,4.233398437500000000e-01,4.082031250000000000e-01,7.561035156250000000e-01
0.000000000000000000e+00,-6.000000000000000000e+00,9.000000000000000000e+00,5.000000000000000000e+00,1.000000000000000000e+00,1.000000000000000000e+00,1.000000000000000000e+00,0.000000000000000000e+00,-2.870483398437500000e-01,4.233398437500000000e-01,4.082031250000000000e-01,7.561035156250000000e-01
-2.000000000000000000e+00,-5.000000000000000000e+00,-1.400000000000000000e+01,-8.000000000000000000e+00,-5.000000000000000000e+00,-3.000000000000000000e+00,-1.000000000000000000e+00,0.000000000000000000e+00,-2.883911132812500000e-01,4.230346679687500000e-01,4.081420898437500000e-01,7.557983398437500000e-01
-1.000000000000000000e+00,7.000000000000000000e+00,6.000000000000000000e+00,-1.000000000000000000e+00,-7.000000000000000000e+00,-4.000000000000000000e+00,-2.000000000000000000e+00,-2.000000000000000000e+00,-2.883911132812500000e-01,4.230346679687500000e-01,4.081420898437500000e-01,7.557983398437500000e-01
-2.000000000000000000e+00,-2.000000000000000000e+00,-1.000000000000000000e+01,-1.000000000000000000e+00,4.000000000000000000e+00,1.000000000000000000e+00,-1.000000000000000000e+00,-3.000000000000000000e+00,-2.883911132812500000e-01,4.230346679687500000e-01,4.081420898437500000e-01,7.557983398437500000e-01
1.000000000000000000e+00,1.000000000000000000e+00,8.000000000000000000e+00,2.000000000000000000e+00,0.000000000000000000e+00,-3.000000000000000000e+00,-2.000000000000000000e+00,-1.000000000000000000e+00,-2.883911132812500000e-01,4.230346679687500000e-01,4.081420898437500000e-01,7.557983398437500000e-01
3.000000000000000000e+00,4.000000000000000000e+00,-6.000000000000000000e+00,-2.000000000000000000e+00,1.000000000000000000e+00,-1.000000000000000000e+00,-2.000000000000000000e+00,1.000000000000000000e+00,-2.888793945312500000e-01,4.227294921875000000e-01,4.079589843750000000e-01,7.558593750000000000e-01
-1.000000000000000000e+00,-1.000000000000000000e+00,0.000000000000000000e+00,-4.000000000000000000e+00,-4.000000000000000000e+00,0.000000000000000000e+00,0.000000000000000000e+00,-3.000000000000000000e+00,-2.888793945312500000e-01,4.227294921875000000e-01,4.079589843750000000e-01,7.558593750000000000e-01
-2.000000000000000000e+00,-1.600000000000000000e+01,4.000000000000000000e+00,6.000000000000000000e+00,-2.000000000000000000e+00,0.000000000000000000e+00,-3.000000000000000000e+00,-1.000000000000000000e+00,-2.888793945312500000e-01,4.227294921875000000e-01,4.079589843750000000e-01,7.558593750000000000e-01
-3.000000000000000000e+00,7.000000000000000000e+00,1.000000000000000000e+00,-4.000000000000000000e+00,-1.000000000000000000e+00,-2.000000000000000000e+00,-1.000000000000000000e+00,-2.000000000000000000e+00,-2.888793945312500000e-01,4.227294921875000000e-01,4.079589843750000000e-01,7.558593750000000000e-01
1.000000000000000000e+00,3.000000000000000000e+00,-7.000000000000000000e+00,1.000000000000000000e+00,-1.000000000000000000e+00,-2.000000000000000000e+00,0.000000000000000000e+00,-2.000000000000000000e+00,-2.891845703125000000e-01,4.226074218750000000e-01,4.074707031250000000e-01,7.561035156250000000e-01
-1.000000000000000000e+00,-5.000000000000000000e+00,-1.600000000000000000e+01,-8.000000000000000000e+00,2.000000000000000000e+00,0.000000000000000000e+00,0.000000000000000000e+00,1.000000000000000000e+00,-2.891845703125000000e-01,4.226074218750000000e-01,4.074707031250000000e-01,7.561035156250000000e-01
-7.000000000000000000e+00,-1.300000000000000000e+01,2.000000000000000000e+00,-5.000000000000000000e+00,-3.000000000000000000e+00,-4.000000000000000000e+00,-3.000000000000000000e+00,-4.000000000000000000e+00,-2.891845703125000000e-01,4.226074218750000000e-01,4.074707031250000000e-01,7.561035156250000000e-01
9.000000000000000000e+00,-7.000000000000000000e+00,-7.000000000000000000e+00,9.000000000000000000e+00,2.000000000000000000e+00,0.000000000000000000e+00,0.000000000000000000e+00,2.000000000000000000e+00,-2.891845703125000000e-01,4.226074218750000000e-01,4.074707031250000000e-01,7.561035156250000000e-01
-5.000000000000000000e+00,-1.600000000000000000e+01,2.000000000000000000e+00,-4.000000000000000000e+00,-3.000000000000000000e+00,-2.000000000000000000e+00,-2.000000000000000000e+00,-1.000000000000000000e+00,-2.890625000000000000e-01,4.223022460937500000e-01,4.068603515625000000e-01,7.565917968750000000e-01
-1.000000000000000000e+00,2.000000000000000000e+01,1.900000000000000000e+01,5.000000000000000000e+00,-1.000000000000000000e+00,0.000000000000000000e+00,-2.000000000000000000e+00,-1.000000000000000000e+00,-2.890625000000000000e-01,4.223022460937500000e-01,4.068603515625000000e-01,7.565917968750000000e-01
1.000000000000000000e+00,-3.000000000000000000e+00,-2.300000000000000000e+01,-7.000000000000000000e+00,2.000000000000000000e+00,2.000000000000000000e+00,2.000000000000000000e+00,-2.000000000000000000e+00,-2.890625000000000000e-01,4.223022460937500000e-01,4.068603515625000000e-01,7.565917968750000000e-01
-2.000000000000000000e+00,-4.000000000000000000e+00,0.000000000000000000e+00,-1.000000000000000000e+00,-2.000000000000000000e+00,-3.000000000000000000e+00,-2.000000000000000000e+00,-1.000000000000000000e+00,-2.890625000000000000e-01,4.223022460937500000e-01,4.068603515625000000e-01,7.565917968750000000e-01
1.000000000000000000e+00,6.000000000000000000e+00,2.000000000000000000e+00,-3.000000000000000000e+00,-3.000000000000000000e+00,-1.000000000000000000e+00,0.000000000000000000e+00,0.000000000000000000e+00,-2.885742187500000000e-01,4.219970703125000000e-01,4.066772460937500000e-01,7.570800781250000000e-01
-1.000000000000000000e+00,-1.400000000000000000e+01,-1.300000000000000000e+01,0.000000000000000000e+00,2.000000000000000000e+00,2.000000000000000000e+00,-1.000000000000000000e+00,-2.000000000000000000e+00,-2.885742187500000000e-01,4.219970703125000000e-01,4.066772460937500000e-01,7.570800781250000000e-01
4.000000000000000000e+00,1.500000000000000000e+01,6.000000000000000000e+00,-8.000000000000000000e+00,-6.000000000000000000e+00,-3.000000000000000000e+00,-1.000000000000000000e+00,2.000000000000000000e+00,-2.885742187500000000e-01,4.219970703125000000e-01,4.066772460937500000e-01,7.570800781250000000e-01
-2.000000000000000000e+00,-1.100000000000000000e+01,3.000000000000000000e+00,9.000000000000000000e+00,0.000000000000000000e+00,1.000000000000000000e+00,-1.000000000000000000e+00,-2.000000000000000000e+00,-2.885742187500000000e-01,4.219970703125000000e-01,4.066772460937500000e-01,7.570800781250000000e-01
-2.000000000000000000e+00,6.000000000000000000e+00,-1.000000000000000000e+00,3.000000000000000000e+00,4.000000000000000000e+00,1.000000000000000000e+00,1.000000000000000000e+00,-3.000000000000000000e+00,-2.879028320312500000e-01,4.215698242187500000e-01,4.069213867187500000e-01,7.574462890625000000e-01
-3.000000000000000000e+00,-2.000000000000000000e+00,7.000000000000000000e+00,6.000000000000000000e+00,4.000000000000000000e+00,3.000000000000000000e+00,1.000000000000000000e+00,-1.000000000000000000e+00,-2.879028320312500000e-01,4.215698242187500000e-01,4.069213867187500000e-01,7.574462890625000000e-01
1.000000000000000000e+00,7.000000000000000000e+00,3.000000000000000000e+00,-5.000000000000000000e+00,2.000000000000000000e+00,-3.000000000000000000e+00,0.000000000000000000e+00,2.000000000000000000e+00,-2.879028320312500000e-01,4.215698242187500000e-01,4.069213867187500000e-01,7.574462890625000000e-01
-3.000000000000000000e+00,-7.000000000000000000e+00,7.000000000000000000e+00,-7.000000000000000000e+00,-3.000000000000000000e+00,-2.000000000000000000e+00,0.000000000000000000e+00,-1.000000000000000000e+00,-2.879028320312500000e-01,4.215698242187500000e-01,4.069213867187500000e-01,7.574462890625000000e-01
-3.000000000000000000e+00,-6.000000000000000000e+00,-2.000000000000000000e+01,-6.000000000000000000e+00,-6.000000000000000000e+00,-3.000000000000000000e+00,-4.000000000000000000e+00,-2.000000000000000000e+00,-2.875366210937500000e-01,4.210205078125000000e-01,4.075317382812500000e-01,7.575683593750000000e-01
1.000000000000000000e+00,2.000000000000000000e+01,1.300000000000000000e+01,5.000000000000000000e+00,1.000000000000000000e+00,0.000000000000000000e+00,-1.000000000000000000e+00,-2.000000000000000000e+00,-2.875366210937500000e-01,4.210205078125000000e-01,4.075317382812500000e-01,7.575683593750000000e-01
1.000000000000000000e+00,-8.000000000000000000e+00,6.000000000000000000e+00,3.000000000000000000e+00,-1.000000000000000000e+00,-3.000000000000000000e+00,-2.000000000000000000e+00,-1.000000000000000000e+00,-2.875366210937500000e-01,4.210205078125000000e-01,4.075317382812500000e-01,7.575683593750000000e-01
-1.000000000000000000e+00,-9.000000000000000000e+00,-1.800000000000000000e+01,-3.000000000000000000e+00,-1.000000000000000000e+00,-1.000000000000000000e+00,2.000000000000000000e+00,-1.000000000000000000e+00,-2.875366210937500000e-01,4.210205078125000000e-01,4.075317382812500000e-01,7.575683593750000000e-01
0.000000000000000000e+00,2.000000000000000000e+00,9.000000000000000000e+00,-2.000000000000000000e+00,1.000000000000000000e+00,2.000000000000000000e+00,-1.000000000000000000e+00,0.000000000000000000e+00,-2.875976562500000000e-01,4.204711914062500000e-01,4.080810546875000000e-01,7.575683593750000000e-01
-1.000000000000000000e+00,-4.000000000000000000e+00,-4.000000000000000000e+00,-2.000000000000000000e+00,-3.000000000000000000e+00,-4.000000000000000000e+00,-2.000000000000000000e+00,-2.000000000000000000e+00,-2.875976562500000000e-01,4.204711914062500000e-01,4.080810546875000000e-01,7.575683593750000000e-01
-5.000000000000000000e+00,3.000000000000000000e+00,0.000000000000000000e+00,-3.000000000000000000e+00,-1.000000000000000000e+00,-1.000000000000000000e+00,-2.000000000000000000e+00,-2.000000000000000000e+00,-2.875976562500000000e-01,4.204711914062500000e-01,4.080810546875000000e-01,7.575683593750000000e-01
-1.000000000000000000e+00,9.000000000000000000e+00,3.000000000000000000e+00,2.000000000000000000e+00,2.000000000000000000e+00,-1.000000000000000000e+00,-3.000000000000000000e+00,-2.000000000000000000e+00,-2.875976562500000000e-01,4.204711914062500000e-01,4.080810546875000000e-01,7.575683593750000000e-01
-1.000000000000000000e+00,-2.200000000000000000e+01,-1.900000000000000000e+01,-1.400000000000000000e+01,1.000000000000000000e+00,0.000000000000000000e+00,2.000000000000000000e+00,0.000000000000000000e+00,-2.872924804687500000e-01,4.202880859375000000e-01,4.080810546875000000e-01,7.577514648437500000e-01
-4.000000000000000000e+00,1.600000000000000000e+01,3.000000000000000000e+00,2.000000000000000000e+00,-3.000000000000000000e+00,-3.000000000000000000e+00,-3.000000000000000000e+00,-2.000000000000000000e+00,-2.872924804687500000e-01,4.202880859375000000e-01,4.080810546875000000e-01,7.577514648437500000e-01
-9.000000000000000000e+00,-6.000000000000000000e+00,8.000000000000000000e+00,6.000000000000000000e+00,-3.000000000000000000e+00,-3.000000000000000000e+00,-2.000000000000000000e+00,-2.000000000000000000e+00,-2.872924804687500000e-01,4.202880859375000000e-01,4.080810546875000000e-01,7.577514648437500000e-01
-2.000000000000000000e+00,1.000000000000000000e+01,-5.000000000000000000e+00,-4.000000000000000000e+00,-1.000000000000000000e+00,1.000000000000000000e+00,-1.000000000000000000e+00,-2.000000000000000000e+00,-2.872924804687500000e-01,4.202880859375000000e-01,4.080810546875000000e-01,7.577514648437500000e-01
3.000000000000000000e+00,1.200000000000000000e+01,2.000000000000000000e+01,6.000000000000000000e+00,3.000000000000000000e+00,2.000000000000000000e+00,1.000000000000000000e+00,-1.000000000000000000e+00,-2.866210937500000000e-01,4.209594726562500000e-01,4.076538085937500000e-01,7.579345703125000000e-01
-1.000000000000000000e+00,-2.100000000000000000e+01,-1.100000000000000000e+01,-1.000000000000000000e+00,2.000000000000000000e+00,0.000000000000000000e+00,1.000000000000000000e+00,0.000000000000000000e+00,-2.866210937500000000e-01,4.209594726562500000e-01,4.076538085937500000e-01,7.579345703125000000e-01
-1.000000000000000000e+00,-1.000000000000000000e+00,-4.000000000000000000e+00,1.000000000000000000e+00,-3.000000000000000000e+00,-2.000000000000000000e+00,-2.000000000000000000e+00,-1.000000000000000000e+00,-2.866210937500000000e-01,4.209594726562500000e-01,4.076538085937500000e-01,7.579345703125000000e-01
-5.000000000000000000e+00,3.000000000000000000e+00,-2.000000000000000000e+00,-3.000000000000000000e+00,1.000000000000000000e+00,-1.000000000000000000e+00,-3.000000000000000000e+00,-1.000000000000000000e+00,-2.866210937500000000e-01,4.209594726562500000e-01,4.076538085937500000e-01,7.579345703125000000e-01
4.000000000000000000e+00,1.400000000000000000e+01,-8.000000000000000000e+00,2.000000000000000000e+00,-2.000000000000000000e+00,-1.000000000000000000e+00,-3.000000000000000000e+00,-3.000000000000000000e+00,-2.861328125000000000e-01,4.215087890625000000e-01,4.075927734375000000e-01,7.578125000000000000e-01
-4.000000000000000000e+00,-2.300000000000000000e+01,-8.000000000000000000e+00,-2.000000000000000000e+00,-4.000000000000000000e+00,0.000000000000000000e+00,1.000000000000000000e+00,0.000000000000000000e+00,-2.861328125000000000e-01,4.215087890625000000e-01,4.075927734375000000e-01,7.578125000000000000e-01
-2.000000000000000000e+00,-8.000000000000000000e+00,-1.000000000000000000e+01,-1.000000000000000000e+00,0.000000000000000000e+00,-2.000000000000000000e+00,-2.000000000000000000e+00,-1.000000000000000000e+00,-2.861328125000000000e-01,4.215087890625000000e-01,4.075927734375000000e-01,7.578125000000000000e-01
-1.000000000000000000e+00,5.000000000000000000e+00,-1.000000000000000000e+00,-2.000000000000000000e+00,-1.000000000000000000e+00,-1.000000000000000000e+00,1.000000000000000000e+00,0.000000000000000000e+00,-2.861328125000000000e-01,4.215087890625000000e-01,4.075927734375000000e-01,7.578125000000000000e-01
5.000000000000000000e+00,1.400000000000000000e+01,6.000000000000000000e+00,-2.000000000000000000e+00,0.000000000000000000e+00,0.000000000000000000e+00,0.000000000000000000e+00,2.000000000000000000e+00,-2.862548828125000000e-01,4.216918945312500000e-01,4.078369140625000000e-01,7.575073242187500000e-01
-4.000000000000000000e+00,-1.700000000000000000e+01,-3.000000000000000000e+00,4.000000000000000000e+00,0.000000000000000000e+00,-2.000000000000000000e+00,-3.000000000000000000e+00,-2.000000000000000000e+00,-2.862548828125000000e-01,4.216918945312500000e-01,4.078369140625000000e-01,7.575073242187500000e-01
3.000000000000000000e+00,1.200000000000000000e+01,-4.000000000000000000e+00,-6.000000000000000000e+00,2.000000000000000000e+00,-1.000000000000000000e+00,-2.000000000000000000e+00,-1.000000000000000000e+00,-2.862548828125000000e-01,4.216918945312500000e-01,4.078369140625000000e-01,7.575073242187500000e-01
0.000000000000000000e+00,-1.500000000000000000e+01,3.000000000000000000e+00,-1.000000000000000000e+00,-3.000000000000000000e+00,-1.000000000000000000e+00,-1.000000000000000000e+00,-2.000000000000000000e+00,-2.862548828125000000e-01,4.216918945312500000e-01,4.078369140625000000e-01,7.575073242187500000e-01
-3.000000000000000000e+00,3.000000000000000000e+00,-6.000000000000000000e+00,1.000000000000000000e+00,-1.000000000000000000e+00,-2.000000000000000000e+00,-1.000000000000000000e+00,-3.000000000000000000e+00,-2.868041992187500000e-01,4.217529296875000000e-01,4.080200195312500000e-01,7.571411132812500000e-01
0.000000000000000000e+00,1.500000000000000000e+01,1.800000000000000000e+01,-2.000000000000000000e+00,-4.000000000000000000e+00,0.000000000000000000e+00,-1.000000000000000000e+00,-2.000000000000000000e+00,-2.868041992187500000e-01,4.217529296875000000e-01,4.080200195312500000e-01,7.571411132812500000e-01
-3.000000000000000000e+00,-1.300000000000000000e+01,-2.000000000000000000e+00,-1.000000000000000000e+00,0.000000000000000000e+00,1.000000000000000000e+00,0.000000000000000000e+00,0.000000000000000000e+00,-2.868041992187500000e-01,4.217529296875000000e-01,4.080200195312500000e-01,7.571411132812500000e-01
2.000000000000000000e+00,7.000000000000000000e+00,4.000000000000000000e+00,0.000000000000000000e+00,0.000000000000000000e+00,-2.000000000000000000e+00,-1.000000000000000000e+00,0.000000000000000000e+00,-2.868041992187500000e-01,4.217529296875000000e-01,4.080200195312500000e-01,7.571411132812500000e-01
-1.000000000000000000e+00,-7.000000000000000000e+00,1.000000000000000000e+00,1.000000000000000000e+00,-3.000000000000000000e+00,-4.000000000000000000e+00,-1.000000000000000000e+00,-1.000000000000000000e+00,-2.872314453125000000e-01,4.219970703125000000e-01,4.077148437500000000e-01,7.570190429687500000e-01
0.000000000000000000e+00,-1.100000000000000000e+01,-2.200000000000000000e+01,-8.000000000000000000e+00,0.000000000000000000e+00,0.000000000000000000e+00,-1.000000000000000000e+00,-1.000000000000000000e+00,-2.872314453125000000e-01,4.219970703125000000e-01,4.077148437500000000e-01,7.570190429687500000e-01
-2.000000000000000000e+00,1.000000000000000000e+01,3.300000000000000000e+01,1.000000000000000000e+01,-1.000000000000000000e+00,0.000000000000000000e+00,0.000000000000000000e+00,-1.000000000000000000e+00,-2.872314453125000000e-01,4.219970703125000000e-01,4.077148437500000000e-01,7.570190429687500000e-01
-1.000000000000000000e+00,7.000000000000000000e+00,-3.000000000000000000e+00,3.000000000000000000e+00,2.000000000000000000e+00,2.000000000000000000e+00,1.000000000000000000e+00,0.000000000000000000e+00,-2.872314453125000000e-01,4.219970703125000000e-01,4.077148437500000000e-01,7.570190429687500000e-01
-4.000000000000000000e+00,-1.500000000000000000e+01,-5.000000000000000000e+00,-4.000000000000000000e+00,-1.000000000000000000e+00,-1.000000000000000000e+00,-1.000000000000000000e+00,0.000000000000000000e+00,-2.870483398437500000e-01,4.224243164062500000e-01,4.074096679687500000e-01,7.570190429687500000e-01
-6.000000000000000000e+00,-1.400000000000000000e+01,-4.000000000000000000e+00,1.000000000000000000e+00,1.000000000000000000e+00,-1.000000000000000000e+00,0.000000000000000000e+00,-2.000000000000000000e+00,-2.870483398437500000e-01,4.224243164062500000e-01,4.074096679687500000e-01,7.570190429687500000e-01
0.000000000000000000e+00,6.000000000000000000e+00,-2.600000000000000000e+01,-1.300000000000000000e+01,-4.000000000000000000e+00,0.000000000000000000e+00,0.000000000000000000e+00,-1.000000000000000000e+00,-2.870483398437500000e-01,4.224243164062500000e-01,4.074096679687500000e-01,7.570190429687500000e-01
-4.000000000000000000e+00,2.000000000000000000e+00,1.300000000000000000e+01,3.000000000000000000e+00,-4.000000000000000000e+00,-3.000000000000000000e+00,-3.000000000000000000e+00,0.000000000000000000e+00,-2.870483398437500000e-01,4.224243164062500000e-01,4.074096679687500000e-01,7.570190429687500000e-01
4.000000000000000000e+00,1.000000000000000000e+00,-4.000000000000000000e+00,2.000000000000000000e+00,4.000000000000000000e+00,3.000000000000000000e+00,0.000000000000000000e+00,0.000000000000000000e+00,-2.872314453125000000e-01,4.226684570312500000e-01,4.072265625000000000e-01,7.569580078125000000e-01
1.000000000000000000e+00,-2.000000000000000000e+00,-3.000000000000000000e+00,-3.000000000000000000e+00,0.000000000000000000e+00,-2.000000000000000000e+00,-1.000000000000000000e+00,-1.000000000000000000e+00,-2.872314453125000000e-01,4.226684570312500000e-01,4.072265625000000000e-01,7.569580078125000000e-01
-4.000000000000000000e+00,-5.000000000000000000e+00,0.000000000000000000e+00,5.000000000000000000e+00,-2.000000000000000000e+00,-3.000000000000000000e+00,-1.000000000000000000e+00,-3.000000000000000000e+00,-2.872314453125000000e-01,4.226684570312500000e-01,4.072265625000000000e-01,7.569580078125000000e-01
1.000000000000000000e+00,1.000000000000000000e+00,-6.000000000000000000e+00,-7.000000000000000000e+00,-2.000000000000000000e+00,-2.000000000000000000e+00,-1.000000000000000000e+00,-1.000000000000000000e+00,-2.872314453125000000e-01,4.226684570312500000e-01,4.072265625000000000e-01,7.569580078125000000e-01
-2.000000000000000000e+00,1.000000000000000000e+00,1.300000000000000000e+01,1.300000000000000000e+01,2.000000000000000000e+00,-1.000000000000000000e+00,-1.000000000000000000e+00,1.000000000000000000e+00,-2.875366210937500000e-01,4.226074218750000000e-01,4.073486328125000000e-01,7.567749023437500000e-01
1.000000000000000000e+00,1.300000000000000000e+01,-5.000000000000000000e+00,0.000000000000000000e+00,4.000000000000000000e+00,3.000000000000000000e+00,1.000000000000000000e+00,1.000000000000000000e+00,-2.875366210937500000e-01,4.226074218750000000e-01,4.073486328125000000e-01,7.567749023437500000e-01
2.000000000000000000e+00,-8.000000000000000000e+00,4.000000000000000000e+00,-2.000000000000000000e+00,-2.000000000000000000e+00,-2.000000000000000000e+00,-2.000000000000000000e+00,1.000000000000000000e+00,-2.875366210937500000e-01,4.226074218750000000e-01,4.073486328125000000e-01,7.567749023437500000e-01
0.000000000000000000e+00,1.500000000000000000e+01,0.000000000000000000e+00,3.000000000000000000e+00,2.000000000000000000e+00,1.000000000000000000e+00,3.000000000000000000e+00,1.000000000000000000e+00,-2.875366210937500000e-01,4.226074218750000000e-01,4.073486328125000000e-01,7.567749023437500000e-01
-4.000000000000000000e+00,-1.700000000000000000e+01,-6.000000000000000000e+00,-6.000000000000000000e+00,-3.000000000000000000e+00,-4.000000000000000000e+00,-4.000000000000000000e+00,-4.000000000000000000e+00,-2.880249023437500000e-01,4.222412109375000000e-01,4.077758789062500000e-01,7.565917968750000000e-01
-2.000000000000000000e+00,-3.000000000000000000e+00,5.000000000000000000e+00,4.000000000000000000e+00,-2.000000000000000000e+00,1.000000000000000000e+00,0.000000000000000000e+00,0.000000000000000000e+00,-2.880249023437500000e-01,4.222412109375000000e-01,4.077758789062500000e-01,7.565917968750000000e-01
2.000000000000000000e+00,2.000000000000000000e+01,-1.600000000000000000e+01,-4.000000000000000000e+00,2.000000000000000000e+00,-2.000000000000000000e+00,-1.000000000000000000e+00,-1.000000000000000000e+00,-2.880249023437500000e-01,4.222412109375000000e-01,4.077758789062500000e-01,7.565917968750000000e-01
3.000000000000000000e+00,2.000000000000000000e+00,2.500000000000000000e+01,2.000000000000000000e+00,-4.000000000000000000e+00,-2.000000000000000000e+00,0.000000000000000000e+00,1.000000000000000000e+00,-2.880249023437500000e-01,4.222412109375000000e-01,4.077758789062500000e-01,7.565917968750000000e-01
-5.000000000000000000e+00,1.000000000000000000e+01,2.000000000000000000e+00,0.000000000000000000e+00,-5.000000000000000000e+00,-1.000000000000000000e+00,0.000000000000000000e+00,-2.000000000000000000e+00,-2.883300781250000000e-01,4.217529296875000000e-01,4.082031250000000000e-01,7.564697265625000000e-01
-1.000000000000000000e+00,-7.000000000000000000e+00,-8.000000000000000000e+00,-1.000000000000000000e+00,-1.000000000000000000e+00,-1.000000000000000000e+00,-1.000000000000000000e+00,0.000000000000000000e+00,-2.883300781250000000e-01,4.217529296875000000e-01,4.082031250000000000e-01,7.564697265625000000e-01
1.000000000000000000e+00,-1.000000000000000000e+00,4.000000000000000000e+00,2.000000000000000000e+00,1.000000000000000000e+00,2.000000000000000000e+00,1.000000000000000000e+00,0.000000000000000000e+00,-2.883300781250000000e-01,4.217529296875000000e-01,4.082031250000000000e-01,7.564697265625000000e-01
-2.000000000000000000e+00,0.000000000000000000e+00,-1.700000000000000000e+01,-5.000000000000000000e+00,-3.000000000000000000e+00,-2.000000000000000000e+00,-1.000000000000000000e+00,-3.000000000000000000e+00,-2.883300781250000000e-01,4.217529296875000000e-01,4.082031250000000000e-01,7.564697265625000000e-01
0.000000000000000000e+00,-5.000000000000000000e+00,-1.100000000000000000e+01,-1.200000000000000000e+01,-3.000000000000000000e+00,-3.000000000000000000e+00,-3.000000000000000000e+00,1.000000000000000000e+00,-2.882080078125000000e-01,4.214477539062500000e-01,4.083862304687500000e-01,7.565917968750000000e-01
1.000000000000000000e+00,-4.000000000000000000e+00,1.200000000000000000e+01,1.000000000000000000e+01,2.000000000000000000e+00,-1.000000000000000000e+00,-1.000000000000000000e+00,0.000000000000000000e+00,-2.882080078125000000e-01,4.214477539062500000e-01,4.083862304687500000e-01,7.565917968750000000e-01
1.000000000000000000e+00,4.000000000000000000e+00,-1.000000000000000000e+00,-2.000000000000000000e+00,-1.000000000000000000e+00,1.000000000000000000e+00,1.000000000000000000e+00,0.000000000000000000e+00,-2.882080078125000000e-01,4.214477539062500000e-01,4.083862304687500000e-01,7.565917968750000000e-01
0.000000000000000000e+00,-1.700000000000000000e+01,-5.000000000000000000e+00,0.000000000000000000e+00,1.000000000000000000e+00,-1.000000000000000000e+00,1.000000000000000000e+00,0.000000000000000000e+00,-2.882080078125000000e-01,4.214477539062500000e-01,4.083862304687500000e-01,7.565917968750000000e-01
-2.000000000000000000e+00,-6.000000000000000000e+00,0.000000000000000000e+00,-3.000000000000000000e+00,-2.000000000000000000e+00,-1.000000000000000000e+00,-1.000000000000000000e+00,-3.000000000000000000e+00,-2.874755859375000000e-01,4.213867187500000000e-01,4.083862304687500000e-01,7.568969726562500000e-01
-3.000000000000000000e+00,5.000000000000000000e+00,-1.000000000000000000e+01,-8.000000000000000000e+00,0.000000000000000000e+00,-3.000000000000000000e+00,-2.000000000000000000e+00,-2.000000000000000000e+00,-2.874755859375000000e-01,4.213867187500000000e-01,4.083862304687500000e-01,7.568969726562500000e-01
-1.000000000000000000e+00,-6.000000000000000000e+00,1.000000000000000000e+00,0.000000000000000000e+00,0.000000000000000000e+00,-2.000000000000000000e+00,-2.000000000000000000e+00,0.000000000000000000e+00,-2.874755859375000000e-01,4.213867187500000000e-01,4.083862304687500000e-01,7.568969726562500000e-01
-2.000000000000000000e+00,-1.000000000000000000e+00,7.000000000000000000e+00,6.000000000000000000e+00,0.000000000000000000e+00,0.000000000000000000e+00,-2.000000000000000000e+00,-1.000000000000000000e+00,-2.874755859375000000e-01,4.213867187500000000e-01,4.083862304687500000e-01,7.568969726562500000e-01
0.000000000000000000e+00,-1.000000000000000000e+00,0.000000000000000000e+00,-4.000000000000000000e+00,-2.000000000000000000e+00,0.000000000000000000e+00,3.000000000000000000e+00,0.000000000000000000e+00,-2.870483398437500000e-01,4.212646484375000000e-01,4.085083007812500000e-01,7.570800781250000000e-01
2.000000000000000000e+00,1.000000000000000000e+00,1.000000000000000000e+00,2.000000000000000000e+00,4.000000000000000000e+00,0.000000000000000000e+00,-3.000000000000000000e+00,1.000000000000000000e+00,-2.870483398437500000e-01,4.212646484375000000e-01,4.085083007812500000e-01,7.570800781250000000e-01
0.000000000000000000e+00,-1.300000000000000000e+01,-1.100000000000000000e+01,3.000000000000000000e+00,-3.000000000000000000e+00,-3.000000000000000000e+00,-4.000000000000000000e+00,-3.000000000000000000e+00,-2.870483398437500000e-01,4.212646484375000000e-01,4.085083007812500000e-01,7.570800781250000000e-01
1.000000000000000000e+00,2.700000000000000000e+01,2.100000000000000000e+01,-7.000000000000000000e+00,-7.000000000000000000e+00,-5.000000000000000000e+00,-4.000000000000000000e+00,-2.000000000000000000e+00,-2.870483398437500000e-01,4.212646484375000000e-01,4.085083007812500000e-01,7.570800781250000000e-01
-4.000000000000000000e+00,-1.200000000000000000e+01,-9.000000000000000000e+00,0.000000000000000000e+00,6.000000000000000000e+00,3.000000000000000000e+00,3.000000000000000000e+00,1.000000000000000000e+00,-2.868041992187500000e-01,4.208984375000000000e-01,4.089355468750000000e-01,7.571411132812500000e-01
-3.000000000000000000e+00,1.100000000000000000e+01,1.200000000000000000e+01,4.000000000000000000e+00,-4.000000000000000000e+00,-2.000000000000000000e+00,-2.000000000000000000e+00,-3.000000000000000000e+00,-2.868041992187500000e-01,4.208984375000000000e-01,4.089355468750000000e-01,7.571411132812500000e-01
1.000000000000000000e+00,-8.000000000000000000e+00,-5.000000000000000000e+00,-7.000000000000000000e+00,1.000000000000000000e+00,0.000000000000000000e+00,2.000000000000000000e+00,0.000000000000000000e+00,-2.868041992187500000e-01,4.208984375000000000e-01,4.089355468750000000e-01,7.571411132812500000e-01
-2.000000000000000000e+00,-8.000000000000000000e+00,-1.000000000000000000e+00,2.000000000000000000e+00,-2.000000000000000000e+00,-3.000000000000000000e+00,-2.000000000000000000e+00,-3.000000000000000000e+00,-2.868041992187500000e-01,4.208984375000000000e-01,4.089355468750000000e-01,7.571411132812500000e-01
1.000000000000000000e+00,6.000000000000000000e+00,-2.000000000000000000e+00,-4.000000000000000000e+00,-1.000000000000000000e+00,0.000000000000000000e+00,1.000000000000000000e+00,0.000000000000000000e+00,-2.869262695312500000e-01,4.201049804687500000e-01,4.094238281250000000e-01,7.572631835937500000e-01
0.000000000000000000e+00,-3.000000000000000000e+00,4.000000000000000000e+00,-1.000000000000000000e+00,-3.000000000000000000e+00,-1.000000000000000000e+00,-1.000000000000000000e+00,0.000000000000000000e+00,-2.869262695312500000e-01,4.201049804687500000e-01,4.094238281250000000e-01,7.572631835937500000e-01
-2.000000000000000000e+00,3.000000000000000000e+00,-3.000000000000000000e+00,0.000000000000000000e+00,-1.000000000000000000e+00,-1.000000000000000000e+00,-2.000000000000000000e+00,-2.000000000000000000e+00,-2.869262695312500000e-01,4.201049804687500000e-01,4.094238281250000000e-01,7.572631835937500000e-01
-3.000000000000000000e+00,-1.300000000000000000e+01,-1.300000000000000000e+01,-3.000000000000000000e+00,2.000000000000000000e+00,2.000000000000000000e+00,0.000000000000000000e+00,0.000000000000000000e+00,-2.869262695312500000e-01,4.201049804687500000e-01,4.094238281250000000e-01,7.572631835937500000e-01
-2.000000000000000000e+00,5.000000000000000000e+00,1.300000000000000000e+01,3.000000000000000000e+00,-2.000000000000000000e+00,-1.000000000000000000e+00,-2.000000000000000000e+00,0.000000000000000000e+00,-2.871704101562500000e-01,4.194946289062500000e-01,4.096069335937500000e-01,7.574462890625000000e-01
5.000000000000000000e+00,-4.000000000000000000e+00,-1.700000000000000000e+01,-9.000000000000000000e+00,2.000000000000000000e+00,1.000000000000000000e+00,1.000000000000000000e+00,-1.000000000000000000e+00,-2.871704101562500000e-01,4.194946289062500000e-01,4.096069335937500000e-01,7.574462890625000000e-01
0.000000000000000000e+00,4.000000000000000000e+00,8.000000000000000000e+00,-1.000000000000000000e+00,-5.000000000000000000e+00,-4.000000000000000000e+00,-2.000000000000000000e+00,-2.000000000000000000e+00,-2.871704101562500000e-01,4.194946289062500000e-01,4.096069335937500000e-01,7.574462890625000000e-01
3.000000000000000000e+00,1.100000000000000000e+01,-5.000000000000000000e+00,-2.000000000000000000e+00,0.000000000000000000e+00,0.000000000000000000e+00,-1.000000000000000000e+00,-1.000000000000000000e+00,-2.871704101562500000e-01,4.194946289062500000e-01,4.096069335937500000e-01,7.574462890625000000e-01
-4.000000000000000000e+00,-1.000000000000000000e+01,-2.000000000000000000e+00,2.000000000000000000e+00,-1.000000000000000000e+00,0.000000000000000000e+00,-1.000000000000000000e+00,0.000000000000000000e+00,-2.869873046875000000e-01,4.190673828125000000e-01,4.093017578125000000e-01,7.578735351562500000e-01
-4.000000000000000000e+00,3.000000000000000000e+00,-3.000000000000000000e+00,-8.000000000000000000e+00,-3.000000000000000000e+00,-1.000000000000000000e+00,-1.000000000000000000e+00,-2.000000000000000000e+00,-2.869873046875000000e-01,4.190673828125000000e-01,4.093017578125000000e-01,7.578735351562500000e-01
-4.000000000000000000e+00,-2.000000000000000000e+00,-2.000000000000000000e+00,0.000000000000000000e+00,-1.000000000000000000e+00,-1.000000000000000000e+00,-1.000000000000000000e+00,-1.000000000000000000e+00,-2.869873046875000000e-01,4.190673828125000000e-01,4.093017578125000000e-01,7.578735351562500000e-01
2.000000000000000000e+00,-2.000000000000000000e+00,1.000000000000000000e+00,0.000000000000000000e+00,-1.000000000000000000e+00,-1.000000000000000000e+00,1.000000000000000000e+00,-1.000000000000000000e+00,-2.869873046875000000e-01,4.190673828125000000e-01,4.093017578125000000e-01,7.578735351562500000e-01
-3.000000000000000000e+00,0.000000000000000000e+00,-8.000000000000000000e+00,-8.000000000000000000e+00,-1.000000000000000000e+00,0.000000000000000000e+00,-2.000000000000000000e+00,-1.000000000000000000e+00,-2.868041992187500000e-01,4.187011718750000000e-01,4.089355468750000000e-01,7.583618164062500000e-01
0.000000000000000000e+00,-1.000000000000000000e+01,1.000000000000000000e+01,1.000000000000000000e+01,-1.000000000000000000e+00,-1.000000000000000000e+00,1.000000000000000000e+00,1.000000000000000000e+00,-2.868041992187500000e-01,4.187011718750000000e-01,4.089355468750000000e-01,7.583618164062500000e-01
-3.000000000000000000e+00,-5.000000000000000000e+00,1.500000000000000000e+01,-1.000000000000000000e+00,1.000000000000000000e+00,-3.000000000000000000e+00,-2.000000000000000000e+00,-2.000000000000000000e+00,-2.868041992187500000e-01,4.187011718750000000e-01,4.089355468750000000e-01,7.583618164062500000e-01
-3.000000000000000000e+00,0.000000000000000000e+00,-2.100000000000000000e+01,0.000000000000000000e+00,2.000000000000000000e+00,2.000000000000000000e+00,-3.000000000000000000e+00,0.000000000000000000e+00,-2.868041992187500000e-01,4.187011718750000000e-01,4.089355468750000000e-01,7.583618164062500000e-01
1.000000000000000000e+00,1.000000000000000000e+00,5.000000000000000000e+00,-1.100000000000000000e+01,-3.000000000000000000e+00,0.000000000000000000e+00,-1.000000000000000000e+00,-2.000000000000000000e+00,-2.868652343750000000e-01,4.182128906250000000e-01,4.088134765625000000e-01,7.586669921875000000e-01
1.000000000000000000e+00,0.000000000000000000e+00,2.000000000000000000e+00,-2.000000000000000000e+00,0.000000000000000000e+00,0.000000000000000000e+00,-1.000000000000000000e+00,0.000000000000000000e+00,-2.868652343750000000e-01,4.182128906250000000e-01,4.088134765625000000e-01,7.586669921875000000e-01
-3.000000000000000000e+00,-6.000000000000000000e+00,5.000000000000000000e+00,-1.000000000000000000e+00,-3.000000000000000000e+00,1.000000000000000000e+00,1.000000000000000000e+00,0.000000000000000000e+00,-2.868652343750000000e-01,4.182128906250000000e-01,4.088134765625000000e-01,7.586669921875000000e-01
0.000000000000000000e+00,-1.000000000000000000e+01,-1.000000000000000000e+00,2.000000000000000000e+00,0.000000000000000000e+00,-2.000000000000000000e+00,-2.000000000000000000e+00,-2.000000000000000000e+00,-2.868652343750000000e-01,4.182128906250000000e-01,4.088134765625000000e-01,7.586669921875000000e-01
0.000000000000000000e+00,6.000000000000000000e+00,1.000000000000000000e+00,3.000000000000000000e+00,-5.000000000000000000e+00,-3.000000000000000000e+00,-2.000000000000000000e+00,0.000000000000000000e+00,-2.873535156250000000e-01,4.178466796875000000e-01,4.087524414062500000e-01,7.587280273437500000e-01
-1.000000000000000000e+00,0.000000000000000000e+00,-1.000000000000000000e+01,-2.000000000000000000e+00,1.000000000000000000e+00,-1.000000000000000000e+00,-2.000000000000000000e+00,-1.000000000000000000e+00,-2.873535156250000000e-01,4.178466796875000000e-01,4.087524414062500000e-01,7.587280273437500000e-01
1.000000000000000000e+00,9.000000000000000000e+00,5.000000000000000000e+00,-5.000000000000000000e+00,-1.000000000000000000e+00,-1.000000000000000000e+00,0.000000000000000000e+00,-2.000000000000000000e+00,-2.873535156250000000e-01,4.178466796875000000e-01,4.087524414062500000e-01,7.587280273437500000e-01
-4.000000000000000000e+00,-2.000000000000000000e+01,-2.000000000000000000e+00,0.000000000000000000e+00,-1.000000000000000000e+00,1.000000000000000000e+00,0.000000000000000000e+00,-2.000000000000000000e+00,-2.873535156250000000e-01,4.178466796875000000e-01,4.087524414062500000e-01,7.587280273437500000e-01
-1.000000000000000000e+00,2.100000000000000000e+01,-6.000000000000000000e+00,-4.000000000000000000e+00,1.000000000000000000e+00,-2.000000000000000000e+00,0.000000000000000000e+00,1.000000000000000000e+00,-2.879638671875000000e-01,4.176025390625000000e-01,4.085693359375000000e-01,7.587280273437500000e-01
1.000000000000000000e+00,0.000000000000000000e+00,8.000000000000000000e+00,8.000000000000000000e+00,0.000000000000000000e+00,-1.000000000000000000e+00,-2.000000000000000000e+00,-1.000000000000000000e+00,-2.879638671875000000e-01,4.176025390625000000e-01,4.085693359375000000e-01,7.587280273437500000e-01
-2.000000000000000000e+00,-4.000000000000000000e+00,-1.400000000000000000e+01,-1.000000000000000000e+00,-1.000000000000000000e+00,0.000000000000000000e+00,-1.000000000000000000e+00,-1.000000000000000000e+00,-2.879638671875000000e-01,4.176025390625000000e-01,4.085693359375000000e-01,7.587280273437500000e-01
0.000000000000000000e+00,-1.000000000000000000e+00,0.000000000000000000e+00,-4.000000000000000000e+00,1.000000000000000000e+00,1.000000000000000000e+00,0.000000000000000000e+00,-1.000000000000000000e+00,-2.879638671875000000e-01,4.176025390625000000e-01,4.085693359375000000e-01,7.587280273437500000e-01
-1.000000000000000000e+00,-1.000000000000000000e+00,3.000000000000000000e+00,4.000000000000000000e+00,0.000000000000000000e+00,-3.000000000000000000e+00,-2.000000000000000000e+00,-2.000000000000000000e+00,-2.881469726562500000e-01,4.174804687500000000e-01,4.082031250000000000e-01,7.589111328125000000e-01
-1.000000000000000000e+00,-4.000000000000000000e+00,-5.000000000000000000e+00,-6.000000000000000000e+00,-3.000000000000000000e+00,-1.000000000000000000e+00,-1.000000000000000000e+00,0.000000000000000000e+00,-2.881469726562500000e-01,4.174804687500000000e-01,4.082031250000000000e-01,7.589111328125000000e-01
-4.000000000000000000e+00,-5.000000000000000000e+00,0.000000000000000000e+00,2.000000000000000000e+00,0.000000000000000000e+00,1.000000000000000000e+00,0.000000000000000000e+00,1.000000000000000000e+00,-2.881469726562500000e-01,4.174804687500000000e-01,4.082031250000000000e-01,7.589111328125000000e-01
-1.000000000000000000e+00,-1.000000000000000000e+00,-1.300000000000000000e+01,-5.000000000000000000e+00,-3.000000000000000000e+00,-1.000000000000000000e+00,-2.000000000000000000e+00,-2.000000000000000000e+00,-2.881469726562500000e-01,4.174804687500000000e-01,4.082031250000000000e-01,7.589111328125000000e-01
0.000000000000000000e+00,-1.000000000000000000e+01,-1.500000000000000000e+01,-2.000000000000000000e+00,-1.000000000000000000e+00,0.000000000000000000e+00,-1.000000000000000000e+00,-2.000000000000000000e+00,-2.883911132812500000e-01,4.175415039062500000e-01,4.077758789062500000e-01,7.590332031250000000e-01
-1.000000000000000000e+00,1.200000000000000000e+01,1.200000000000000000e+01,-1.000000000000000000e+00,0.000000000000000000e+00,-2.000000000000000000e+00,-1.000000000000000000e+00,-3.000000000000000000e+00,-2.883911132812500000e-01,4.175415039062500000e-01,4.077758789062500000e-01,7.590332031250000000e-01
-4.000000000000000000e+00,-7.000000000000000000e+00,2.000000000000000000e+00,0.000000000000000000e+00,-2.000000000000000000e+00,-1.000000000000000000e+00,-2.000000000000000000e+00,0.000000000000000000e+00,-2.883911132812500000e-01,4.175415039062500000e-01,4.077758789062500000e-01,7.590332031250000000e-01
-3.000000000000000000e+00,-1.000000000000000000e+00,-4.000000000000000000e+00,-4.000000000000000000e+00,0.000000000000000000e+00,-3.000000000000000000e+00,0.000000000000000000e+00,2.000000000000000000e+00,-2.883911132812500000e-01,4.175415039062500000e-01,4.077758789062500000e-01,7.590332031250000000e-01
3.000000000000000000e+00,6.000000000000000000e+00,4.000000000000000000e+00,5.000000000000000000e+00,-2.000000000000000000e+00,-1.000000000000000000e+00,-1.000000000000000000e+00,0.000000000000000000e+00,-2.886352539062500000e-01,4.178466796875000000e-01,4.073486328125000000e-01,7.590332031250000000e-01
-1.000000000000000000e+00,-3.000000000000000000e+00,-8.000000000000000000e+00,-7.000000000000000000e+00,-1.000000000000000000e+00,-1.000000000000000000e+00,2.000000000000000000e+00,1.000000000000000000e+00,-2.886352539062500000e-01,4.178466796875000000e-01,4.073486328125000000e-01,7.590332031250000000e-01
-2.000000000000000000e+00,-1.500000000000000000e+01,4.000000000000000000e+00,4.000000000000000000e+00,1.000000000000000000e+00,-1.000000000000000000e+00,-2.000000000000000000e+00,-1.000000000000000000e+00,-2.886352539062500000e-01,4.178466796875000000e-01,4.073486328125000000e-01,7.590332031250000000e-01
-1.000000000000000000e+00,-1.000000000000000000e+00,-1.000000000000000000e+01,-7.000000000000000000e+00,-4.000000000000000000e+00,0.000000000000000000e+00,-1.000000000000000000e+00,0.000000000000000000e+00,-2.886352539062500000e-01,4.178466796875000000e-01,4.073486328125000000e-01,7.590332031250000000e-01
-3.000000000000000000e+00,-1.600000000000000000e+01,-6.000000000000000000e+00,-2.000000000000000000e+00,-1.000000000000000000e+00,-3.000000000000000000e+00,-3.000000000000000000e+00,-4.000000000000000000e+00,-2.889404296875000000e-01,4.180908203125000000e-01,4.071655273437500000e-01,7.588500976562500000e-01
1.000000000000000000e+00,9.000000000000000000e+00,-2.000000000000000000e+00,-5.000000000000000000e+00,-4.000000000000000000e+00,0.000000000000000000e+00,1.000000000000000000e+00,-1.000000000000000000e+00,-2.889404296875000000e-01,4.180908203125000000e-01,4.071655273437500000e-01,7.588500976562500000e-01
-1.000000000000000000e+00,-6.000000000000000000e+00,-8.000000000000000000e+00,5.000000000000000000e+00,1.000000000000000000e+00,0.000000000000000000e+00,1.000000000000000000e+00,-1.000000000000000000e+00,-2.889404296875000000e-01,4.180908203125000000e-01,4.071655273437500000e-01,7.588500976562500000e-01
1.000000000000000000e+00,1.600000000000000000e+01,1.700000000000000000e+01,3.000000000000000000e+00,0.000000000000000000e+00,-1.000000000000000000e+00,0.000000000000000000e+00,-1.000000000000000000e+00,-2.889404296875000000e-01,4.180908203125000000e-01,4.071655273437500000e-01,7.588500976562500000e-01
0.000000000000000000e+00,-8.000000000000000000e+00,-1.600000000000000000e+01,-7.000000000000000000e+00,-5.000000000000000000e+00,-4.000000000000000000e+00,-3.000000000000000000e+00,1.000000000000000000e+00,-2.893066406250000000e-01,4.181518554687500000e-01,4.072265625000000000e-01,7.586669921875000000e-01
-5.000000000000000000e+00,-2.200000000000000000e+01,-2.000000000000000000e+00,0.000000000000000000e+00,3.000000000000000000e+00,3.000000000000000000e+00,-1.000000000000000000e+00,-2.000000000000000000e+00,-2.893066406250000000e-01,4.181518554687500000e-01,4.072265625000000000e-01,7.586669921875000000e-01
2.000000000000000000e+00,4.000000000000000000e+00,-1.100000000000000000e+01,-6.000000000000000000e+00,1.000000000000000000e+00,0.000000000000000000e+00,-2.000000000000000000e+00,1.000000000000000000e+00,-2.893066406250000000e-01,4.181518554687500000e-01,4.072265625000000000e-01,7.586669921875000000e-01
-1.000000000000000000e+00,-6.000000000000000000e+00,1.000000000000000000e+00,3.000000000000000000e+00,-1.000000000000000000e+00,-1.000000000000000000e+00,-1.000000000000000000e+00,-1.000000000000000000e+00,-2.893066406250000000e-01,4.181518554687500000e-01,4.072265625000000000e-01,7.586669921875000000e-01
0.000000000000000000e+00,3.000000000000000000e+00,1.300000000000000000e+01,9.000000000000000000e+00,-1.000000000000000000e+00,-1.000000000000000000e+00,-2.000000000000000000e+00,-1.000000000000000000e+00,-2.895507812500000000e-01,4.179687500000000000e-01,4.072265625000000000e-01,7.586669921875000000e-01
-1.000000000000000000e+00,8.000000000000000000e+00,-1.200000000000000000e+01,-1.300000000000000000e+01,-5.000000000000000000e+00,-5.000000000000000000e+00,-2.000000000000000000e+00,-2.000000000000000000e+00,-2.895507812500000000e-01,4.179687500000000000e-01,4.072265625000000000e-01,7.586669921875000000e-01
-2.000000000000000000e+00,3.000000000000000000e+00,-1.000000000000000000e+00,-6.000000000000000000e+00,-3.000000000000000000e+00,-1.000000000000000000e+00,-1.000000000000000000e+00,0.000000000000000000e+00,-2.895507812500000000e-01,4.179687500000000000e-01,4.072265625000000000e-01,7.586669921875000000e-01
6.000000000000000000e+00,-1.000000000000000000e+00,-3.000000000000000000e+00,-4.000000000000000000e+00,-2.000000000000000000e+00,-2.000000000000000000e+00,-1.000000000000000000e+00,1.000000000000000000e+00,-2.895507812500000000e-01,4.179687500000000000e-01,4.072265625000000000e-01,7.586669921875000000e-01
-2.000000000000000000e+00,6.000000000000000000e+00,1.100000000000000000e+01,3.100000000000000000e+01,4.000000000000000000e+00,1.000000000000000000e+00,1.000000000000000000e+00,-1.000000000000000000e+00,-2.894897460937500000e-01,4.178466796875000000e-01,4.069824218750000000e-01,7.588500976562500000e-01
-3.000000000000000000e+00,-3.000000000000000000e+00,-4.000000000000000000e+00,-7.000000000000000000e+00,0.000000000000000000e+00,-1.000000000000000000e+00,0.000000000000000000e+00,-3.000000000000000000e+00,-2.894897460937500000e-01,4.178466796875000000e-01,4.069824218750000000e-01,7.588500976562500000e-01
4.000000000000000000e+00,9.000000000000000000e+00,2.000000000000000000e+00,-1.000000000000000000e+01,-5.000000000000000000e+00,0.000000000000000000e+00,0.000000000000000000e+00,-2.000000000000000000e+00,-2.894897460937500000e-01,4.178466796875000000e-01,4.069824218750000000e-01,7.588500976562500000e-01
-5.000000000000000000e+00,-5.000000000000000000e+00,0.000000000000000000e+00,2.000000000000000000e+00,0.000000000000000000e+00,-1.000000000000000000e+00,0.000000000000000000e+00,0.000000000000000000e+00,-2.894897460937500000e-01,4.178466796875000000e-01,4.069824218750000000e-01,7.588500976562500000e-01
-2.000000000000000000e+00,-1.000000000000000000e+00,-5.000000000000000000e+00,-1.800000000000000000e+01,-4.000000000000000000e+00,-1.000000000000000000e+00,-2.000000000000000000e+00,-1.000000000000000000e+00,-2.893066406250000000e-01,4.180297851562500000e-01,4.067993164062500000e-01,7.589111328125000000e-01
-2.000000000000000000e+00,-1.400000000000000000e+01,0.000000000000000000e+00,1.000000000000000000e+01,1.000000000000000000e+00,-1.000000000000000000e+00,-1.000000000000000000e+00,-2.000000000000000000e+00,-2.893066406250000000e-01,4.180297851562500000e-01,4.067993164062500000e-01,7.589111328125000000e-01
-2.000000000000000000e+00,4.000000000000000000e+00,3.000000000000000000e+00,1.000000000000000000e+00,-2.000000000000000000e+00,-1.000000000000000000e+00,0.000000000000000000e+00,-1.000000000000000000e+00,-2.893066406250000000e-01,4.180297851562500000e-01,4.067993164062500000e-01,7.589111328125000000e-01
-3.000000000000000000e+00,-9.000000000000000000e+00,-6.000000000000000000e+00,-2.000000000000000000e+00,-2.000000000000000000e+00,-2.000000000000000000e+00,-1.000000000000000000e+00,-1.000000000000000000e+00,-2.893066406250000000e-01,4.180297851562500000e-01,4.067993164062500000e-01,7.589111328125000000e-01
0.000000000000000000e+00,7.000000000000000000e+00,8.000000000000000000e+00,9.000000000000000000e+00,8.000000000000000000e+00,2.000000000000000000e+00,0.000000000000000000e+00,1.000000000000000000e+00,-2.890625000000000000e-01,4.182739257812500000e-01,4.067382812500000000e-01,7.589721679687500000e-01
0.000000000000000000e+00,0.000000000000000000e+00,-1.500000000000000000e+01,-7.000000000000000000e+00,-5.000000000000000000e+00,-3.000000000000000000e+00,-3.000000000000000000e+00,0.000000000000000000e+00,-2.890625000000000000e-01,4.182739257812500000e-01,4.067382812500000000e-01,7.589721679687500000e-01
3.000000000000000000e+00,1.000000000000000000e+01,1.100000000000000000e+01,5.000000000000000000e+00,1.000000000000000000e+00,2.000000000000000000e+00,1.000000000000000000e+00,2.000000000000000000e+00,-2.890625000000000000e-01,4.182739257812500000e-01,4.067382812500000000e-01,7.589721679687500000e-01
-3.000000000000000000e+00,3.000000000000000000e+00,5.000000000000000000e+00,4.000000000000000000e+00,2.000000000000000000e+00,0.000000000000000000e+00,-1.000000000000000000e+00,-1.000000000000000000e+00,-2.890625000000000000e-01,4.182739257812500000e-01,4.067382812500000000e-01,7.589721679687500000e-01
0.000000000000000000e+00,-1.100000000000000000e+01,-3.000000000000000000e+00,-4.000000000000000000e+00,-2.000000000000000000e+00,2.000000000000000000e+00,2.000000000000000000e+00,-2.000000000000000000e+00,-2.890014648437500000e-01,4.182739257812500000e-01,4.067382812500000000e-01,7.589721679687500000e-01
0.000000000000000000e+00,1.000000000000000000e+00,0.000000000000000000e+00,-5.000000000000000000e+00,-1.000000000000000000e+00,-1.000000000000000000e+00,-1.000000000000000000e+00,-1.000000000000000000e+00,-2.890014648437500000e-01,4.182739257812500000e-01,4.067382812500000000e-01,7.589721679687500000e-01
0.000000000000000000e+00,7.000000000000000000e+00,-1.000000000000000000e+00,0.000000000000000000e+00,0.000000000000000000e+00,0.000000000000000000e+00,1.000000000000000000e+00,-1.000000000000000000e+00,-2.890014648437500000e-01,4.182739257812500000e-01,4.067382812500000000e-01,7.589721679687500000e-01
-2.000000000000000000e+00,-6.000000000000000000e+00,0.000000000000000000e+00,0.000000000000000000e+00,-2.000000000000000000e+00,-2.000000000000000000e+00,2.000000000000000000e+00,-1.000000000000000000e+00,-2.890014648437500000e-01,4.182739257812500000e-01,4.067382812500000000e-01,7.589721679687500000e-01
0.000000000000000000e+00,0.000000000000000000e+00,0.000000000000000000e+00,-3.000000000000000000e+00,-4.000000000000000000e+00,-1.000000000000000000e+00,-1.000000000000000000e+00,-2.000000000000000000e+00,-2.891235351562500000e-01,4.180297851562500000e-01,4.068603515625000000e-01,7.589721679687500000e-01
1.000000000000000000e+00,1.300000000000000000e+01,1.300000000000000000e+01,-3.000000000000000000e+00,-4.000000000000000000e+00,-1.000000000000000000e+00,-1.000000000000000000e+00,0.000000000000000000e+00,-2.891235351562500000e-01,4.180297851562500000e-01,4.068603515625000000e-01,7.589721679687500000e-01
-3.000000000000000000e+00,-1.500000000000000000e+01,-8.000000000000000000e+00,1.000000000000000000e+00,0.000000000000000000e+00,1.000000000000000000e+00,-1.000000000000000000e+00,-1.000000000000000000e+00,-2.891235351562500000e-01,4.180297851562500000e-01,4.068603515625000000e-01,7.589721679687500000e-01
-5.000000000000000000e+00,1.500000000000000000e+01,-3.000000000000000000e+00,-4.000000000000000000e+00,-4.000000000000000000e+00,-3.000000000000000000e+00,-1.000000000000000000e+00,-3.000000000000000000e+00,-2.891235351562500000e-01,4.180297851562500000e-01,4.068603515625000000e-01,7.589721679687500000e-01
-3.000000000000000000e+00,-1.800000000000000000e+01,-7.000000000000000000e+00,-7.000000000000000000e+00,-4.000000000000000000e+00,-4.000000000000000000e+00,-3.000000000000000000e+00,-2.000000000000000000e+00,-2.891845703125000000e-01,4.180297851562500000e-01,4.067993164062500000e-01,7.589721679687500000e-01
0.000000000000000000e+00,2.000000000000000000e+00,-5.000000000000000000e+00,6.000000000000000000e+00,-2.000000000000000000e+00,1.000000000000000000e+00,-1.000000000000000000e+00,-1.000000000000000000e+00,-2.891845703125000000e-01,4.180297851562500000e-01,4.067993164062500000e-01,7.589721679687500000e-01
1.000000000000000000e+00,-1.000000000000000000e+00,-1.000000000000000000e+00,-4.000000000000000000e+00,2.000000000000000000e+00,0.000000000000000000e+00,0.000000000000000000e+00,2.000000000000000000e+00,-2.891845703125000000e-01,4.180297851562500000e-01,4.067993164062500000e-01,7.589721679687500000e-01
-2.000000000000000000e+00,-1.000000000000000000e+00,-1.000000000000000000e+00,1.000000000000000000e+01,3.000000000000000000e+00,0.000000000000000000e+00,0.000000000000000000e+00,-3.000000000000000000e+00,-2.891845703125000000e-01,4.180297851562500000e-01,4.067993164062500000e-01,7.589721679687500000e-01
0.000000000000000000e+00,2.000000000000000000e+00,-6.000000000000000000e+00,-1.700000000000000000e+01,-4.000000000000000000e+00,-2.000000000000000000e+00,-1.000000000000000000e+00,-1.000000000000000000e+00,-2.890014648437500000e-01,4.180297851562500000e-01,4.066772460937500000e-01,7.590942382812500000e-01
-3.000000000000000000e+00,4.000000000000000000e+00,1.300000000000000000e+01,5.000000000000000000e+00,1.000000000000000000e+00,-1.000000000000000000e+00,0.000000000000000000e+00,0.000000000000000000e+00,-2.890014648437500000e-01,4.180297851562500000e-01,4.066772460937500000e-01,7.590942382812500000e-01
0.000000000000000000e+00,-2.000000000000000000e+00,-4.000000000000000000e+00,-1.000000000000000000e+00,1.000000000000000000e+00,2.000000000000000000e+00,-1.000000000000000000e+00,0.000000000000000000e+00,-2.890014648437500000e-01,4.180297851562500000e-01,4.066772460937500000e-01,7.590942382812500000e-01
1.000000000000000000e+00,-1.000000000000000000e+00,6.000000000000000000e+00,1.000000000000000000e+00,0.000000000000000000e+00,2.000000000000000000e+00,0.000000000000000000e+00,-1.000000000000000000e+00,-2.890014648437500000e-01,4.180297851562500000e-01,4.066772460937500000e-01,7.590942382812500000e-01
-2.000000000000000000e+00,3.000000000000000000e+00,-7.000000000000000000e+00,-2.000000000000000000e+00,1.000000000000000000e+00,0.000000000000000000e+00,-3.000000000000000000e+00,-3.000000000000000000e+00,-2.887573242187500000e-01,4.181518554687500000e-01,4.066772460937500000e-01,7.591552734375000000e-01
-2.000000000000000000e+00,-1.200000000000000000e+01,-4.000000000000000000e+00,3.000000000000000000e+00,-3.000000000000000000e+00,-3.000000000000000000e+00,-2.000000000000000000e+00,-1.000000000000000000e+00,-2.887573242187500000e-01,4.181518554687500000e-01,4.066772460937500000e-01,7.591552734375000000e-01
-4.000000000000000000e+00,-1.000000000000000000e+00,-3.000000000000000000e+00,-3.000000000000000000e+00,-4.000000000000000000e+00,-3.000000000000000000e+00,-4.000000000000000000e+00,-3.000000000000000000e+00,-2.887573242187500000e-01,4.181518554687500000e-01,4.066772460937500000e-01,7.591552734375000000e-01
1.000000000000000000e+00,-1.000000000000000000e+00,-6.000000000000000000e+00,-2.000000000000000000e+00,-1.000000000000000000e+00,-3.000000000000000000e+00,-3.000000000000000000e+00,-1.000000000000000000e+00,-2.887573242187500000e-01,4.181518554687500000e-01,4.066772460937500000e-01,7.591552734375000000e-01
0.000000000000000000e+00,5.000000000000000000e+00,8.000000000000000000e+00,3.000000000000000000e+00,3.000000000000000000e+00,1.000000000000000000e+00,1.000000000000000000e+00,-1.000000000000000000e+00,-2.889404296875000000e-01,4.179687500000000000e-01,4.067993164062500000e-01,7.590942382812500000e-01
0.000000000000000000e+00,6.000000000000000000e+00,3.000000000000000000e+00,-3.000000000000000000e+00,0.000000000000000000e+00,2.000000000000000000e+00,1.000000000000000000e+00,1.000000000000000000e+00,-2.889404296875000000e-01,4.179687500000000000e-01,4.067993164062500000e-01,7.590942382812500000e-01
-4.000000000000000000e+00,-2.000000000000000000e+01,-1.100000000000000000e+01,-1.000000000000000000e+00,-2.000000000000000000e+00,-3.000000000000000000e+00,-1.000000000000000000e+00,-3.000000000000000000e+00,-2.889404296875000000e-01,4.179687500000000000e-01,4.067993164062500000e-01,7.590942382812500000e-01
-1.000000000000000000e+00,-1.000000000000000000e+00,2.000000000000000000e+00,2.000000000000000000e+00,-1.000000000000000000e+00,1.000000000000000000e+00,-1.000000000000000000e+00,0.000000000000000000e+00,-2.889404296875000000e-01,4.179687500000000000e-01,4.067993164062500000e-01,7.590942382812500000e-01
0.000000000000000000e+00,-1.000000000000000000e+00,-8.000000000000000000e+00,-1.100000000000000000e+01,-5.000000000000000000e+00,-4.000000000000000000e+00,-1.000000000000000000e+00,1.000000000000000000e+00,-2.894287109375000000e-01,4.177246093750000000e-01,4.069213867187500000e-01,7.589721679687500000e-01
3.000000000000000000e+00,4.000000000000000000e+00,5.000000000000000000e+00,9.000000000000000000e+00,5.000000000000000000e+00,1.000000000000000000e+00,0.000000000000000000e+00,1.000000000000000000e+00,-2.894287109375000000e-01,4.177246093750000000e-01,4.069213867187500000e-01,7.589721679687500000e-01
-1.000000000000000000e+00,-6.000000000000000000e+00,-4.000000000000000000e+00,-2.000000000000000000e+00,-3.000000000000000000e+00,-1.000000000000000000e+00,0.000000000000000000e+00,-1.000000000000000000e+00,-2.894287109375000000e-01,4.177246093750000000e-01,4.069213867187500000e-01,7.589721679687500000e-01
-1.000000000000000000e+00,-3.000000000000000000e+00,-1.000000000000000000e+00,-9.000000000000000000e+00,-2.000000000000000000e+00,-3.000000000000000000e+00,0.000000000000000000e+00,0.000000000000000000e+00,-2.894287109375000000e-01,4.177246093750000000e-01,4.069213867187500000e-01,7.589721679687500000e-01
-1.000000000000000000e+00,-2.000000000000000000e+00,3.000000000000000000e+00,9.000000000000000000e+00,2.000000000000000000e+00,2.000000000000000000e+00,-1.000000000000000000e+00,0.000000000000000000e+00,-2.894287109375000000e-01,4.177246093750000000e-01,4.068603515625000000e-01,7.590332031250000000e-01
-2.000000000000000000e+00,-5.000000000000000000e+00,-1.600000000000000000e+01,-6.000000000000000000e+00,-5.000000000000000000e+00,-1.000000000000000000e+00,-1.000000000000000000e+00,-2.000000000000000000e+00,-2.894287109375000000e-01,4.177246093750000000e-01,4.068603515625000000e-01,7.590332031250000000e-01
0.000000000000000000e+00,5.000000000000000000e+00,1.000000000000000000e+00,1.000000000000000000e+01,2.000000000000000000e+00,-1.000000000000000000e+00,-2.000000000000000000e+00,0.000000000000000000e+00,-2.894287109375000000e-01,4.177246093750000000e-01,4.068603515625000000e-01,7.590332031250000000e-01
-3.000000000000000000e+00,-9.000000000000000000e+00,-2.000000000000000000e+00,3.000000000000000000e+00,0.000000000000000000e+00,1.000000000000000000e+00,-2.000000000000000000e+00,-1.000000000000000000e+00,-2.894287109375000000e-01,4.177246093750000000e-01,4.068603515625000000e-01,7.590332031250000000e-01
2.000000000000000000e+00,1.600000000000000000e+01,1.600000000000000000e+01,2.000000000000000000e+00,-1.000000000000000000e+00,0.000000000000000000e+00,0.000000000000000000e+00,2.000000000000000000e+00,-2.894287109375000000e-01,4.176635742187500000e-01,4.068603515625000000e-01,7.590332031250000000e-01
-2.000000000000000000e+00,-2.000000000000000000e+00,6.000000000000000000e+00,-4.000000000000000000e+00,1.000000000000000000e+00,-2.000000000000000000e+00,0.000000000000000000e+00,-2.000000000000000000e+00,-2.894287109375000000e-01,4.176635742187500000e-01,4.068603515625000000e-01,7.590332031250000000e-01
-3.000000000000000000e+00,-5.000000000000000000e+00,-1.200000000000000000e+01,-3.000000000000000000e+00,-3.000000000000000000e+00,-1.000000000000000000e+00,-4.000000000000000000e+00,-2.000000000000000000e+00,-2.894287109375000000e-01,4.176635742187500000e-01,4.068603515625000000e-01,7.590332031250000000e-01
-4.000000000000000000e+00,0.000000000000000000e+00,5.000000000000000000e+00,-9.000000000000000000e+00,-2.000000000000000000e+00,-2.000000000000000000e+00,-4.000000000000000000e+00,-2.000000000000000000e+00,-2.894287109375000000e-01,4.176635742187500000e-01,4.068603515625000000e-01,7.590332031250000000e-01
1.000000000000000000e+00,-1.000000000000000000e+00,-6.000000000000000000e+00,2.000000000000000000e+00,-2.000000000000000000e+00,1.000000000000000000e+00,0.000000000000000000e+00,0.000000000000000000e+00,-2.892456054687500000e-01,4.177856445312500000e-01,4.067993164062500000e-01,7.590942382812500000e-01
2.000000000000000000e+00,5.000000000000000000e+00,-5.000000000000000000e+00,4.000000000000000000e+00,-3.000000000000000000e+00,-2.000000000000000000e+00,-2.000000000000000000e+00,0.000000000000000000e+00,-2.892456054687500000e-01,4.177856445312500000e-01,4.067993164062500000e-01,7.590942382812500000e-01
-2.000000000000000000e+00,-1.000000000000000000e+01,-3.000000000000000000e+00,-1.400000000000000000e+01,-3.000000000000000000e+00,-3.000000000000000000e+00,1.000000000000000000e+00,-1.000000000000000000e+00,-2.892456054687500000e-01,4.177856445312500000e-01,4.067993164062500000e-01,7.590942382812500000e-01
2.000000000000000000e+00,-3.000000000000000000e+00,-1.000000000000000000e+00,0.000000000000000000e+00,3.000000000000000000e+00,0.000000000000000000e+00,-1.000000000000000000e+00,-1.000000000000000000e+00,-2.892456054687500000e-01,4.177856445312500000e-01,4.067993164062500000e-01,7.590942382812500000e-01
-2.000000000000000000e+00,1.100000000000000000e+01,6.000000000000000000e+00,1.000000000000000000e+00,-2.000000000000000000e+00,-3.000000000000000000e+00,-1.000000000000000000e+00,-2.000000000000000000e+00,-2.892456054687500000e-01,4.178466796875000000e-01,4.067993164062500000e-01,7.590942382812500000e-01
-2.000000000000000000e+00,-7.000000000000000000e+00,-2.000000000000000000e+00,-1.000000000000000000e+00,-2.000000000000000000e+00,0.000000000000000000e+00,0.000000000000000000e+00,-2.000000000000000000e+00,-2.892456054687500000e-01,4.178466796875000000e-01,4.067993164062500000e-01,7.590942382812500000e-01
0.000000000000000000e+00,-1.000000000000000000e+00,-4.000000000000000000e+00,5.000000000000000000e+00,1.000000000000000000e+00,0.000000000000000000e+00,1.000000000000000000e+00,-1.000000000000000000e+00,-2.892456054687500000e-01,4.178466796875000000e-01,4.067993164062500000e-01,7.590942382812500000e-01
1.000000000000000000e+00,-2.000000000000000000e+00,1.100000000000000000e+01,4.000000000000000000e+00,-2.000000000000000000e+00,-1.000000000000000000e+00,-1.000000000000000000e+00,2.000000000000000000e+00,-2.892456054687500000e-01,4.178466796875000000e-01,4.067993164062500000e-01,7.590942382812500000e-01
0.000000000000000000e+00,-2.000000000000000000e+00,-2.400000000000000000e+01,-1.400000000000000000e+01,-1.000000000000000000e+00,-3.000000000000000000e+00,-1.000000000000000000e+00,-1.000000000000000000e+00,-2.892456054687500000e-01,4.177856445312500000e-01,4.067993164062500000e-01,7.590942382812500000e-01
-3.000000000000000000e+00,-7.000000000000000000e+00,-8.000000000000000000e+00,-3.000000000000000000e+00,-4.000000000000000000e+00,-1.000000000000000000e+00,-2.000000000000000000e+00,-4.000000000000000000e+00,-2.892456054687500000e-01,4.177856445312500000e-01,4.067993164062500000e-01,7.590942382812500000e-01
2.000000000000000000e+00,1.300000000000000000e+01,1.300000000000000000e+01,5.000000000000000000e+00,1.000000000000000000e+00,-2.000000000000000000e+00,-1.000000000000000000e+00,0.000000000000000000e+00,-2.892456054687500000e-01,4.177856445312500000e-01,4.067993164062500000e-01,7.590942382812500000e-01
-1.000000000000000000e+00,4.000000000000000000e+00,-2.000000000000000000e+00,3.000000000000000000e+00,-2.000000000000000000e+00,0.000000000000000000e+00,-3.000000000000000000e+00,-2.000000000000000000e+00,-2.892456054687500000e-01,4.177856445312500000e-01,4.067993164062500000e-01,7.590942382812500000e-01
-4.000000000000000000e+00,-7.000000000000000000e+00,3.000000000000000000e+00,4.000000000000000000e+00,-2.000000000000000000e+00,1.000000000000000000e+00,0.000000000000000000e+00,-1.000000000000000000e+00,-2.892456054687500000e-01,4.177856445312500000e-01,4.067993164062500000e-01,7.590942382812500000e-01
1.000000000000000000e+00,3.000000000000000000e+00,2.000000000000000000e+00,-2.000000000000000000e+00,2.000000000000000000e+00,-2.000000000000000000e+00,0.000000000000000000e+00,2.000000000000000000e+00,-2.892456054687500000e-01,4.177856445312500000e-01,4.067993164062500000e-01,7.590942382812500000e-01
-4.000000000000000000e+00,-6.000000000000000000e+00,1.000000000000000000e+00,0.000000000000000000e+00,-1.000000000000000000e+00,-1.000000000000000000e+00,-2.000000000000000000e+00,-4.000000000000000000e+00,-2.892456054687500000e-01,4.177856445312500000e-01,4.067993164062500000e-01,7.590942382812500000e-01
3.000000000000000000e+00,1.000000000000000000e+00,-1.000000000000000000e+01,-6.000000000000000000e+00,0.000000000000000000e+00,0.000000000000000000e+00,2.000000000000000000e+00,1.000000000000000000e+00,-2.892456054687500000e-01,4.177856445312500000e-01,4.067993164062500000e-01,7.590942382812500000e-01
0.000000000000000000e+00,-1.000000000000000000e+01,6.000000000000000000e+00,4.000000000000000000e+00,0.000000000000000000e+00,0.000000000000000000e+00,0.000000000000000000e+00,-1.000000000000000000e+00,-2.892456054687500000e-01,4.177856445312500000e-01,4.067993164062500000e-01,7.590942382812500000e-01
-1.000000000000000000e+00,7.000000000000000000e+00,-2.000000000000000000e+00,-4.000000000000000000e+00,-2.000000000000000000e+00,0.000000000000000000e+00,-1.000000000000000000e+00,0.000000000000000000e+00,-2.892456054687500000e-01,4.177856445312500000e-01,4.067993164062500000e-01,7.590942382812500000e-01
-1.000000000000000000e+00,9.000000000000000000e+00,4.000000000000000000e+00,-1.000000000000000000e+00,-4.000000000000000000e+00,1.000000000000000000e+00,0.000000000000000000e+00,1.000000000000000000e+00,-2.892456054687500000e-01,4.177856445312500000e-01,4.067993164062500000e-01,7.590942382812500000e-01
-2.000000000000000000e+00,-6.000000000000000000e+00,-5.000000000000000000e+00,-1.000000000000000000e+00,-1.000000000000000000e+00,-2.000000000000000000e+00,-2.000000000000000000e+00,-1.000000000000000000e+00,-2.892456054687500000e-01,4.177856445312500000e-01,4.067993164062500000e-01,7.590942382812500000e-01
-4.000000000000000000e+00,-8.000000000000000000e+00,-7.000000000000000000e+00,4.000000000000000000e+00,3.000000000000000000e+00,3.000000000000000000e+00,1.000000000000000000e+00,-3.000000000000000000e+00,-2.891845703125000000e-01,4.179687500000000000e-01,4.064941406250000000e-01,7.592163085937500000e-01
0.000000000000000000e+00,0.000000000000000000e+00,-4.000000000000000000e+00,-4.000000000000000000e+00,0.000000000000000000e+00,-1.000000000000000000e+00,1.000000000000000000e+00,-1.000000000000000000e+00,-2.891845703125000000e-01,4.179687500000000000e-01,4.064941406250000000e-01,7.592163085937500000e-01
-1.000000000000000000e+00,1.000000000000000000e+00,1.000000000000000000e+00,0.000000000000000000e+00,-1.000000000000000000e+00,-1.000000000000000000e+00,0.000000000000000000e+00,-1.000000000000000000e+00,-2.891845703125000000e-01,4.179687500000000000e-01,4.064941406250000000e-01,7.592163085937500000e-01
-3.000000000000000000e+00,-1.000000000000000000e+01,-1.000000000000000000e+01,-4.000000000000000000e+00,-1.000000000000000000e+00,0.000000000000000000e+00,0.000000000000000000e+00,-1.000000000000000000e+00,-2.891845703125000000e-01,4.179687500000000000e-01,4.064941406250000000e-01,7.592163085937500000e-01
0.000000000000000000e+00,8.000000000000000000e+00,1.000000000000000000e+00,-7.000000000000000000e+00,-5.000000000000000000e+00,-4.000000000000000000e+00,-2.000000000000000000e+00,-1.000000000000000000e+00,-2.891845703125000000e-01,4.179687500000000000e-01,4.064331054687500000e-01,7.592163085937500000e-01
0.000000000000000000e+00,-1.000000000000000000e+00,2.800000000000000000e+01,1.300000000000000000e+01,0.000000000000000000e+00,-2.000000000000000000e+00,0.000000000000000000e+00,0.000000000000000000e+00,-2.891845703125000000e-01,4.179687500000000000e-01,4.064331054687500000e-01,7.592163085937500000e-01
3.000000000000000000e+00,1.100000000000000000e+01,-1.200000000000000000e+01,-2.000000000000000000e+00,1.000000000000000000e+00,1.000000000000000000e+00,1.000000000000000000e+00,2.000000000000000000e+00,-2.891845703125000000e-01,4.179687500000000000e-01,4.064331054687500000e-01,7.592163085937500000e-01
1.000000000000000000e+00,-5.000000000000000000e+00,-1.000000000000000000e+00,-4.000000000000000000e+00,-2.000000000000000000e+00,-1.000000000000000000e+00,0.000000000000000000e+00,-1.000000000000000000e+00,-2.891845703125000000e-01,4.179687500000000000e-01,4.064331054687500000e-01,7.592163085937500000e-01
-3.000000000000000000e+00,-6.000000000000000000e+00,-3.000000000000000000e+00,2.000000000000000000e+00,0.000000000000000000e+00,0.000000000000000000e+00,-4.000000000000000000e+00,-2.000000000000000000e+00,-2.892456054687500000e-01,4.179077148437500000e-01,4.066162109375000000e-01,7.590942382812500000e-01
-3.000000000000000000e+00,-4.000000000000000000e+00,-4.000000000000000000e+00,-1.100000000000000000e+01,-5.000000000000000000e+00,-2.000000000000000000e+00,-2.000000000000000000e+00,-1.000000000000000000e+00,-2.892456054687500000e-01,4.179077148437500000e-01,4.066162109375000000e-01,7.590942382812500000e-01
-2.000000000000000000e+00,0.000000000000000000e+00,9.000000000000000000e+00,8.000000000000000000e+00,1.000000000000000000e+00,-5.000000000000000000e+00,-3.000000000000000000e+00,-3.000000000000000000e+00,-2.892456054687500000e-01,4.179077148437500000e-01,4.066162109375000000e-01,7.590942382812500000e-01
0.000000000000000000e+00,-1.000000000000000000e+01,-4.000000000000000000e+00,3.000000000000000000e+00,1.000000000000000000e+00,1.000000000000000000e+00,1.000000000000000000e+00,1.000000000000000000e+00,-2.892456054687500000e-01,4.179077148437500000e-01,4.066162109375000000e-01,7.590942382812500000e-01
0.000000000000000000e+00,1.800000000000000000e+01,1.000000000000000000e+00,-3.000000000000000000e+00,2.000000000000000000e+00,2.000000000000000000e+00,-1.000000000000000000e+00,0.000000000000000000e+00,-2.893066406250000000e-01,4.176635742187500000e-01,4.070434570312500000e-01,7.589721679687500000e-01
-1.000000000000000000e+00,-5.000000000000000000e+00,-2.000000000000000000e+00,-2.000000000000000000e+00,0.000000000000000000e+00,0.000000000000000000e+00,-1.000000000000000000e+00,0.000000000000000000e+00,-2.893066406250000000e-01,4.176635742187500000e-01,4.070434570312500000e-01,7.589721679687500000e-01
1.000000000000000000e+00,0.000000000000000000e+00,-2.000000000000000000e+00,-3.000000000000000000e+00,-6.000000000000000000e+00,-1.000000000000000000e+00,1.000000000000000000e+00,1.000000000000000000e+00,-2.893066406250000000e-01,4.176635742187500000e-01,4.070434570312500000e-01,7.589721679687500000e-01
-3.000000000000000000e+00,4.000000000000000000e+00,4.000000000000000000e+00,0.000000000000000000e+00,2.000000000000000000e+00,-2.000000000000000000e+00,-2.000000000000000000e+00,-1.000000000000000000e+00,-2.893066406250000000e-01,4.176635742187500000e-01,4.070434570312500000e-01,7.589721679687500000e-01
1.000000000000000000e+00,6.000000000000000000e+00,3.000000000000000000e+00,-1.000000000000000000e+00,-1.000000000000000000e+00,-4.000000000000000000e+00,1.000000000000000000e+00,-1.000000000000000000e+00,-2.893676757812500000e-01,4.173583984375000000e-01,4.072875976562500000e-01,7.590332031250000000e-01
-6.000000000000000000e+00,-1.900000000000000000e+01,-7.000000000000000000e+00,-4.000000000000000000e+00,-2.000000000000000000e+00,-1.000000000000000000e+00,-2.000000000000000000e+00,-2.000000000000000000e+00,-2.893676757812500000e-01,4.173583984375000000e-01,4.072875976562500000e-01,7.590332031250000000e-01
0.000000000000000000e+00,-4.000000000000000000e+00,-1.300000000000000000e+01,-6.000000000000000000e+00,-2.000000000000000000e+00,-1.000000000000000000e+00,-2.000000000000000000e+00,-1.000000000000000000e+00,-2.893676757812500000e-01,4.173583984375000000e-01,4.072875976562500000e-01,7.590332031250000000e-01
1.000000000000000000e+00,1.100000000000000000e+01,1.000000000000000000e+00,-1.000000000000000000e+00,-1.000000000000000000e+00,0.000000000000000000e+00,-2.000000000000000000e+00,-1.000000000000000000e+00,-2.893676757812500000e-01,4.173583984375000000e-01,4.072875976562500000e-01,7.590332031250000000e-01
1.000000000000000000e+00,-4.000000000000000000e+00,1.100000000000000000e+01,3.000000000000000000e+00,2.000000000000000000e+00,1.000000000000000000e+00,1.000000000000000000e+00,0.000000000000000000e+00,-2.891845703125000000e-01,4.172363281250000000e-01,4.073486328125000000e-01,7.591552734375000000e-01
-3.000000000000000000e+00,-2.000000000000000000e+00,-4.000000000000000000e+00,-3.000000000000000000e+00,-1.000000000000000000e+00,0.000000000000000000e+00,0.000000000000000000e+00,-1.000000000000000000e+00,-2.891845703125000000e-01,4.172363281250000000e-01,4.073486328125000000e-01,7.591552734375000000e-01
1.000000000000000000e+00,4.000000000000000000e+00,-1.900000000000000000e+01,-1.000000000000000000e+01,1.000000000000000000e+00,1.000000000000000000e+00,0.000000000000000000e+00,1.000000000000000000e+00,-2.891845703125000000e-01,4.172363281250000000e-01,4.073486328125000000e-01,7.591552734375000000e-01
-3.000000000000000000e+00,-3.000000000000000000e+00,8.000000000000000000e+00,9.000000000000000000e+00,-3.000000000000000000e+00,-3.000000000000000000e+00,0.000000000000000000e+00,-1.000000000000000000e+00,-2.891845703125000000e-01,4.172363281250000000e-01,4.073486328125000000e-01,7.591552734375000000e-01
1.000000000000000000e+00,-1.200000000000000000e+01,-1.800000000000000000e+01,-2.000000000000000000e+00,-5.000000000000000000e+00,-3.000000000000000000e+00,-3.000000000000000000e+00,1.000000000000000000e+00,-2.888793945312500000e-01,4.173583984375000000e-01,4.072875976562500000e-01,7.592163085937500000e-01
-1.000000000000000000e+00,3.200000000000000000e+01,2.500000000000000000e+01,2.000000000000000000e+00,0.000000000000000000e+00,-1.000000000000000000e+00,-2.000000000000000000e+00,-1.000000000000000000e+00,-2.888793945312500000e-01,4.173583984375000000e-01,4.072875976562500000e-01,7.592163085937500000e-01
-3.000000000000000000e+00,-1.700000000000000000e+01,1.000000000000000000e+00,-3.000000000000000000e+00,0.000000000000000000e+00,1.000000000000000000e+00,1.000000000000000000e+00,0.000000000000000000e+00,-2.888793945312500000e-01,4.173583984375000000e-01,4.072875976562500000e-01,7.592163085937500000e-01
-3.000000000000000000e+00,0.000000000000000000e+00,-7.000000000000000000e+00,-3.000000000000000000e+00,0.000000000000000000e+00,-4.000000000000000000e+00,-3.000000000000000000e+00,-3.000000000000000000e+00,-2.888793945312500000e-01,4.173583984375000000e-01,4.072875976562500000e-01,7.592163085937500000e-01
-2.000000000000000000e+00,-8.000000000000000000e+00,-6.000000000000000000e+00,0.000000000000000000e+00,-2.000000000000000000e+00,-1.000000000000000000e+00,0.000000000000000000e+00,-3.000000000000000000e+00,-2.884521484375000000e-01,4.173583984375000000e-01,4.074707031250000000e-01,7.592773437500000000e-01
2.000000000000000000e+00,-2.000000000000000000e+00,-3.000000000000000000e+00,4.000000000000000000e+00,-3.000000000000000000e+00,-1.000000000000000000e+00,-1.000000000000000000e+00,-1.000000000000000000e+00,-2.884521484375000000e-01,4.173583984375000000e-01,4.074707031250000000e-01,7.592773437500000000e-01
2.000000000000000000e+00,1.200000000000000000e+01,-1.000000000000000000e+00,-3.000000000000000000e+00,-6.000000000000000000e+00,-2.000000000000000000e+00,-2.000000000000000000e+00,-1.000000000000000000e+00,-2.884521484375000000e-01,4.173583984375000000e-01,4.074707031250000000e-01,7.592773437500000000e-01
-1.000000000000000000e+00,-6.000000000000000000e+00,-1.100000000000000000e+01,-1.200000000000000000e+01,0.000000000000000000e+00,1.000000000000000000e+00,0.000000000000000000e+00,0.000000000000000000e+00,-2.884521484375000000e-01,4.173583984375000000e-01,4.074707031250000000e-01,7.592773437500000000e-01
-2.000000000000000000e+00,-1.000000000000000000e+01,-4.000000000000000000e+00,5.000000000000000000e+00,2.000000000000000000e+00,-2.000000000000000000e+00,-2.000000000000000000e+00,2.000000000000000000e+00,-2.885742187500000000e-01,4.169921875000000000e-01,4.080200195312500000e-01,7.591552734375000000e-01
-2.000000000000000000e+00,-4.000000000000000000e+00,-7.000000000000000000e+00,-2.000000000000000000e+00,-1.000000000000000000e+00,0.000000000000000000e+00,-3.000000000000000000e+00,-1.000000000000000000e+00,-2.885742187500000000e-01,4.169921875000000000e-01,4.080200195312500000e-01,7.591552734375000000e-01
-1.000000000000000000e+00,8.000000000000000000e+00,7.000000000000000000e+00,7.000000000000000000e+00,1.000000000000000000e+00,1.000000000000000000e+00,0.000000000000000000e+00,-2.000000000000000000e+00,-2.885742187500000000e-01,4.169921875000000000e-01,4.080200195312500000e-01,7.591552734375000000e-01
-4.000000000000000000e+00,-1.600000000000000000e+01,1.200000000000000000e+01,-5.000000000000000000e+00,-3.000000000000000000e+00,-1.000000000000000000e+00,-2.000000000000000000e+00,-2.000000000000000000e+00,-2.885742187500000000e-01,4.169921875000000000e-01,4.080200195312500000e-01,7.591552734375000000e-01
