7.000000000000000000e+00,4.000000000000000000e+00,3.000000000000000000e+00,-3.000000000000000000e+00,-5.000000000000000000e+00,-1.000000000000000000e+00,-1.000000000000000000e+00,-1.000000000000000000e+00,-2.706909179687500000e-01,3.865356445312500000e-01,3.005981445312500000e-01,8.287963867187500000e-01
-2.000000000000000000e+01,-2.000000000000000000e+00,1.100000000000000000e+01,5.000000000000000000e+00,-2.000000000000000000e+00,-1.000000000000000000e+00,1.000000000000000000e+00,3.000000000000000000e+00,-2.706909179687500000e-01,3.865356445312500000e-01,3.005981445312500000e-01,8.287963867187500000e-01
4.000000000000000000e+00,-3.000000000000000000e+00,0.000000000000000000e+00,4.000000000000000000e+00,4.000000000000000000e+00,0.000000000000000000e+00,-2.000000000000000000e+00,-3.000000000000000000e+00,-2.706909179687500000e-01,3.865356445312500000e-01,3.005981445312500000e-01,8.287963867187500000e-01
1.000000000000000000e+00,-1.000000000000000000e+00,-2.200000000000000000e+01,-4.000000000000000000e+00,2.000000000000000000e+00,-1.000000000000000000e+00,0.000000000000000000e+00,-1.000000000000000000e+00,-2.706909179687500000e-01,3.865356445312500000e-01,3.005981445312500000e-01,8.287963867187500000e-01
-1.000000000000000000e+00,-3.000000000000000000e+00,-6.000000000000000000e+00,-6.000000000000000000e+00,-7.000000000000000000e+00,-4.000000000000000000e+00,-2.000000000000000000e+00,-1.000000000000000000e+00,-2.704467773437500000e-01,3.864135742187500000e-01,3.004760742187500000e-01,8.289794921875000000e-01
1.000000000000000000e+01,3.000000000000000000e+00,-1.000000000000000000e+00,0.000000000000000000e+00,1.000000000000000000e+00,2.000000000000000000e+00,0.000000000000000000e+00,0.000000000000000000e+00,-2.704467773437500000e-01,3.864135742187500000e-01,3.004760742187500000e-01,8.289794921875000000e-01
-1.600000000000000000e+01,-8.000000000000000000e+00,-1.000000000000000000e+00,-4.000000000000000000e+00,-4.000000000000000000e+00,-1.000000000000000000e+00,0.000000000000000000e+00,-1.000000000000000000e+00,-2.704467773437500000e-01,3.864135742187500000e-01,3.004760742187500000e-01,8.289794921875000000e-01
1.000000000000000000e+00,3.000000000000000000e+00,3.000000000000000000e+00,-1.000000000000000000e+00,-5.000000000000000000e+00,-3.000000000000000000e+00,-4.000000000000000000e+00,-2.000000000000000000e+00,-2.704467773437500000e-01,3.864135742187500000e-01,3.004760742187500000e-01,8.289794921875000000e-01
-1.000000000000000000e+00,1.000000000000000000e+00,1.600000000000000000e+01,-2.000000000000000000e+00,-3.000000000000000000e+00,-1.000000000000000000e+00,1.000000000000000000e+00,-2.000000000000000000e+00,-2.703857421875000000e-01,3.861083984375000000e-01,3.004150390625000000e-01,8.291625976562500000e-01
4.000000000000000000e+00,-2.000000000000000000e+00,-1.900000000000000000e+01,-2.000000000000000000e+00,6.000000000000000000e+00,0.000000000000000000e+00,2.000000000000000000e+00,3.000000000000000000e+00,-2.703857421875000000e-01,3.861083984375000000e-01,3.004150390625000000e-01,8.291625976562500000e-01
6.000000000000000000e+00,0.000000000000000000e+00,2.000000000000000000e+00,-1.000000000000000000e+00,-2.000000000000000000e+00,-1.000000000000000000e+00,-2.000000000000000000e+00,0.000000000000000000e+00,-2.703857421875000000e-01,3.861083984375000000e-01,3.004150390625000000e-01,8.291625976562500000e-01
3.000000000000000000e+00,-1.000000000000000000e+00,-1.000000000000000000e+01,-3.000000000000000000e+00,-2.000000000000000000e+00,-2.000000000000000000e+00,-2.000000000000000000e+00,0.000000000000000000e+00,-2.703857421875000000e-01,3.861083984375000000e-01,3.004150390625000000e-01,8.291625976562500000e-01
-1.200000000000000000e+01,-3.000000000000000000e+00,4.000000000000000000e+00,1.000000000000000000e+00,-1.000000000000000000e+00,-2.000000000000000000e+00,-5.000000000000000000e+00,-4.000000000000000000e+00,-2.703857421875000000e-01,3.859863281250000000e-01,3.003540039062500000e-01,8.292236328125000000e-01
2.000000000000000000e+00,-3.000000000000000000e+00,5.000000000000000000e+00,-7.000000000000000000e+00,-1.000000000000000000e+00,1.000000000000000000e+00,-1.000000000000000000e+00,-2.000000000000000000e+00,-2.703857421875000000e-01,3.859863281250000000e-01,3.003540039062500000e-01,8.292236328125000000e-01
-3.000000000000000000e+00,-1.000000000000000000e+00,-8.000000000000000000e+00,1.000000000000000000e+00,1.000000000000000000e+00,-1.000000000000000000e+00,1.000000000000000000e+00,-3.000000000000000000e+00,-2.703857421875000000e-01,3.859863281250000000e-01,3.003540039062500000e-01,8.292236328125000000e-01
3.000000000000000000e+00,1.000000000000000000e+00,1.200000000000000000e+01,-1.000000000000000000e+00,0.000000000000000000e+00,-1.000000000000000000e+00,-1.000000000000000000e+00,-2.000000000000000000e+00,-2.703857421875000000e-01,3.859863281250000000e-01,3.003540039062500000e-01,8.292236328125000000e-01
-2.000000000000000000e+00,-2.000000000000000000e+00,-2.900000000000000000e+01,-4.000000000000000000e+00,-9.000000000000000000e+00,-2.000000000000000000e+00,0.000000000000000000e+00,-2.000000000000000000e+00,-2.703247070312500000e-01,3.859863281250000000e-01,3.004150390625000000e-01,8.292236328125000000e-01
3.000000000000000000e+00,2.000000000000000000e+00,1.000000000000000000e+00,5.000000000000000000e+00,5.000000000000000000e+00,0.000000000000000000e+00,1.000000000000000000e+00,0.000000000000000000e+00,-2.703247070312500000e-01,3.859863281250000000e-01,3.004150390625000000e-01,8.292236328125000000e-01
-1.800000000000000000e+01,-5.000000000000000000e+00,1.000000000000000000e+00,-5.000000000000000000e+00,-4.000000000000000000e+00,-4.000000000000000000e+00,-1.000000000000000000e+00,-1.000000000000000000e+00,-2.703247070312500000e-01,3.859863281250000000e-01,3.004150390625000000e-01,8.292236328125000000e-01
5.000000000000000000e+00,0.000000000000000000e+00,-1.100000000000000000e+01,-5.000000000000000000e+00,-5.000000000000000000e+00,-1.000000000000000000e+00,0.000000000000000000e+00,0.000000000000000000e+00,-2.703247070312500000e-01,3.859863281250000000e-01,3.004150390625000000e-01,8.292236328125000000e-01
-1.400000000000000000e+01,-8.000000000000000000e+00,-7.000000000000000000e+00,-6.000000000000000000e+00,-5.000000000000000000e+00,-3.000000000000000000e+00,-3.000000000000000000e+00,-3.000000000000000000e+00,-2.703857421875000000e-01,3.858642578125000000e-01,3.002319335937500000e-01,8.293457031250000000e-01
0.000000000000000000e+00,1.000000000000000000e+00,5.000000000000000000e+00,1.000000000000000000e+00,3.000000000000000000e+00,-2.000000000000000000e+00,-5.000000000000000000e+00,-3.000000000000000000e+00,-2.703857421875000000e-01,3.858642578125000000e-01,3.002319335937500000e-01,8.293457031250000000e-01
9.000000000000000000e+00,2.000000000000000000e+00,-6.000000000000000000e+00,0.000000000000000000e+00,0.000000000000000000e+00,-1.000000000000000000e+00,-1.000000000000000000e+00,-1.000000000000000000e+00,-2.703857421875000000e-01,3.858642578125000000e-01,3.002319335937500000e-01,8.293457031250000000e-01
7.000000000000000000e+00,3.000000000000000000e+00,1.300000000000000000e+01,-2.000000000000000000e+00,-5.000000000000000000e+00,-1.000000000000000000e+00,-4.000000000000000000e+00,-2.000000000000000000e+00,-2.703857421875000000e-01,3.858642578125000000e-01,3.002319335937500000e-01,8.293457031250000000e-01
-1.500000000000000000e+01,-7.000000000000000000e+00,1.000000000000000000e+00,3.000000000000000000e+00,1.000000000000000000e+00,1.000000000000000000e+00,0.000000000000000000e+00,2.000000000000000000e+00,-2.703857421875000000e-01,3.858032226562500000e-01,3.002319335937500000e-01,8.293457031250000000e-01
5.000000000000000000e+00,3.000000000000000000e+00,-9.000000000000000000e+00,-3.000000000000000000e+00,-3.000000000000000000e+00,-1.000000000000000000e+00,0.000000000000000000e+00,1.000000000000000000e+00,-2.703857421875000000e-01,3.858032226562500000e-01,3.002319335937500000e-01,8.293457031250000000e-01
2.000000000000000000e+00,-1.000000000000000000e+00,1.200000000000000000e+01,0.000000000000000000e+00,-1.000000000000000000e+00,-2.000000000000000000e+00,-3.000000000000000000e+00,-3.000000000000000000e+00,-2.703857421875000000e-01,3.858032226562500000e-01,3.002319335937500000e-01,8.293457031250000000e-01
-7.000000000000000000e+00,-2.000000000000000000e+00,0.000000000000000000e+00,4.000000000000000000e+00,5.000000000000000000e+00,-1.000000000000000000e+00,2.000000000000000000e+00,-2.000000000000000000e+00,-2.703857421875000000e-01,3.858032226562500000e-01,3.002319335937500000e-01,8.293457031250000000e-01
8.000000000000000000e+00,1.000000000000000000e+00,-1.000000000000000000e+00,3.000000000000000000e+00,3.000000000000000000e+00,0.000000000000000000e+00,0.000000000000000000e+00,1.000000000000000000e+00,-2.703857421875000000e-01,3.858642578125000000e-01,3.002929687500000000e-01,8.293457031250000000e-01
-1.000000000000000000e+00,-3.000000000000000000e+00,8.000000000000000000e+00,-6.000000000000000000e+00,-4.000000000000000000e+00,-2.000000000000000000e+00,-3.000000000000000000e+00,-3.000000000000000000e+00,-2.703857421875000000e-01,3.858642578125000000e-01,3.002929687500000000e-01,8.293457031250000000e-01
1.000000000000000000e+00,0.000000000000000000e+00,1.000000000000000000e+00,1.000000000000000000e+00,-2.000000000000000000e+00,2.000000000000000000e+00,-1.000000000000000000e+00,0.000000000000000000e+00,-2.703857421875000000e-01,3.858642578125000000e-01,3.002929687500000000e-01,8.293457031250000000e-01
-5.000000000000000000e+00,-1.000000000000000000e+00,7.000000000000000000e+00,0.000000000000000000e+00,4.000000000000000000e+00,0.000000000000000000e+00,2.000000000000000000e+00,-1.000000000000000000e+00,-2.703857421875000000e-01,3.858642578125000000e-01,3.002929687500000000e-01,8.293457031250000000e-01
4.000000000000000000e+00,2.000000000000000000e+00,-1.800000000000000000e+01,-3.000000000000000000e+00,1.000000000000000000e+00,-3.000000000000000000e+00,-2.000000000000000000e+00,-2.000000000000000000e+00,-2.705688476562500000e-01,3.857421875000000000e-01,3.002929687500000000e-01,8.292846679687500000e-01
-2.000000000000000000e+00,-3.000000000000000000e+00,-5.000000000000000000e+00,-1.000000000000000000e+01,-8.000000000000000000e+00,-4.000000000000000000e+00,-2.000000000000000000e+00,-2.000000000000000000e+00,-2.705688476562500000e-01,3.857421875000000000e-01,3.002929687500000000e-01,8.292846679687500000e-01
1.300000000000000000e+01,6.000000000000000000e+00,-4.000000000000000000e+00,6.000000000000000000e+00,4.000000000000000000e+00,-1.000000000000000000e+00,-2.000000000000000000e+00,1.000000000000000000e+00,-2.705688476562500000e-01,3.857421875000000000e-01,3.002929687500000000e-01,8.292846679687500000e-01
-1.900000000000000000e+01,-8.000000000000000000e+00,0.000000000000000000e+00,-1.200000000000000000e+01,-1.600000000000000000e+01,-4.000000000000000000e+00,-3.000000000000000000e+00,-3.000000000000000000e+00,-2.705688476562500000e-01,3.857421875000000000e-01,3.002929687500000000e-01,8.292846679687500000e-01
-6.000000000000000000e+00,-2.000000000000000000e+00,1.900000000000000000e+01,1.500000000000000000e+01,1.600000000000000000e+01,4.000000000000000000e+00,1.000000000000000000e+00,2.000000000000000000e+00,-2.705688476562500000e-01,3.856201171875000000e-01,3.001708984375000000e-01,8.294067382812500000e-01
3.000000000000000000e+00,1.000000000000000000e+00,-1.000000000000000000e+00,1.900000000000000000e+01,1.300000000000000000e+01,3.000000000000000000e+00,3.000000000000000000e+00,1.000000000000000000e+00,-2.705688476562500000e-01,3.856201171875000000e-01,3.001708984375000000e-01,8.294067382812500000e-01
1.000000000000000000e+00,2.000000000000000000e+00,-3.000000000000000000e+00,-5.000000000000000000e+00,1.000000000000000000e+00,-1.000000000000000000e+00,-2.000000000000000000e+00,-1.000000000000000000e+00,-2.705688476562500000e-01,3.856201171875000000e-01,3.001708984375000000e-01,8.294067382812500000e-01
-1.300000000000000000e+01,-8.000000000000000000e+00,-1.300000000000000000e+01,-4.000000000000000000e+00,-4.000000000000000000e+00,-2.000000000000000000e+00,-1.000000000000000000e+00,-3.000000000000000000e+00,-2.705688476562500000e-01,3.856201171875000000e-01,3.001708984375000000e-01,8.294067382812500000e-01
3.000000000000000000e+00,-2.000000000000000000e+00,1.000000000000000000e+00,-7.000000000000000000e+00,-1.000000000000000000e+01,-3.000000000000000000e+00,0.000000000000000000e+00,0.000000000000000000e+00,-2.703857421875000000e-01,3.856811523437500000e-01,2.996215820312500000e-01,8.296508789062500000e-01
-1.000000000000000000e+00,0.000000000000000000e+00,4.000000000000000000e+00,-4.000000000000000000e+00,-1.000000000000000000e+01,-2.000000000000000000e+00,0.000000000000000000e+00,-2.000000000000000000e+00,-2.703857421875000000e-01,3.856811523437500000e-01,2.996215820312500000e-01,8.296508789062500000e-01
0.000000000000000000e+00,-1.000000000000000000e+00,-5.000000000000000000e+00,4.000000000000000000e+00,7.000000000000000000e+00,3.000000000000000000e+00,1.000000000000000000e+00,-2.000000000000000000e+00,-2.703857421875000000e-01,3.856811523437500000e-01,2.996215820312500000e-01,8.296508789062500000e-01
6.000000000000000000e+00,1.000000000000000000e+00,-2.000000000000000000e+00,1.000000000000000000e+00,4.000000000000000000e+00,2.000000000000000000e+00,1.000000000000000000e+00,2.000000000000000000e+00,-2.703857421875000000e-01,3.856811523437500000e-01,2.996215820312500000e-01,8.296508789062500000e-01
1.000000000000000000e+00,0.000000000000000000e+00,1.000000000000000000e+00,-9.000000000000000000e+00,-5.000000000000000000e+00,-4.000000000000000000e+00,0.000000000000000000e+00,-1.000000000000000000e+00,-2.703857421875000000e-01,3.853759765625000000e-01,2.994384765625000000e-01,8.298339843750000000e-01
3.000000000000000000e+00,-2.000000000000000000e+00,-6.000000000000000000e+00,2.000000000000000000e+00,3.000000000000000000e+00,2.000000000000000000e+00,1.000000000000000000e+00,0.000000000000000000e+00,-2.703857421875000000e-01,3.853759765625000000e-01,2.994384765625000000e-01,8.298339843750000000e-01
0.000000000000000000e+00,0.000000000000000000e+00,5.000000000000000000e+00,-6.000000000000000000e+00,-7.000000000000000000e+00,-3.000000000000000000e+00,-1.000000000000000000e+00,0.000000000000000000e+00,-2.703857421875000000e-01,3.853759765625000000e-01,2.994384765625000000e-01,8.298339843750000000e-01
-2.000000000000000000e+00,1.000000000000000000e+00,9.000000000000000000e+00,9.000000000000000000e+00,6.000000000000000000e+00,2.000000000000000000e+00,0.000000000000000000e+00,-2.000000000000000000e+00,-2.703857421875000000e-01,3.853759765625000000e-01,2.994384765625000000e-01,8.298339843750000000e-01
4.000000000000000000e+00,-3.000000000000000000e+00,-1.000000000000000000e+01,-1.000000000000000000e+00,2.000000000000000000e+00,2.000000000000000000e+00,-3.000000000000000000e+00,-2.000000000000000000e+00,-2.702026367187500000e-01,3.848876953125000000e-01,2.992553710937500000e-01,8.302001953125000000e-01
1.100000000000000000e+01,3.000000000000000000e+00,0.000000000000000000e+00,-2.000000000000000000e+00,-4.000000000000000000e+00,-5.000000000000000000e+00,-4.000000000000000000e+00,-2.000000000000000000e+00,-2.702026367187500000e-01,3.848876953125000000e-01,2.992553710937500000e-01,8.302001953125000000e-01
-1.900000000000000000e+01,-8.000000000000000000e+00,-4.000000000000000000e+00,-6.000000000000000000e+00,-8.000000000000000000e+00,0.000000000000000000e+00,5.000000000000000000e+00,3.000000000000000000e+00,-2.702026367187500000e-01,3.848876953125000000e-01,2.992553710937500000e-01,8.302001953125000000e-01
0.000000000000000000e+00,-4.000000000000000000e+00,2.000000000000000000e+00,-1.000000000000000000e+00,2.000000000000000000e+00,-1.000000000000000000e+00,-2.000000000000000000e+00,-2.000000000000000000e+00,-2.702026367187500000e-01,3.848876953125000000e-01,2.992553710937500000e-01,8.302001953125000000e-01
1.100000000000000000e+01,5.000000000000000000e+00,2.000000000000000000e+00,1.000000000000000000e+00,-2.000000000000000000e+00,-2.000000000000000000e+00,0.000000000000000000e+00,0.000000000000000000e+00,-2.701416015625000000e-01,3.845214843750000000e-01,2.991333007812500000e-01,8.304443359375000000e-01
-1.300000000000000000e+01,-7.000000000000000000e+00,-1.000000000000000000e+00,-1.000000000000000000e+00,6.000000000000000000e+00,-1.000000000000000000e+00,1.000000000000000000e+00,-1.000000000000000000e+00,-2.701416015625000000e-01,3.845214843750000000e-01,2.991333007812500000e-01,8.304443359375000000e-01
0.000000000000000000e+00,-2.000000000000000000e+00,0.000000000000000000e+00,-7.000000000000000000e+00,-1.300000000000000000e+01,-5.000000000000000000e+00,-6.000000000000000000e+00,-3.000000000000000000e+00,-2.701416015625000000e-01,3.845214843750000000e-01,2.991333007812500000e-01,8.304443359375000000e-01
2.000000000000000000e+00,5.000000000000000000e+00,1.100000000000000000e+01,7.000000000000000000e+00,2.000000000000000000e+01,4.000000000000000000e+00,0.000000000000000000e+00,1.000000000000000000e+00,-2.701416015625000000e-01,3.845214843750000000e-01,2.991333007812500000e-01,8.304443359375000000e-01
0.000000000000000000e+00,-3.000000000000000000e+00,-2.100000000000000000e+01,-1.000000000000000000e+01,-1.000000000000000000e+01,0.000000000000000000e+00,0.000000000000000000e+00,-1.000000000000000000e+00,-2.700805664062500000e-01,3.842773437500000000e-01,2.990112304687500000e-01,8.306274414062500000e-01
8.000000000000000000e+00,2.000000000000000000e+00,-4.000000000000000000e+00,8.000000000000000000e+00,-2.000000000000000000e+00,-3.000000000000000000e+00,-1.000000000000000000e+00,0.000000000000000000e+00,-2.700805664062500000e-01,3.842773437500000000e-01,2.990112304687500000e-01,8.306274414062500000e-01
-8.000000000000000000e+00,-5.000000000000000000e+00,-1.400000000000000000e+01,-3.000000000000000000e+00,5.000000000000000000e+00,0.000000000000000000e+00,-1.000000000000000000e+00,-2.000000000000000000e+00,-2.700805664062500000e-01,3.842773437500000000e-01,2.990112304687500000e-01,8.306274414062500000e-01
-3.000000000000000000e+00,-1.000000000000000000e+00,-3.000000000000000000e+00,-7.000000000000000000e+00,-1.200000000000000000e+01,-5.000000000000000000e+00,0.000000000000000000e+00,-1.000000000000000000e+00,-2.700805664062500000e-01,3.842773437500000000e-01,2.990112304687500000e-01,8.306274414062500000e-01
2.000000000000000000e+00,-1.000000000000000000e+00,9.000000000000000000e+00,4.000000000000000000e+00,0.000000000000000000e+00,0.000000000000000000e+00,1.000000000000000000e+00,-1.000000000000000000e+00,-2.700805664062500000e-01,3.842773437500000000e-01,2.990112304687500000e-01,8.306274414062500000e-01
-2.000000000000000000e+00,0.000000000000000000e+00,4.000000000000000000e+00,-6.000000000000000000e+00,-5.000000000000000000e+00,-1.000000000000000000e+00,-1.000000000000000000e+00,0.000000000000000000e+00,-2.700805664062500000e-01,3.842773437500000000e-01,2.990112304687500000e-01,8.306274414062500000e-01
-1.000000000000000000e+00,-1.000000000000000000e+00,-4.000000000000000000e+00,0.000000000000000000e+00,-2.000000000000000000e+00,-1.000000000000000000e+00,-2.000000000000000000e+00,-1.000000000000000000e+00,-2.700805664062500000e-01,3.842773437500000000e-01,2.990112304687500000e-01,8.306274414062500000e-01
-3.000000000000000000e+00,-2.000000000000000000e+00,-6.000000000000000000e+00,-5.000000000000000000e+00,-4.000000000000000000e+00,-2.000000000000000000e+00,-3.000000000000000000e+00,-3.000000000000000000e+00,-2.700805664062500000e-01,3.842773437500000000e-01,2.990112304687500000e-01,8.306274414062500000e-01
-3.000000000000000000e+00,-1.000000000000000000e+00,-4.000000000000000000e+00,-1.000000000000000000e+00,2.000000000000000000e+00,0.000000000000000000e+00,-1.000000000000000000e+00,-1.000000000000000000e+00,-2.704467773437500000e-01,3.840332031250000000e-01,2.990722656250000000e-01,8.305664062500000000e-01
0.000000000000000000e+00,0.000000000000000000e+00,3.000000000000000000e+00,-3.000000000000000000e+00,-4.000000000000000000e+00,-2.000000000000000000e+00,-1.000000000000000000e+00,-1.000000000000000000e+00,-2.704467773437500000e-01,3.840332031250000000e-01,2.990722656250000000e-01,8.305664062500000000e-01
4.000000000000000000e+00,3.000000000000000000e+00,1.000000000000000000e+00,1.000000000000000000e+00,-1.000000000000000000e+00,-1.000000000000000000e+00,-1.000000000000000000e+00,-2.000000000000000000e+00,-2.704467773437500000e-01,3.840332031250000000e-01,2.990722656250000000e-01,8.305664062500000000e-01
0.000000000000000000e+00,-3.000000000000000000e+00,-8.000000000000000000e+00,-2.000000000000000000e+00,-4.000000000000000000e+00,0.000000000000000000e+00,1.000000000000000000e+00,0.000000000000000000e+00,-2.704467773437500000e-01,3.840332031250000000e-01,2.990722656250000000e-01,8.305664062500000000e-01
-5.000000000000000000e+00,-1.000000000000000000e+00,8.000000000000000000e+00,6.000000000000000000e+00,2.000000000000000000e+00,1.000000000000000000e+00,1.000000000000000000e+00,-1.000000000000000000e+00,-2.708129882812500000e-01,3.840942382812500000e-01,2.990112304687500000e-01,8.304443359375000000e-01
8.000000000000000000e+00,4.000000000000000000e+00,0.000000000000000000e+00,-1.200000000000000000e+01,-1.000000000000000000e+01,-2.000000000000000000e+00,-1.000000000000000000e+00,-1.000000000000000000e+00,-2.708129882812500000e-01,3.840942382812500000e-01,2.990112304687500000e-01,8.304443359375000000e-01
-8.000000000000000000e+00,-7.000000000000000000e+00,-6.000000000000000000e+00,1.600000000000000000e+01,8.000000000000000000e+00,3.000000000000000000e+00,-2.000000000000000000e+00,2.000000000000000000e+00,-2.708129882812500000e-01,3.840942382812500000e-01,2.990112304687500000e-01,8.304443359375000000e-01
6.000000000000000000e+00,1.000000000000000000e+00,8.000000000000000000e+00,-2.000000000000000000e+00,1.500000000000000000e+01,1.000000000000000000e+00,1.000000000000000000e+00,3.000000000000000000e+00,-2.708129882812500000e-01,3.840942382812500000e-01,2.990112304687500000e-01,8.304443359375000000e-01
-8.000000000000000000e+00,-1.000000000000000000e+00,0.000000000000000000e+00,0.000000000000000000e+00,-2.000000000000000000e+00,-2.000000000000000000e+00,-3.000000000000000000e+00,-3.000000000000000000e+00,-2.710571289062500000e-01,3.842163085937500000e-01,2.988281250000000000e-01,8.303833007812500000e-01
4.000000000000000000e+00,-1.000000000000000000e+00,-5.000000000000000000e+00,-1.000000000000000000e+00,0.000000000000000000e+00,-1.000000000000000000e+00,1.000000000000000000e+00,-1.000000000000000000e+00,-2.710571289062500000e-01,3.842163085937500000e-01,2.988281250000000000e-01,8.303833007812500000e-01
1.000000000000000000e+00,-1.000000000000000000e+00,-3.000000000000000000e+00,-7.000000000000000000e+00,-6.000000000000000000e+00,0.000000000000000000e+00,-1.000000000000000000e+00,-3.000000000000000000e+00,-2.710571289062500000e-01,3.842163085937500000e-01,2.988281250000000000e-01,8.303833007812500000e-01
-3.000000000000000000e+00,-2.000000000000000000e+00,-6.000000000000000000e+00,4.000000000000000000e+00,-3.000000000000000000e+00,-3.000000000000000000e+00,-3.000000000000000000e+00,2.000000000000000000e+00,-2.710571289062500000e-01,3.842163085937500000e-01,2.988281250000000000e-01,8.303833007812500000e-01
3.000000000000000000e+00,4.000000000000000000e+00,8.000000000000000000e+00,-1.000000000000000000e+00,1.000000000000000000e+00,-3.000000000000000000e+00,0.000000000000000000e+00,0.000000000000000000e+00,-2.714233398437500000e-01,3.844604492187500000e-01,2.985839843750000000e-01,8.302001953125000000e-01
-5.000000000000000000e+00,2.000000000000000000e+00,4.000000000000000000e+00,-4.000000000000000000e+00,-2.000000000000000000e+00,0.000000000000000000e+00,0.000000000000000000e+00,0.000000000000000000e+00,-2.714233398437500000e-01,3.844604492187500000e-01,2.985839843750000000e-01,8.302001953125000000e-01
1.000000000000000000e+00,-3.000000000000000000e+00,-9.000000000000000000e+00,4.000000000000000000e+00,1.000000000000000000e+00,-2.000000000000000000e+00,1.000000000000000000e+00,-2.000000000000000000e+00,-2.714233398437500000e-01,3.844604492187500000e-01,2.985839843750000000e-01,8.302001953125000000e-01
-2.000000000000000000e+00,2.000000000000000000e+00,0.000000000000000000e+00,-2.000000000000000000e+00,-6.000000000000000000e+00,-4.000000000000000000e+00,-1.000000000000000000e+00,-2.000000000000000000e+00,-2.714233398437500000e-01,3.844604492187500000e-01,2.985839843750000000e-01,8.302001953125000000e-01
3.000000000000000000e+00,0.000000000000000000e+00,-1.500000000000000000e+01,-6.000000000000000000e+00,-2.000000000000000000e+00,1.000000000000000000e+00,1.000000000000000000e+00,1.000000000000000000e+00,-2.716064453125000000e-01,3.847656250000000000e-01,2.983398437500000000e-01,8.301391601562500000e-01
-1.000000000000000000e+00,1.000000000000000000e+00,3.000000000000000000e+00,2.000000000000000000e+00,-3.000000000000000000e+00,-1.000000000000000000e+00,-1.000000000000000000e+00,0.000000000000000000e+00,-2.716064453125000000e-01,3.847656250000000000e-01,2.983398437500000000e-01,8.301391601562500000e-01
-1.000000000000000000e+01,-6.000000000000000000e+00,-5.000000000000000000e+00,-5.000000000000000000e+00,-1.000000000000000000e+00,-1.000000000000000000e+00,-1.000000000000000000e+00,-2.000000000000000000e+00,-2.716064453125000000e-01,3.847656250000000000e-01,2.983398437500000000e-01,8.301391601562500000e-01
1.600000000000000000e+01,9.000000000000000000e+00,-1.000000000000000000e+00,0.000000000000000000e+00,-6.000000000000000000e+00,0.000000000000000000e+00,-1.000000000000000000e+00,-2.000000000000000000e+00,-2.716064453125000000e-01,3.847656250000000000e-01,2.983398437500000000e-01,8.301391601562500000e-01
-7.000000000000000000e+00,-5.000000000000000000e+00,1.300000000000000000e+01,4.000000000000000000e+00,2.000000000000000000e+00,2.000000000000000000e+00,3.000000000000000000e+00,1.000000000000000000e+00,-2.719116210937500000e-01,3.848876953125000000e-01,2.984008789062500000e-01,8.299560546875000000e-01
-9.000000000000000000e+00,-4.000000000000000000e+00,3.000000000000000000e+00,2.000000000000000000e+00,0.000000000000000000e+00,0.000000000000000000e+00,-2.000000000000000000e+00,-1.000000000000000000e+00,-2.719116210937500000e-01,3.848876953125000000e-01,2.984008789062500000e-01,8.299560546875000000e-01
6.000000000000000000e+00,2.000000000000000000e+00,-2.000000000000000000e+00,-1.200000000000000000e+01,-1.100000000000000000e+01,-4.000000000000000000e+00,0.000000000000000000e+00,-1.000000000000000000e+00,-2.719116210937500000e-01,3.848876953125000000e-01,2.984008789062500000e-01,8.299560546875000000e-01
-9.000000000000000000e+00,-1.000000000000000000e+01,1.000000000000000000e+00,8.000000000000000000e+00,1.200000000000000000e+01,4.000000000000000000e+00,-2.000000000000000000e+00,-5.000000000000000000e+00,-2.719116210937500000e-01,3.848876953125000000e-01,2.984008789062500000e-01,8.299560546875000000e-01
8.000000000000000000e+00,6.000000000000000000e+00,-1.300000000000000000e+01,-1.000000000000000000e+01,-2.000000000000000000e+00,0.000000000000000000e+00,-2.000000000000000000e+00,-1.000000000000000000e+00,-2.720947265625000000e-01,3.849487304687500000e-01,2.987060546875000000e-01,8.297729492187500000e-01
-6.000000000000000000e+00,-1.000000000000000000e+00,-7.000000000000000000e+00,4.000000000000000000e+00,3.000000000000000000e+00,1.000000000000000000e+00,0.000000000000000000e+00,-2.000000000000000000e+00,-2.720947265625000000e-01,3.849487304687500000e-01,2.987060546875000000e-01,8.297729492187500000e-01
3.000000000000000000e+00,1.000000000000000000e+00,8.000000000000000000e+00,1.000000000000000000e+00,0.000000000000000000e+00,-1.000000000000000000e+00,0.000000000000000000e+00,-2.000000000000000000e+00,-2.720947265625000000e-01,3.849487304687500000e-01,2.987060546875000000e-01,8.297729492187500000e-01
6.000000000000000000e+00,4.000000000000000000e+00,1.000000000000000000e+00,-4.000000000000000000e+00,-1.300000000000000000e+01,-6.000000000000000000e+00,-1.000000000000000000e+00,0.000000000000000000e+00,-2.720947265625000000e-01,3.849487304687500000e-01,2.987060546875000000e-01,8.297729492187500000e-01
-1.100000000000000000e+01,-6.000000000000000000e+00,1.400000000000000000e+01,4.000000000000000000e+00,-1.000000000000000000e+00,-2.000000000000000000e+00,1.000000000000000000e+00,-1.000000000000000000e+00,-2.724609375000000000e-01,3.850097656250000000e-01,2.988891601562500000e-01,8.295288085937500000e-01
-3.000000000000000000e+00,-4.000000000000000000e+00,-4.000000000000000000e+00,-4.000000000000000000e+00,2.000000000000000000e+00,1.000000000000000000e+00,-2.000000000000000000e+00,-3.000000000000000000e+00,-2.724609375000000000e-01,3.850097656250000000e-01,2.988891601562500000e-01,8.295288085937500000e-01
2.000000000000000000e+00,2.000000000000000000e+00,-7.000000000000000000e+00,-8.000000000000000000e+00,-1.000000000000000000e+01,-5.000000000000000000e+00,-2.000000000000000000e+00,-2.000000000000000000e+00,-2.724609375000000000e-01,3.850097656250000000e-01,2.988891601562500000e-01,8.295288085937500000e-01
-6.000000000000000000e+00,-2.000000000000000000e+00,-6.000000000000000000e+00,-2.000000000000000000e+00,6.000000000000000000e+00,3.000000000000000000e+00,0.000000000000000000e+00,-2.000000000000000000e+00,-2.724609375000000000e-01,3.850097656250000000e-01,2.988891601562500000e-01,8.295288085937500000e-01
6.000000000000000000e+00,0.000000000000000000e+00,3.000000000000000000e+00,5.000000000000000000e+00,2.000000000000000000e+00,-2.000000000000000000e+00,-3.000000000000000000e+00,2.000000000000000000e+00,-2.723388671875000000e-01,3.850708007812500000e-01,2.988281250000000000e-01,8.295898437500000000e-01
-3.000000000000000000e+00,-1.000000000000000000e+00,7.000000000000000000e+00,-3.000000000000000000e+00,-4.000000000000000000e+00,-3.000000000000000000e+00,0.000000000000000000e+00,3.000000000000000000e+00,-2.723388671875000000e-01,3.850708007812500000e-01,2.988281250000000000e-01,8.295898437500000000e-01
1.000000000000000000e+01,5.000000000000000000e+00,2.000000000000000000e+00,1.000000000000000000e+00,0.000000000000000000e+00,-2.000000000000000000e+00,0.000000000000000000e+00,-2.000000000000000000e+00,-2.723388671875000000e-01,3.850708007812500000e-01,2.988281250000000000e-01,8.295898437500000000e-01
-1.400000000000000000e+01,-7.000000000000000000e+00,1.000000000000000000e+01,1.000000000000000000e+00,-1.000000000000000000e+00,-3.000000000000000000e+00,-2.000000000000000000e+00,-1.000000000000000000e+00,-2.723388671875000000e-01,3.850708007812500000e-01,2.988281250000000000e-01,8.295898437500000000e-01
-1.200000000000000000e+01,-4.000000000000000000e+00,-1.400000000000000000e+01,-5.000000000000000000e+00,-6.000000000000000000e+00,-1.000000000000000000e+00,-2.000000000000000000e+00,-4.000000000000000000e+00,-2.719726562500000000e-01,3.851318359375000000e-01,2.989501953125000000e-01,8.296508789062500000e-01
3.000000000000000000e+00,-3.000000000000000000e+00,0.000000000000000000e+00,0.000000000000000000e+00,-3.000000000000000000e+00,-1.000000000000000000e+00,0.000000000000000000e+00,-1.000000000000000000e+00,-2.719726562500000000e-01,3.851318359375000000e-01,2.989501953125000000e-01,8.296508789062500000e-01
5.000000000000000000e+00,2.000000000000000000e+00,-3.000000000000000000e+00,2.000000000000000000e+00,3.000000000000000000e+00,2.000000000000000000e+00,-1.000000000000000000e+00,2.000000000000000000e+00,-2.719726562500000000e-01,3.851318359375000000e-01,2.989501953125000000e-01,8.296508789062500000e-01
6.000000000000000000e+00,3.000000000000000000e+00,1.900000000000000000e+01,2.000000000000000000e+00,-4.000000000000000000e+00,-1.000000000000000000e+00,0.000000000000000000e+00,0.000000000000000000e+00,-2.719726562500000000e-01,3.851318359375000000e-01,2.989501953125000000e-01,8.296508789062500000e-01
0.000000000000000000e+00,-4.000000000000000000e+00,-1.800000000000000000e+01,-4.000000000000000000e+00,-2.000000000000000000e+00,-2.000000000000000000e+00,0.000000000000000000e+00,-1.000000000000000000e+00,-2.719116210937500000e-01,3.849487304687500000e-01,2.993774414062500000e-01,8.295898437500000000e-01
-9.000000000000000000e+00,-2.000000000000000000e+00,-1.000000000000000000e+00,-1.300000000000000000e+01,-1.700000000000000000e+01,-4.000000000000000000e+00,-1.000000000000000000e+00,-2.000000000000000000e+00,-2.719116210937500000e-01,3.849487304687500000e-01,2.993774414062500000e-01,8.295898437500000000e-01
1.000000000000000000e+00,-1.000000000000000000e+00,1.000000000000000000e+00,2.500000000000000000e+01,3.100000000000000000e+01,3.000000000000000000e+00,-2.000000000000000000e+00,-2.000000000000000000e+00,-2.719116210937500000e-01,3.849487304687500000e-01,2.993774414062500000e-01,8.295898437500000000e-01
1.000000000000000000e+00,3.000000000000000000e+00,0.000000000000000000e+00,-5.000000000000000000e+00,-2.000000000000000000e+00,-2.000000000000000000e+00,-1.000000000000000000e+00,3.000000000000000000e+00,-2.719116210937500000e-01,3.849487304687500000e-01,2.993774414062500000e-01,8.295898437500000000e-01
2.000000000000000000e+00,2.000000000000000000e+00,1.400000000000000000e+01,1.000000000000000000e+00,-5.000000000000000000e+00,-3.000000000000000000e+00,-3.000000000000000000e+00,-3.000000000000000000e+00,-2.721557617187500000e-01,3.847656250000000000e-01,2.997436523437500000e-01,8.294677734375000000e-01
3.000000000000000000e+00,0.000000000000000000e+00,-2.000000000000000000e+00,-6.000000000000000000e+00,1.000000000000000000e+00,2.000000000000000000e+00,1.000000000000000000e+00,1.000000000000000000e+00,-2.721557617187500000e-01,3.847656250000000000e-01,2.997436523437500000e-01,8.294677734375000000e-01
-5.000000000000000000e+00,-2.000000000000000000e+00,-7.000000000000000000e+00,-4.000000000000000000e+00,-7.000000000000000000e+00,-1.000000000000000000e+00,2.000000000000000000e+00,1.000000000000000000e+00,-2.721557617187500000e-01,3.847656250000000000e-01,2.997436523437500000e-01,8.294677734375000000e-01
-1.000000000000000000e+00,-2.000000000000000000e+00,-1.000000000000000000e+01,2.000000000000000000e+00,-5.000000000000000000e+00,-2.000000000000000000e+00,0.000000000000000000e+00,-3.000000000000000000e+00,-2.721557617187500000e-01,3.847656250000000000e-01,2.997436523437500000e-01,8.294677734375000000e-01
3.000000000000000000e+00,1.000000000000000000e+00,-3.000000000000000000e+00,1.000000000000000000e+00,3.000000000000000000e+00,1.000000000000000000e+00,-1.000000000000000000e+00,1.000000000000000000e+00,-2.720947265625000000e-01,3.847045898437500000e-01,2.998046875000000000e-01,8.294677734375000000e-01
1.000000000000000000e+01,4.000000000000000000e+00,5.000000000000000000e+00,2.000000000000000000e+00,0.000000000000000000e+00,-4.000000000000000000e+00,-4.000000000000000000e+00,-2.000000000000000000e+00,-2.720947265625000000e-01,3.847045898437500000e-01,2.998046875000000000e-01,8.294677734375000000e-01
-1.700000000000000000e+01,-8.000000000000000000e+00,-4.000000000000000000e+00,-1.000000000000000000e+01,-1.600000000000000000e+01,-3.000000000000000000e+00,-2.000000000000000000e+00,-2.000000000000000000e+00,-2.720947265625000000e-01,3.847045898437500000e-01,2.998046875000000000e-01,8.294677734375000000e-01
1.000000000000000000e+00,-2.000000000000000000e+00,-4.000000000000000000e+00,4.000000000000000000e+00,1.200000000000000000e+01,3.000000000000000000e+00,2.000000000000000000e+00,1.000000000000000000e+00,-2.720947265625000000e-01,3.847045898437500000e-01,2.998046875000000000e-01,8.294677734375000000e-01
0.000000000000000000e+00,-1.000000000000000000e+00,1.000000000000000000e+00,0.000000000000000000e+00,-2.000000000000000000e+00,0.000000000000000000e+00,-1.000000000000000000e+00,-4.000000000000000000e+00,-2.720947265625000000e-01,3.847045898437500000e-01,2.998046875000000000e-01,8.294677734375000000e-01
-4.000000000000000000e+00,-3.000000000000000000e+00,-1.100000000000000000e+01,2.000000000000000000e+00,4.000000000000000000e+00,0.000000000000000000e+00,0.000000000000000000e+00,-1.000000000000000000e+00,-2.720947265625000000e-01,3.847045898437500000e-01,2.998046875000000000e-01,8.294677734375000000e-01
5.000000000000000000e+00,1.000000000000000000e+00,1.400000000000000000e+01,-3.000000000000000000e+00,-4.000000000000000000e+00,-2.000000000000000000e+00,1.000000000000000000e+00,1.000000000000000000e+00,-2.720947265625000000e-01,3.847045898437500000e-01,2.998046875000000000e-01,8.294677734375000000e-01
-4.000000000000000000e+00,-3.000000000000000000e+00,-1.300000000000000000e+01,-9.000000000000000000e+00,-9.000000000000000000e+00,-3.000000000000000000e+00,-2.000000000000000000e+00,-4.000000000000000000e+00,-2.720947265625000000e-01,3.847045898437500000e-01,2.998046875000000000e-01,8.294677734375000000e-01
-4.000000000000000000e+00,-1.000000000000000000e+00,5.000000000000000000e+00,4.000000000000000000e+00,-3.000000000000000000e+00,-7.000000000000000000e+00,-6.000000000000000000e+00,-3.000000000000000000e+00,-2.720947265625000000e-01,3.847045898437500000e-01,2.998046875000000000e-01,8.294677734375000000e-01
1.400000000000000000e+01,3.000000000000000000e+00,6.000000000000000000e+00,-3.000000000000000000e+00,2.000000000000000000e+00,0.000000000000000000e+00,-2.000000000000000000e+00,2.000000000000000000e+00,-2.720947265625000000e-01,3.847045898437500000e-01,2.998046875000000000e-01,8.294677734375000000e-01
-1.700000000000000000e+01,-7.000000000000000000e+00,-9.000000000000000000e+00,8.000000000000000000e+00,5.000000000000000000e+00,0.000000000000000000e+00,0.000000000000000000e+00,-3.000000000000000000e+00,-2.720947265625000000e-01,3.847045898437500000e-01,2.998046875000000000e-01,8.294677734375000000e-01
0.000000000000000000e+00,1.000000000000000000e+00,2.000000000000000000e+00,-5.000000000000000000e+00,2.000000000000000000e+00,-1.000000000000000000e+00,-1.000000000000000000e+00,1.000000000000000000e+00,-2.720947265625000000e-01,3.847045898437500000e-01,2.998046875000000000e-01,8.294677734375000000e-01
1.000000000000000000e+00,0.000000000000000000e+00,-8.000000000000000000e+00,0.000000000000000000e+00,1.000000000000000000e+00,-1.000000000000000000e+00,-1.000000000000000000e+00,-1.000000000000000000e+00,-2.720336914062500000e-01,3.847045898437500000e-01,2.998046875000000000e-01,8.294677734375000000e-01
-6.000000000000000000e+00,-3.000000000000000000e+00,1.000000000000000000e+00,6.000000000000000000e+00,0.000000000000000000e+00,-1.000000000000000000e+00,-3.000000000000000000e+00,-1.000000000000000000e+00,-2.720336914062500000e-01,3.847045898437500000e-01,2.998046875000000000e-01,8.294677734375000000e-01
3.000000000000000000e+00,0.000000000000000000e+00,-3.000000000000000000e+00,-5.000000000000000000e+00,-6.000000000000000000e+00,-2.000000000000000000e+00,-1.000000000000000000e+00,0.000000000000000000e+00,-2.720336914062500000e-01,3.847045898437500000e-01,2.998046875000000000e-01,8.294677734375000000e-01
-7.000000000000000000e+00,-3.000000000000000000e+00,1.000000000000000000e+00,-1.000000000000000000e+00,-5.000000000000000000e+00,-6.000000000000000000e+00,-4.000000000000000000e+00,-4.000000000000000000e+00,-2.720336914062500000e-01,3.847045898437500000e-01,2.998046875000000000e-01,8.294677734375000000e-01
3.000000000000000000e+00,0.000000000000000000e+00,6.000000000000000000e+00,1.000000000000000000e+00,1.000000000000000000e+00,1.000000000000000000e+00,2.000000000000000000e+00,3.000000000000000000e+00,-2.722778320312500000e-01,3.847656250000000000e-01,2.998657226562500000e-01,8.293457031250000000e-01
4.000000000000000000e+00,-3.000000000000000000e+00,-8.000000000000000000e+00,-5.000000000000000000e+00,-1.000000000000000000e+00,-2.000000000000000000e+00,0.000000000000000000e+00,1.000000000000000000e+00,-2.722778320312500000e-01,3.847656250000000000e-01,2.998657226562500000e-01,8.293457031250000000e-01
8.000000000000000000e+00,7.000000000000000000e+00,8.000000000000000000e+00,-5.000000000000000000e+00,-3.000000000000000000e+00,-2.000000000000000000e+00,-2.000000000000000000e+00,0.000000000000000000e+00,-2.722778320312500000e-01,3.847656250000000000e-01,2.998657226562500000e-01,8.293457031250000000e-01
-1.300000000000000000e+01,-8.000000000000000000e+00,-5.000000000000000000e+00,-2.000000000000000000e+00,-5.000000000000000000e+00,-4.000000000000000000e+00,-4.000000000000000000e+00,-1.000000000000000000e+00,-2.722778320312500000e-01,3.847656250000000000e-01,2.998657226562500000e-01,8.293457031250000000e-01
1.000000000000000000e+00,-1.000000000000000000e+00,-2.000000000000000000e+00,-3.000000000000000000e+00,2.000000000000000000e+00,1.000000000000000000e+00,-2.000000000000000000e+00,-2.000000000000000000e+00,-2.723999023437500000e-01,3.848266601562500000e-01,2.998657226562500000e-01,8.292846679687500000e-01
-1.100000000000000000e+01,-5.000000000000000000e+00,-1.000000000000000000e+00,1.000000000000000000e+00,0.000000000000000000e+00,-1.000000000000000000e+00,-1.000000000000000000e+00,0.000000000000000000e+00,-2.723999023437500000e-01,3.848266601562500000e-01,2.998657226562500000e-01,8.292846679687500000e-01
6.000000000000000000e+00,1.000000000000000000e+00,-1.000000000000000000e+00,-3.000000000000000000e+00,2.000000000000000000e+00,1.000000000000000000e+00,-1.000000000000000000e+00,-1.000000000000000000e+00,-2.723999023437500000e-01,3.848266601562500000e-01,2.998657226562500000e-01,8.292846679687500000e-01
1.600000000000000000e+01,6.000000000000000000e+00,1.900000000000000000e+01,-2.000000000000000000e+00,-1.400000000000000000e+01,-4.000000000000000000e+00,-3.000000000000000000e+00,-1.000000000000000000e+00,-2.723999023437500000e-01,3.848266601562500000e-01,2.998657226562500000e-01,8.292846679687500000e-01
-2.200000000000000000e+01,-9.000000000000000000e+00,-5.000000000000000000e+00,-1.000000000000000000e+00,1.500000000000000000e+01,6.000000000000000000e+00,2.000000000000000000e+00,0.000000000000000000e+00,-2.723999023437500000e-01,3.848266601562500000e-01,2.998657226562500000e-01,8.292846679687500000e-01
7.000000000000000000e+00,3.000000000000000000e+00,-5.000000000000000000e+00,1.200000000000000000e+01,1.500000000000000000e+01,5.000000000000000000e+00,1.000000000000000000e+00,3.000000000000000000e+00,-2.723999023437500000e-01,3.848266601562500000e-01,2.998657226562500000e-01,8.292846679687500000e-01
1.000000000000000000e+00,-2.000000000000000000e+00,3.000000000000000000e+00,-7.000000000000000000e+00,-5.000000000000000000e+00,-3.000000000000000000e+00,-2.000000000000000000e+00,0.000000000000000000e+00,-2.723999023437500000e-01,3.848266601562500000e-01,2.998657226562500000e-01,8.292846679687500000e-01
1.000000000000000000e+00,1.000000000000000000e+00,0.000000000000000000e+00,6.000000000000000000e+00,3.000000000000000000e+00,-1.000000000000000000e+00,-1.000000000000000000e+00,-2.000000000000000000e+00,-2.723999023437500000e-01,3.848266601562500000e-01,2.998657226562500000e-01,8.292846679687500000e-01
-2.000000000000000000e+00,-1.000000000000000000e+00,1.000000000000000000e+00,-8.000000000000000000e+00,-1.000000000000000000e+01,-6.000000000000000000e+00,-3.000000000000000000e+00,-2.000000000000000000e+00,-2.722778320312500000e-01,3.850097656250000000e-01,2.996826171875000000e-01,8.292846679687500000e-01
-6.000000000000000000e+00,0.000000000000000000e+00,-5.000000000000000000e+00,1.000000000000000000e+00,-3.000000000000000000e+00,-3.000000000000000000e+00,-1.000000000000000000e+00,-5.000000000000000000e+00,-2.722778320312500000e-01,3.850097656250000000e-01,2.996826171875000000e-01,8.292846679687500000e-01
-4.000000000000000000e+00,-3.000000000000000000e+00,2.000000000000000000e+00,1.000000000000000000e+00,4.000000000000000000e+00,3.000000000000000000e+00,-1.000000000000000000e+00,-5.000000000000000000e+00,-2.722778320312500000e-01,3.850097656250000000e-01,2.996826171875000000e-01,8.292846679687500000e-01
1.700000000000000000e+01,7.000000000000000000e+00,-8.000000000000000000e+00,-6.000000000000000000e+00,1.000000000000000000e+00,2.000000000000000000e+00,4.000000000000000000e+00,6.000000000000000000e+00,-2.722778320312500000e-01,3.850097656250000000e-01,2.996826171875000000e-01,8.292846679687500000e-01
-1.800000000000000000e+01,-9.000000000000000000e+00,1.000000000000000000e+01,0.000000000000000000e+00,-4.000000000000000000e+00,-2.000000000000000000e+00,-4.000000000000000000e+00,-5.000000000000000000e+00,-2.722778320312500000e-01,3.850097656250000000e-01,2.996826171875000000e-01,8.292846679687500000e-01
1.000000000000000000e+00,-4.000000000000000000e+00,-3.300000000000000000e+01,-3.000000000000000000e+00,0.000000000000000000e+00,-2.000000000000000000e+00,-2.000000000000000000e+00,-1.000000000000000000e+00,-2.722778320312500000e-01,3.850097656250000000e-01,2.996826171875000000e-01,8.292846679687500000e-01
2.000000000000000000e+00,0.000000000000000000e+00,1.000000000000000000e+00,-2.000000000000000000e+00,-6.000000000000000000e+00,-6.000000000000000000e+00,-2.000000000000000000e+00,0.000000000000000000e+00,-2.722778320312500000e-01,3.850097656250000000e-01,2.996826171875000000e-01,8.292846679687500000e-01
-3.000000000000000000e+00,-4.000000000000000000e+00,-6.000000000000000000e+00,0.000000000000000000e+00,3.000000000000000000e+00,2.000000000000000000e+00,-2.000000000000000000e+00,-3.000000000000000000e+00,-2.722778320312500000e-01,3.850097656250000000e-01,2.996826171875000000e-01,8.292846679687500000e-01
9.000000000000000000e+00,5.000000000000000000e+00,3.000000000000000000e+00,2.000000000000000000e+00,0.000000000000000000e+00,2.000000000000000000e+00,1.000000000000000000e+00,0.000000000000000000e+00,-2.722778320312500000e-01,3.850708007812500000e-01,2.996826171875000000e-01,8.292846679687500000e-01
-5.000000000000000000e+00,-1.000000000000000000e+00,6.000000000000000000e+00,-5.000000000000000000e+00,-7.000000000000000000e+00,-4.000000000000000000e+00,-2.000000000000000000e+00,-3.000000000000000000e+00,-2.722778320312500000e-01,3.850708007812500000e-01,2.996826171875000000e-01,8.292846679687500000e-01
1.000000000000000000e+00,2.000000000000000000e+00,-1.000000000000000000e+00,0.000000000000000000e+00,-1.000000000000000000e+00,2.000000000000000000e+00,0.000000000000000000e+00,-2.000000000000000000e+00,-2.722778320312500000e-01,3.850708007812500000e-01,2.996826171875000000e-01,8.292846679687500000e-01
-2.100000000000000000e+01,-1.000000000000000000e+01,-3.000000000000000000e+00,5.000000000000000000e+00,3.000000000000000000e+00,1.000000000000000000e+00,-2.000000000000000000e+00,-3.000000000000000000e+00,-2.722778320312500000e-01,3.850708007812500000e-01,2.996826171875000000e-01,8.292846679687500000e-01
1.000000000000000000e+01,1.000000000000000000e+00,-2.600000000000000000e+01,-1.100000000000000000e+01,-3.000000000000000000e+00,-5.000000000000000000e+00,-3.000000000000000000e+00,1.000000000000000000e+00,-2.723388671875000000e-01,3.849487304687500000e-01,2.998657226562500000e-01,8.292236328125000000e-01
-3.000000000000000000e+00,-1.000000000000000000e+00,9.000000000000000000e+00,9.000000000000000000e+00,8.000000000000000000e+00,2.000000000000000000e+00,1.000000000000000000e+00,0.000000000000000000e+00,-2.723388671875000000e-01,3.849487304687500000e-01,2.998657226562500000e-01,8.292236328125000000e-01
3.000000000000000000e+00,2.000000000000000000e+00,-5.000000000000000000e+00,-4.000000000000000000e+00,-1.000000000000000000e+00,-1.000000000000000000e+00,-2.000000000000000000e+00,0.000000000000000000e+00,-2.723388671875000000e-01,3.849487304687500000e-01,2.998657226562500000e-01,8.292236328125000000e-01
-3.000000000000000000e+00,0.000000000000000000e+00,0.000000000000000000e+00,2.000000000000000000e+00,0.000000000000000000e+00,1.000000000000000000e+00,1.000000000000000000e+00,-2.000000000000000000e+00,-2.723388671875000000e-01,3.849487304687500000e-01,2.998657226562500000e-01,8.292236328125000000e-01
3.000000000000000000e+00,0.000000000000000000e+00,7.000000000000000000e+00,-2.000000000000000000e+00,-7.000000000000000000e+00,-1.000000000000000000e+00,0.000000000000000000e+00,-3.000000000000000000e+00,-2.723388671875000000e-01,3.849487304687500000e-01,2.998657226562500000e-01,8.292236328125000000e-01
-3.000000000000000000e+00,-2.000000000000000000e+00,2.000000000000000000e+00,-2.000000000000000000e+00,-7.000000000000000000e+00,-3.000000000000000000e+00,-2.000000000000000000e+00,-1.000000000000000000e+00,-2.723388671875000000e-01,3.849487304687500000e-01,2.998657226562500000e-01,8.292236328125000000e-01
1.100000000000000000e+01,4.000000000000000000e+00,-2.000000000000000000e+00,-3.000000000000000000e+00,3.000000000000000000e+00,0.000000000000000000e+00,0.000000000000000000e+00,2.000000000000000000e+00,-2.723388671875000000e-01,3.849487304687500000e-01,2.998657226562500000e-01,8.292236328125000000e-01
-8.000000000000000000e+00,-5.000000000000000000e+00,3.000000000000000000e+00,-8.000000000000000000e+00,-7.000000000000000000e+00,-5.000000000000000000e+00,-1.000000000000000000e+00,1.000000000000000000e+00,-2.723388671875000000e-01,3.849487304687500000e-01,2.998657226562500000e-01,8.292236328125000000e-01
-8.000000000000000000e+00,-5.000000000000000000e+00,-9.000000000000000000e+00,6.000000000000000000e+00,7.000000000000000000e+00,1.000000000000000000e+00,1.000000000000000000e+00,0.000000000000000000e+00,-2.720336914062500000e-01,3.850708007812500000e-01,2.998046875000000000e-01,8.293457031250000000e-01
0.000000000000000000e+00,0.000000000000000000e+00,-1.000000000000000000e+00,-9.000000000000000000e+00,-9.000000000000000000e+00,-3.000000000000000000e+00,-3.000000000000000000e+00,-2.000000000000000000e+00,-2.720336914062500000e-01,3.850708007812500000e-01,2.998046875000000000e-01,8.293457031250000000e-01
-2.000000000000000000e+00,-5.000000000000000000e+00,-2.000000000000000000e+00,1.000000000000000000e+01,1.900000000000000000e+01,5.000000000000000000e+00,0.000000000000000000e+00,1.000000000000000000e+00,-2.720336914062500000e-01,3.850708007812500000e-01,2.998046875000000000e-01,8.293457031250000000e-01
-3.000000000000000000e+00,0.000000000000000000e+00,-3.000000000000000000e+00,-2.000000000000000000e+00,-4.000000000000000000e+00,-1.000000000000000000e+00,-4.000000000000000000e+00,-3.000000000000000000e+00,-2.720336914062500000e-01,3.850708007812500000e-01,2.998046875000000000e-01,8.293457031250000000e-01
1.500000000000000000e+01,5.000000000000000000e+00,6.000000000000000000e+00,-2.000000000000000000e+00,-2.000000000000000000e+00,-1.000000000000000000e+00,2.000000000000000000e+00,2.000000000000000000e+00,-2.715454101562500000e-01,3.853149414062500000e-01,2.998046875000000000e-01,8.293457031250000000e-01
-6.000000000000000000e+00,-4.000000000000000000e+00,-4.000000000000000000e+00,-2.000000000000000000e+00,-5.000000000000000000e+00,-2.000000000000000000e+00,-3.000000000000000000e+00,-3.000000000000000000e+00,-2.715454101562500000e-01,3.853149414062500000e-01,2.998046875000000000e-01,8.293457031250000000e-01
5.000000000000000000e+00,0.000000000000000000e+00,0.000000000000000000e+00,3.000000000000000000e+00,1.000000000000000000e+00,0.000000000000000000e+00,-1.000000000000000000e+00,1.000000000000000000e+00,-2.715454101562500000e-01,3.853149414062500000e-01,2.998046875000000000e-01,8.293457031250000000e-01
1.000000000000000000e+00,-1.000000000000000000e+00,-9.000000000000000000e+00,-7.000000000000000000e+00,-2.000000000000000000e+00,-1.000000000000000000e+00,-2.000000000000000000e+00,-1.000000000000000000e+00,-2.715454101562500000e-01,3.853149414062500000e-01,2.998046875000000000e-01,8.293457031250000000e-01
0.000000000000000000e+00,0.000000000000000000e+00,3.000000000000000000e+00,2.000000000000000000e+00,-1.000000000000000000e+00,-2.000000000000000000e+00,-4.000000000000000000e+00,-4.000000000000000000e+00,-2.715454101562500000e-01,3.853149414062500000e-01,2.998657226562500000e-01,8.293457031250000000e-01
-4.000000000000000000e+00,2.000000000000000000e+00,1.400000000000000000e+01,-3.000000000000000000e+00,-7.000000000000000000e+00,-1.000000000000000000e+00,0.000000000000000000e+00,-1.000000000000000000e+00,-2.715454101562500000e-01,3.853149414062500000e-01,2.998657226562500000e-01,8.293457031250000000e-01
0.000000000000000000e+00,1.000000000000000000e+00,-2.000000000000000000e+00,-6.000000000000000000e+00,-3.000000000000000000e+00,-3.000000000000000000e+00,-1.000000000000000000e+00,2.000000000000000000e+00,-2.715454101562500000e-01,3.853149414062500000e-01,2.998657226562500000e-01,8.293457031250000000e-01
3.000000000000000000e+00,-1.000000000000000000e+01,-2.700000000000000000e+01,-1.700000000000000000e+01,2.000000000000000000e+00,-2.000000000000000000e+00,-1.000000000000000000e+00,-2.000000000000000000e+00,-2.715454101562500000e-01,3.853149414062500000e-01,2.998657226562500000e-01,8.293457031250000000e-01
-2.000000000000000000e+00,-1.000000000000000000e+00,3.000000000000000000e+00,-9.000000000000000000e+00,-5.000000000000000000e+00,-1.000000000000000000e+00,-1.000000000000000000e+00,-2.000000000000000000e+00,-2.715454101562500000e-01,3.852539062500000000e-01,2.998657226562500000e-01,8.293457031250000000e-01
-2.000000000000000000e+00,-4.000000000000000000e+00,-7.000000000000000000e+00,-5.000000000000000000e+00,4.000000000000000000e+00,2.000000000000000000e+00,1.000000000000000000e+00,0.000000000000000000e+00,-2.715454101562500000e-01,3.852539062500000000e-01,2.998657226562500000e-01,8.293457031250000000e-01
1.700000000000000000e+01,1.100000000000000000e+01,1.500000000000000000e+01,4.000000000000000000e+00,-8.000000000000000000e+00,-3.000000000000000000e+00,0.000000000000000000e+00,-3.000000000000000000e+00,-2.715454101562500000e-01,3.852539062500000000e-01,2.998657226562500000e-01,8.293457031250000000e-01
-4.000000000000000000e+01,-1.800000000000000000e+01,-1.300000000000000000e+01,2.000000000000000000e+00,-3.000000000000000000e+00,-1.100000000000000000e+01,-6.000000000000000000e+00,-5.000000000000000000e+00,-2.715454101562500000e-01,3.852539062500000000e-01,2.998657226562500000e-01,8.293457031250000000e-01
-4.000000000000000000e+00,-3.000000000000000000e+00,-3.000000000000000000e+00,5.000000000000000000e+00,0.000000000000000000e+00,5.000000000000000000e+00,0.000000000000000000e+00,-1.000000000000000000e+00,-2.716674804687500000e-01,3.854370117187500000e-01,2.995605468750000000e-01,8.293457031250000000e-01
-4.000000000000000000e+00,-3.000000000000000000e+00,-1.000000000000000000e+00,7.000000000000000000e+00,1.000000000000000000e+00,9.000000000000000000e+00,6.000000000000000000e+00,-1.000000000000000000e+00,-2.716674804687500000e-01,3.854370117187500000e-01,2.995605468750000000e-01,8.293457031250000000e-01
-9.000000000000000000e+00,-3.000000000000000000e+00,6.000000000000000000e+00,4.000000000000000000e+00,-2.000000000000000000e+00,-2.000000000000000000e+00,1.000000000000000000e+00,0.000000000000000000e+00,-2.716674804687500000e-01,3.854370117187500000e-01,2.995605468750000000e-01,8.293457031250000000e-01
1.900000000000000000e+01,1.000000000000000000e+01,3.000000000000000000e+00,4.000000000000000000e+00,-2.000000000000000000e+00,1.000000000000000000e+00,1.000000000000000000e+00,2.000000000000000000e+00,-2.716674804687500000e-01,3.854370117187500000e-01,2.995605468750000000e-01,8.293457031250000000e-01
1.000000000000000000e+00,-2.000000000000000000e+00,-1.000000000000000000e+01,-2.000000000000000000e+00,-5.000000000000000000e+00,-4.000000000000000000e+00,-1.000000000000000000e+00,1.000000000000000000e+00,-2.716064453125000000e-01,3.857421875000000000e-01,2.990722656250000000e-01,8.294067382812500000e-01
-7.000000000000000000e+00,-2.000000000000000000e+00,-1.000000000000000000e+00,6.000000000000000000e+00,0.000000000000000000e+00,-4.000000000000000000e+00,-5.000000000000000000e+00,-3.000000000000000000e+00,-2.716064453125000000e-01,3.857421875000000000e-01,2.990722656250000000e-01,8.294067382812500000e-01
-6.000000000000000000e+00,-3.000000000000000000e+00,4.000000000000000000e+00,-1.000000000000000000e+00,-2.000000000000000000e+00,3.000000000000000000e+00,0.000000000000000000e+00,-2.000000000000000000e+00,-2.716064453125000000e-01,3.857421875000000000e-01,2.990722656250000000e-01,8.294067382812500000e-01
3.000000000000000000e+00,3.000000000000000000e+00,1.000000000000000000e+00,6.000000000000000000e+00,-8.000000000000000000e+00,-4.000000000000000000e+00,0.000000000000000000e+00,-1.000000000000000000e+00,-2.716064453125000000e-01,3.857421875000000000e-01,2.990722656250000000e-01,8.294067382812500000e-01
-1.000000000000000000e+00,1.000000000000000000e+00,-2.000000000000000000e+00,-9.000000000000000000e+00,7.000000000000000000e+00,1.000000000000000000e+00,1.000000000000000000e+00,1.000000000000000000e+00,-2.716064453125000000e-01,3.859252929687500000e-01,2.987060546875000000e-01,8.294677734375000000e-01
1.100000000000000000e+01,1.000000000000000000e+00,2.000000000000000000e+00,-5.000000000000000000e+00,-6.000000000000000000e+00,-2.000000000000000000e+00,-1.000000000000000000e+00,-1.000000000000000000e+00,-2.716064453125000000e-01,3.859252929687500000e-01,2.987060546875000000e-01,8.294677734375000000e-01
-7.000000000000000000e+00,-6.000000000000000000e+00,-1.200000000000000000e+01,1.000000000000000000e+00,7.000000000000000000e+00,0.000000000000000000e+00,-1.000000000000000000e+00,-2.000000000000000000e+00,-2.716064453125000000e-01,3.859252929687500000e-01,2.987060546875000000e-01,8.294677734375000000e-01
1.700000000000000000e+01,4.000000000000000000e+00,9.000000000000000000e+00,1.000000000000000000e+00,-4.000000000000000000e+00,0.000000000000000000e+00,-1.000000000000000000e+00,1.000000000000000000e+00,-2.716064453125000000e-01,3.859252929687500000e-01,2.987060546875000000e-01,8.294677734375000000e-01
-1.600000000000000000e+01,-5.000000000000000000e+00,1.000000000000000000e+01,0.000000000000000000e+00,0.000000000000000000e+00,0.000000000000000000e+00,-1.000000000000000000e+00,-4.000000000000000000e+00,-2.717895507812500000e-01,3.859863281250000000e-01,2.984008789062500000e-01,8.294677734375000000e-01
-1.600000000000000000e+01,-5.000000000000000000e+00,-6.000000000000000000e+00,1.000000000000000000e+00,5.000000000000000000e+00,-1.000000000000000000e+00,-2.000000000000000000e+00,-3.000000000000000000e+00,-2.717895507812500000e-01,3.859863281250000000e-01,2.984008789062500000e-01,8.294677734375000000e-01
-3.000000000000000000e+00,-2.000000000000000000e+00,-3.000000000000000000e+00,-5.000000000000000000e+00,-6.000000000000000000e+00,-1.000000000000000000e+00,-3.000000000000000000e+00,-4.000000000000000000e+00,-2.717895507812500000e-01,3.859863281250000000e-01,2.984008789062500000e-01,8.294677734375000000e-01
-4.000000000000000000e+00,-1.000000000000000000e+00,-4.000000000000000000e+00,-2.000000000000000000e+00,1.000000000000000000e+00,2.000000000000000000e+00,0.000000000000000000e+00,0.000000000000000000e+00,-2.717895507812500000e-01,3.859863281250000000e-01,2.984008789062500000e-01,8.294677734375000000e-01
1.300000000000000000e+01,7.000000000000000000e+00,8.000000000000000000e+00,6.000000000000000000e+00,-5.000000000000000000e+00,-1.000000000000000000e+00,-1.000000000000000000e+00,4.000000000000000000e+00,-2.720947265625000000e-01,3.859252929687500000e-01,2.981567382812500000e-01,8.295288085937500000e-01
3.000000000000000000e+00,1.000000000000000000e+00,3.000000000000000000e+00,-5.000000000000000000e+00,-1.000000000000000000e+00,0.000000000000000000e+00,0.000000000000000000e+00,-2.000000000000000000e+00,-2.720947265625000000e-01,3.859252929687500000e-01,2.981567382812500000e-01,8.295288085937500000e-01
-1.000000000000000000e+01,-5.000000000000000000e+00,-8.000000000000000000e+00,3.000000000000000000e+00,-1.000000000000000000e+00,-2.000000000000000000e+00,-2.000000000000000000e+00,-3.000000000000000000e+00,-2.720947265625000000e-01,3.859252929687500000e-01,2.981567382812500000e-01,8.295288085937500000e-01
4.000000000000000000e+00,4.000000000000000000e+00,4.000000000000000000e+00,3.000000000000000000e+00,2.000000000000000000e+00,1.000000000000000000e+00,1.000000000000000000e+00,0.000000000000000000e+00,-2.720947265625000000e-01,3.859252929687500000e-01,2.981567382812500000e-01,8.295288085937500000e-01
5.000000000000000000e+00,1.000000000000000000e+00,3.000000000000000000e+00,-5.000000000000000000e+00,-2.000000000000000000e+00,-1.000000000000000000e+00,0.000000000000000000e+00,-1.000000000000000000e+00,-2.722778320312500000e-01,3.858032226562500000e-01,2.979736328125000000e-01,8.295288085937500000e-01
-4.000000000000000000e+00,-2.000000000000000000e+00,2.000000000000000000e+00,6.000000000000000000e+00,8.000000000000000000e+00,-1.000000000000000000e+00,-1.000000000000000000e+00,-1.000000000000000000e+00,-2.722778320312500000e-01,3.858032226562500000e-01,2.979736328125000000e-01,8.295288085937500000e-01
1.000000000000000000e+00,-1.000000000000000000e+00,3.000000000000000000e+00,-1.000000000000000000e+00,-4.000000000000000000e+00,-3.000000000000000000e+00,-1.000000000000000000e+00,0.000000000000000000e+00,-2.722778320312500000e-01,3.858032226562500000e-01,2.979736328125000000e-01,8.295288085937500000e-01
4.000000000000000000e+00,-1.000000000000000000e+00,-6.000000000000000000e+00,-1.000000000000000000e+01,-5.000000000000000000e+00,-1.000000000000000000e+00,-1.000000000000000000e+00,-2.000000000000000000e+00,-2.722778320312500000e-01,3.858032226562500000e-01,2.979736328125000000e-01,8.295288085937500000e-01
-2.000000000000000000e+00,0.000000000000000000e+00,-2.000000000000000000e+00,5.000000000000000000e+00,-8.000000000000000000e+00,-3.000000000000000000e+00,-4.000000000000000000e+00,-3.000000000000000000e+00,-2.722778320312500000e-01,3.858032226562500000e-01,2.979736328125000000e-01,8.295288085937500000e-01
4.000000000000000000e+00,2.000000000000000000e+00,8.000000000000000000e+00,-1.000000000000000000e+00,2.000000000000000000e+01,6.000000000000000000e+00,1.000000000000000000e+00,-1.000000000000000000e+00,-2.722778320312500000e-01,3.858032226562500000e-01,2.979736328125000000e-01,8.295288085937500000e-01
-3.000000000000000000e+00,-3.000000000000000000e+00,-8.000000000000000000e+00,-3.000000000000000000e+00,1.000000000000000000e+00,0.000000000000000000e+00,-1.000000000000000000e+00,0.000000000000000000e+00,-2.722778320312500000e-01,3.858032226562500000e-01,2.979736328125000000e-01,8.295288085937500000e-01
-1.000000000000000000e+00,0.000000000000000000e+00,2.000000000000000000e+00,1.000000000000000000e+00,-1.000000000000000000e+00,-3.000000000000000000e+00,0.000000000000000000e+00,-1.000000000000000000e+00,-2.722778320312500000e-01,3.858032226562500000e-01,2.979736328125000000e-01,8.295288085937500000e-01
1.000000000000000000e+00,3.000000000000000000e+00,-5.000000000000000000e+00,-1.000000000000000000e+00,1.000000000000000000e+00,-1.000000000000000000e+00,0.000000000000000000e+00,-2.000000000000000000e+00,-2.721557617187500000e-01,3.857421875000000000e-01,2.977905273437500000e-01,8.297119140625000000e-01
-5.000000000000000000e+00,-8.000000000000000000e+00,-1.000000000000000000e+01,-1.000000000000000000e+01,-2.000000000000000000e+01,-5.000000000000000000e+00,-4.000000000000000000e+00,-3.000000000000000000e+00,-2.721557617187500000e-01,3.857421875000000000e-01,2.977905273437500000e-01,8.297119140625000000e-01
-2.000000000000000000e+00,0.000000000000000000e+00,1.000000000000000000e+00,7.000000000000000000e+00,7.000000000000000000e+00,1.000000000000000000e+00,0.000000000000000000e+00,1.000000000000000000e+00,-2.721557617187500000e-01,3.857421875000000000e-01,2.977905273437500000e-01,8.297119140625000000e-01
2.000000000000000000e+00,-1.000000000000000000e+00,-6.000000000000000000e+00,1.000000000000000000e+00,3.000000000000000000e+00,0.000000000000000000e+00,-2.000000000000000000e+00,-2.000000000000000000e+00,-2.721557617187500000e-01,3.857421875000000000e-01,2.977905273437500000e-01,8.297119140625000000e-01
5.000000000000000000e+00,3.000000000000000000e+00,5.000000000000000000e+00,-2.000000000000000000e+00,-7.000000000000000000e+00,0.000000000000000000e+00,0.000000000000000000e+00,1.000000000000000000e+00,-2.720336914062500000e-01,3.856201171875000000e-01,2.976684570312500000e-01,8.298339843750000000e-01
3.000000000000000000e+00,3.000000000000000000e+00,1.700000000000000000e+01,0.000000000000000000e+00,-5.000000000000000000e+00,-5.000000000000000000e+00,-3.000000000000000000e+00,-3.000000000000000000e+00,-2.720336914062500000e-01,3.856201171875000000e-01,2.976684570312500000e-01,8.298339843750000000e-01
-7.000000000000000000e+00,-6.000000000000000000e+00,-9.000000000000000000e+00,-6.000000000000000000e+00,0.000000000000000000e+00,0.000000000000000000e+00,2.000000000000000000e+00,-2.000000000000000000e+00,-2.720336914062500000e-01,3.856201171875000000e-01,2.976684570312500000e-01,8.298339843750000000e-01
-8.000000000000000000e+00,-4.000000000000000000e+00,-2.000000000000000000e+00,-1.000000000000000000e+00,-4.000000000000000000e+00,-1.000000000000000000e+00,-1.000000000000000000e+00,-4.000000000000000000e+00,-2.720336914062500000e-01,3.856201171875000000e-01,2.976684570312500000e-01,8.298339843750000000e-01
1.500000000000000000e+01,2.000000000000000000e+00,3.000000000000000000e+00,9.000000000000000000e+00,8.000000000000000000e+00,3.000000000000000000e+00,4.000000000000000000e+00,5.000000000000000000e+00,-2.717895507812500000e-01,3.854980468750000000e-01,2.976684570312500000e-01,8.299560546875000000e-01
2.000000000000000000e+00,1.000000000000000000e+00,-2.000000000000000000e+00,-3.000000000000000000e+00,-1.000000000000000000e+00,-3.000000000000000000e+00,-3.000000000000000000e+00,2.000000000000000000e+00,-2.717895507812500000e-01,3.854980468750000000e-01,2.976684570312500000e-01,8.299560546875000000e-01
-4.000000000000000000e+00,-3.000000000000000000e+00,2.000000000000000000e+00,-3.000000000000000000e+00,-5.000000000000000000e+00,-2.000000000000000000e+00,-2.000000000000000000e+00,-1.000000000000000000e+00,-2.717895507812500000e-01,3.854980468750000000e-01,2.976684570312500000e-01,8.299560546875000000e-01
-2.000000000000000000e+00,4.000000000000000000e+00,6.000000000000000000e+00,0.000000000000000000e+00,0.000000000000000000e+00,1.000000000000000000e+00,1.000000000000000000e+00,-3.000000000000000000e+00,-2.717895507812500000e-01,3.854980468750000000e-01,2.976684570312500000e-01,8.299560546875000000e-01
-5.000000000000000000e+00,-4.000000000000000000e+00,-8.000000000000000000e+00,-5.000000000000000000e+00,-4.000000000000000000e+00,-4.000000000000000000e+00,-3.000000000000000000e+00,-3.000000000000000000e+00,-2.719726562500000000e-01,3.853149414062500000e-01,2.978515625000000000e-01,8.298950195312500000e-01
-4.000000000000000000e+00,-1.000000000000000000e+00,1.000000000000000000e+00,3.000000000000000000e+00,-2.000000000000000000e+00,2.000000000000000000e+00,0.000000000000000000e+00,-1.000000000000000000e+00,-2.719726562500000000e-01,3.853149414062500000e-01,2.978515625000000000e-01,8.298950195312500000e-01
-2.000000000000000000e+00,-3.000000000000000000e+00,-8.000000000000000000e+00,-7.000000000000000000e+00,-2.000000000000000000e+00,1.000000000000000000e+00,0.000000000000000000e+00,-1.000000000000000000e+00,-2.719726562500000000e-01,3.853149414062500000e-01,2.978515625000000000e-01,8.298950195312500000e-01
1.300000000000000000e+01,1.000000000000000000e+00,-8.000000000000000000e+00,5.000000000000000000e+00,7.000000000000000000e+00,1.000000000000000000e+00,-1.000000000000000000e+00,0.000000000000000000e+00,-2.719726562500000000e-01,3.853149414062500000e-01,2.978515625000000000e-01,8.298950195312500000e-01
-2.100000000000000000e+01,-7.000000000000000000e+00,1.100000000000000000e+01,-5.000000000000000000e+00,-2.000000000000000000e+00,0.000000000000000000e+00,-1.000000000000000000e+00,-4.000000000000000000e+00,-2.723388671875000000e-01,3.853149414062500000e-01,2.979736328125000000e-01,8.297729492187500000e-01
-7.000000000000000000e+00,-3.000000000000000000e+00,-4.000000000000000000e+00,2.000000000000000000e+00,0.000000000000000000e+00,-3.000000000000000000e+00,-1.000000000000000000e+00,-1.000000000000000000e+00,-2.723388671875000000e-01,3.853149414062500000e-01,2.979736328125000000e-01,8.297729492187500000e-01
1.300000000000000000e+01,4.000000000000000000e+00,-4.000000000000000000e+00,-5.000000000000000000e+00,-7.000000000000000000e+00,-5.000000000000000000e+00,-2.000000000000000000e+00,0.000000000000000000e+00,-2.723388671875000000e-01,3.853149414062500000e-01,2.979736328125000000e-01,8.297729492187500000e-01
-1.000000000000000000e+01,-4.000000000000000000e+00,-8.000000000000000000e+00,-5.000000000000000000e+00,-3.000000000000000000e+00,0.000000000000000000e+00,-3.000000000000000000e+00,-2.000000000000000000e+00,-2.723388671875000000e-01,3.853149414062500000e-01,2.979736328125000000e-01,8.297729492187500000e-01
7.000000000000000000e+00,3.000000000000000000e+00,4.000000000000000000e+00,7.000000000000000000e+00,4.000000000000000000e+00,-2.000000000000000000e+00,-3.000000000000000000e+00,0.000000000000000000e+00,-2.725219726562500000e-01,3.852539062500000000e-01,2.980957031250000000e-01,8.297119140625000000e-01
-3.000000000000000000e+00,-3.000000000000000000e+00,-1.000000000000000000e+01,-7.000000000000000000e+00,-6.000000000000000000e+00,1.000000000000000000e+00,1.000000000000000000e+00,0.000000000000000000e+00,-2.725219726562500000e-01,3.852539062500000000e-01,2.980957031250000000e-01,8.297119140625000000e-01
-4.000000000000000000e+00,-1.000000000000000000e+00,-1.000000000000000000e+00,-4.000000000000000000e+00,-1.000000000000000000e+00,-3.000000000000000000e+00,-5.000000000000000000e+00,-4.000000000000000000e+00,-2.725219726562500000e-01,3.852539062500000000e-01,2.980957031250000000e-01,8.297119140625000000e-01
8.000000000000000000e+00,3.000000000000000000e+00,2.000000000000000000e+00,-1.000000000000000000e+00,0.000000000000000000e+00,-1.000000000000000000e+00,-1.000000000000000000e+00,3.000000000000000000e+00,-2.725219726562500000e-01,3.852539062500000000e-01,2.980957031250000000e-01,8.297119140625000000e-01
-6.000000000000000000e+00,-4.000000000000000000e+00,-1.100000000000000000e+01,-5.000000000000000000e+00,-3.000000000000000000e+00,-4.000000000000000000e+00,-3.000000000000000000e+00,-2.000000000000000000e+00,-2.726440429687500000e-01,3.851928710937500000e-01,2.982177734375000000e-01,8.296508789062500000e-01
7.000000000000000000e+00,1.000000000000000000e+00,3.000000000000000000e+00,1.000000000000000000e+00,3.000000000000000000e+00,1.000000000000000000e+00,1.000000000000000000e+00,-1.000000000000000000e+00,-2.726440429687500000e-01,3.851928710937500000e-01,2.982177734375000000e-01,8.296508789062500000e-01
-9.000000000000000000e+00,-4.000000000000000000e+00,5.000000000000000000e+00,1.000000000000000000e+00,-2.000000000000000000e+00,-1.000000000000000000e+00,-4.000000000000000000e+00,-3.000000000000000000e+00,-2.726440429687500000e-01,3.851928710937500000e-01,2.982177734375000000e-01,8.296508789062500000e-01
2.000000000000000000e+00,-1.000000000000000000e+00,2.000000000000000000e+00,-7.000000000000000000e+00,-9.000000000000000000e+00,-2.000000000000000000e+00,-1.000000000000000000e+00,2.000000000000000000e+00,-2.726440429687500000e-01,3.851928710937500000e-01,2.982177734375000000e-01,8.296508789062500000e-01
5.000000000000000000e+00,2.000000000000000000e+00,2.000000000000000000e+00,5.000000000000000000e+00,9.000000000000000000e+00,0.000000000000000000e+00,-1.000000000000000000e+00,-2.000000000000000000e+00,-2.728271484375000000e-01,3.851928710937500000e-01,2.982788085937500000e-01,8.295288085937500000e-01
-2.000000000000000000e+00,-4.000000000000000000e+00,-1.200000000000000000e+01,-1.000000000000000000e+00,0.000000000000000000e+00,-1.000000000000000000e+00,-1.000000000000000000e+00,1.000000000000000000e+00,-2.728271484375000000e-01,3.851928710937500000e-01,2.982788085937500000e-01,8.295288085937500000e-01
-3.000000000000000000e+00,-3.000000000000000000e+00,-1.000000000000000000e+00,-7.000000000000000000e+00,-1.100000000000000000e+01,-4.000000000000000000e+00,-4.000000000000000000e+00,-3.000000000000000000e+00,-2.728271484375000000e-01,3.851928710937500000e-01,2.982788085937500000e-01,8.295288085937500000e-01
-6.000000000000000000e+00,-1.000000000000000000e+00,1.000000000000000000e+00,1.100000000000000000e+01,7.000000000000000000e+00,2.000000000000000000e+00,-2.000000000000000000e+00,-2.000000000000000000e+00,-2.728271484375000000e-01,3.851928710937500000e-01,2.982788085937500000e-01,8.295288085937500000e-01
-2.000000000000000000e+00,-2.000000000000000000e+00,1.000000000000000000e+00,1.000000000000000000e+00,8.000000000000000000e+00,1.000000000000000000e+00,-1.000000000000000000e+00,-1.000000000000000000e+00,-2.728271484375000000e-01,3.851928710937500000e-01,2.983398437500000000e-01,8.295288085937500000e-01
1.000000000000000000e+01,4.000000000000000000e+00,-6.000000000000000000e+00,0.000000000000000000e+00,0.000000000000000000e+00,-3.000000000000000000e+00,-2.000000000000000000e+00,-1.000000000000000000e+00,-2.728271484375000000e-01,3.851928710937500000e-01,2.983398437500000000e-01,8.295288085937500000e-01
-4.000000000000000000e+00,-3.000000000000000000e+00,9.000000000000000000e+00,0.000000000000000000e+00,2.000000000000000000e+00,3.000000000000000000e+00,1.000000000000000000e+00,0.000000000000000000e+00,-2.728271484375000000e-01,3.851928710937500000e-01,2.983398437500000000e-01,8.295288085937500000e-01
-4.000000000000000000e+00,-4.000000000000000000e+00,-1.100000000000000000e+01,-3.000000000000000000e+00,-3.000000000000000000e+00,-1.000000000000000000e+00,-1.000000000000000000e+00,-1.000000000000000000e+00,-2.728271484375000000e-01,3.851928710937500000e-01,2.983398437500000000e-01,8.295288085937500000e-01
4.000000000000000000e+00,-2.000000000000000000e+00,-8.000000000000000000e+00,-3.000000000000000000e+00,-7.000000000000000000e+00,-1.000000000000000000e+00,-3.000000000000000000e+00,-1.000000000000000000e+00,-2.728271484375000000e-01,3.852539062500000000e-01,2.983398437500000000e-01,8.295288085937500000e-01
-9.000000000000000000e+00,-1.000000000000000000e+00,-2.000000000000000000e+00,-3.000000000000000000e+00,-5.000000000000000000e+00,-4.000000000000000000e+00,-1.000000000000000000e+00,-3.000000000000000000e+00,-2.728271484375000000e-01,3.852539062500000000e-01,2.983398437500000000e-01,8.295288085937500000e-01
7.000000000000000000e+00,1.000000000000000000e+00,0.000000000000000000e+00,-2.000000000000000000e+00,-2.000000000000000000e+00,-3.000000000000000000e+00,-1.000000000000000000e+00,-1.000000000000000000e+00,-2.728271484375000000e-01,3.852539062500000000e-01,2.983398437500000000e-01,8.295288085937500000e-01
-5.000000000000000000e+00,0.000000000000000000e+00,1.000000000000000000e+01,0.000000000000000000e+00,5.000000000000000000e+00,2.000000000000000000e+00,2.000000000000000000e+00,1.000000000000000000e+00,-2.728271484375000000e-01,3.852539062500000000e-01,2.983398437500000000e-01,8.295288085937500000e-01
-4.000000000000000000e+00,-3.000000000000000000e+00,4.000000000000000000e+00,0.000000000000000000e+00,0.000000000000000000e+00,-2.000000000000000000e+00,1.000000000000000000e+00,-1.000000000000000000e+00,-2.728271484375000000e-01,3.850708007812500000e-01,2.987060546875000000e-01,8.294067382812500000e-01
6.000000000000000000e+00,1.000000000000000000e+00,-1.600000000000000000e+01,-6.000000000000000000e+00,-6.000000000000000000e+00,-3.000000000000000000e+00,-5.000000000000000000e+00,-2.000000000000000000e+00,-2.728271484375000000e-01,3.850708007812500000e-01,2.987060546875000000e-01,8.294067382812500000e-01
-5.000000000000000000e+00,-4.000000000000000000e+00,6.000000000000000000e+00,-1.000000000000000000e+00,-4.000000000000000000e+00,-1.000000000000000000e+00,0.000000000000000000e+00,0.000000000000000000e+00,-2.728271484375000000e-01,3.850708007812500000e-01,2.987060546875000000e-01,8.294067382812500000e-01
-1.700000000000000000e+01,-8.000000000000000000e+00,1.000000000000000000e+00,3.000000000000000000e+00,1.000000000000000000e+00,2.000000000000000000e+00,1.000000000000000000e+00,-1.000000000000000000e+00,-2.728271484375000000e-01,3.850708007812500000e-01,2.987060546875000000e-01,8.294067382812500000e-01
-1.000000000000000000e+00,-3.000000000000000000e+00,-2.000000000000000000e+00,-1.000000000000000000e+00,1.000000000000000000e+00,-1.000000000000000000e+00,-2.000000000000000000e+00,0.000000000000000000e+00,-2.730102539062500000e-01,3.847656250000000000e-01,2.990112304687500000e-01,8.294067382812500000e-01
0.000000000000000000e+00,0.000000000000000000e+00,7.000000000000000000e+00,1.000000000000000000e+00,-3.000000000000000000e+00,-1.000000000000000000e+00,-1.000000000000000000e+00,0.000000000000000000e+00,-2.730102539062500000e-01,3.847656250000000000e-01,2.990112304687500000e-01,8.294067382812500000e-01
