1.200000000000000000e+01,3.000000000000000000e+00,-1.400000000000000000e+01,9.000000000000000000e+00,6.000000000000000000e+00,3.000000000000000000e+00,-1.000000000000000000e+00,0.000000000000000000e+00,-2.979736328125000000e-01,3.540039062500000000e-02,7.772827148437500000e-01,5.529174804687500000e-01
-1.800000000000000000e+01,-6.000000000000000000e+00,1.000000000000000000e+01,2.000000000000000000e+00,-9.000000000000000000e+00,-5.000000000000000000e+00,2.000000000000000000e+00,-4.000000000000000000e+00,-2.979736328125000000e-01,3.540039062500000000e-02,7.772827148437500000e-01,5.529174804687500000e-01
-9.000000000000000000e+00,-1.100000000000000000e+01,0.000000000000000000e+00,-9.000000000000000000e+00,1.000000000000000000e+01,4.000000000000000000e+00,1.000000000000000000e+00,-2.000000000000000000e+00,-2.979736328125000000e-01,3.540039062500000000e-02,7.772827148437500000e-01,5.529174804687500000e-01
-3.000000000000000000e+00,5.000000000000000000e+00,0.000000000000000000e+00,-1.000000000000000000e+00,-5.000000000000000000e+00,-1.000000000000000000e+00,-1.000000000000000000e+00,2.000000000000000000e+00,-2.979736328125000000e-01,3.540039062500000000e-02,7.772827148437500000e-01,5.529174804687500000e-01
2.000000000000000000e+00,6.000000000000000000e+00,3.000000000000000000e+00,1.000000000000000000e+00,-3.000000000000000000e+00,-1.000000000000000000e+00,0.000000000000000000e+00,-1.000000000000000000e+00,-2.977905273437500000e-01,3.564453125000000000e-02,7.770996093750000000e-01,5.532226562500000000e-01
-2.000000000000000000e+00,3.000000000000000000e+00,8.000000000000000000e+00,-4.000000000000000000e+00,1.000000000000000000e+00,0.000000000000000000e+00,-4.000000000000000000e+00,-2.000000000000000000e+00,-2.977905273437500000e-01,3.564453125000000000e-02,7.770996093750000000e-01,5.532226562500000000e-01
-1.000000000000000000e+00,-4.000000000000000000e+00,-2.400000000000000000e+01,-8.000000000000000000e+00,-5.000000000000000000e+00,-3.000000000000000000e+00,-1.000000000000000000e+00,0.000000000000000000e+00,-2.977905273437500000e-01,3.564453125000000000e-02,7.770996093750000000e-01,5.532226562500000000e-01
8.000000000000000000e+00,0.000000000000000000e+00,1.400000000000000000e+01,3.000000000000000000e+00,-1.000000000000000000e+00,-1.000000000000000000e+00,-1.000000000000000000e+00,-1.000000000000000000e+00,-2.977905273437500000e-01,3.564453125000000000e-02,7.770996093750000000e-01,5.532226562500000000e-01
-2.000000000000000000e+01,-3.000000000000000000e+00,-1.900000000000000000e+01,-8.000000000000000000e+00,-9.000000000000000000e+00,-1.000000000000000000e+00,-1.000000000000000000e+00,-4.000000000000000000e+00,-2.977905273437500000e-01,3.564453125000000000e-02,7.770996093750000000e-01,5.532226562500000000e-01
4.000000000000000000e+00,4.000000000000000000e+00,2.000000000000000000e+00,0.000000000000000000e+00,2.000000000000000000e+00,3.000000000000000000e+00,3.000000000000000000e+00,2.000000000000000000e+00,-2.977905273437500000e-01,3.564453125000000000e-02,7.770996093750000000e-01,5.532226562500000000e-01
2.000000000000000000e+00,-6.000000000000000000e+00,-3.900000000000000000e+01,-1.900000000000000000e+01,-1.300000000000000000e+01,-5.000000000000000000e+00,-6.000000000000000000e+00,1.000000000000000000e+00,-2.979125976562500000e-01,3.570556640625000000e-02,7.773437500000000000e-01,5.528564453125000000e-01
4.000000000000000000e+00,0.000000000000000000e+00,1.400000000000000000e+01,7.000000000000000000e+00,7.000000000000000000e+00,2.000000000000000000e+00,1.000000000000000000e+00,-1.000000000000000000e+00,-2.979125976562500000e-01,3.570556640625000000e-02,7.773437500000000000e-01,5.528564453125000000e-01
5.000000000000000000e+00,-1.000000000000000000e+00,0.000000000000000000e+00,-1.000000000000000000e+01,-9.000000000000000000e+00,-3.000000000000000000e+00,-3.000000000000000000e+00,0.000000000000000000e+00,-2.979125976562500000e-01,3.570556640625000000e-02,7.773437500000000000e-01,5.528564453125000000e-01
2.000000000000000000e+00,3.000000000000000000e+00,1.200000000000000000e+01,3.000000000000000000e+00,-7.000000000000000000e+00,-5.000000000000000000e+00,-3.000000000000000000e+00,-1.000000000000000000e+00,-2.979125976562500000e-01,3.570556640625000000e-02,7.773437500000000000e-01,5.528564453125000000e-01
-6.000000000000000000e+00,-2.000000000000000000e+00,1.000000000000000000e+00,-1.200000000000000000e+01,0.000000000000000000e+00,1.000000000000000000e+00,0.000000000000000000e+00,-1.000000000000000000e+00,-2.980346679687500000e-01,3.546142578125000000e-02,7.774658203125000000e-01,5.526123046875000000e-01
-2.000000000000000000e+00,-3.000000000000000000e+00,2.000000000000000000e+00,1.100000000000000000e+01,-6.000000000000000000e+00,0.000000000000000000e+00,2.000000000000000000e+00,1.000000000000000000e+00,-2.980346679687500000e-01,3.546142578125000000e-02,7.774658203125000000e-01,5.526123046875000000e-01
1.000000000000000000e+01,-9.000000000000000000e+00,7.000000000000000000e+00,0.000000000000000000e+00,7.000000000000000000e+00,-1.000000000000000000e+00,0.000000000000000000e+00,0.000000000000000000e+00,-2.980346679687500000e-01,3.546142578125000000e-02,7.774658203125000000e-01,5.526123046875000000e-01
-6.000000000000000000e+00,-6.000000000000000000e+00,-2.200000000000000000e+01,-1.000000000000000000e+00,9.000000000000000000e+00,0.000000000000000000e+00,1.000000000000000000e+00,0.000000000000000000e+00,-2.980346679687500000e-01,3.546142578125000000e-02,7.774658203125000000e-01,5.526123046875000000e-01
1.000000000000000000e+01,7.000000000000000000e+00,1.200000000000000000e+01,-3.000000000000000000e+00,6.000000000000000000e+00,4.000000000000000000e+00,0.000000000000000000e+00,-1.000000000000000000e+00,-2.980346679687500000e-01,3.552246093750000000e-02,7.775268554687500000e-01,5.524902343750000000e-01
-1.800000000000000000e+01,-7.000000000000000000e+00,-1.100000000000000000e+01,-2.000000000000000000e+00,-4.000000000000000000e+00,-5.000000000000000000e+00,-6.000000000000000000e+00,-4.000000000000000000e+00,-2.980346679687500000e-01,3.552246093750000000e-02,7.775268554687500000e-01,5.524902343750000000e-01
3.000000000000000000e+00,1.000000000000000000e+00,1.000000000000000000e+01,5.000000000000000000e+00,4.000000000000000000e+00,1.000000000000000000e+00,-3.000000000000000000e+00,0.000000000000000000e+00,-2.980346679687500000e-01,3.552246093750000000e-02,7.775268554687500000e-01,5.524902343750000000e-01
9.000000000000000000e+00,-1.000000000000000000e+00,7.000000000000000000e+00,7.000000000000000000e+00,-1.000000000000000000e+00,1.000000000000000000e+00,2.000000000000000000e+00,1.000000000000000000e+00,-2.980346679687500000e-01,3.552246093750000000e-02,7.775268554687500000e-01,5.524902343750000000e-01
-8.000000000000000000e+00,2.000000000000000000e+00,5.000000000000000000e+00,-2.000000000000000000e+00,-9.000000000000000000e+00,-4.000000000000000000e+00,0.000000000000000000e+00,-3.000000000000000000e+00,-2.978515625000000000e-01,3.594970703125000000e-02,7.775878906250000000e-01,5.524902343750000000e-01
2.000000000000000000e+00,1.000000000000000000e+00,7.000000000000000000e+00,1.500000000000000000e+01,1.500000000000000000e+01,0.000000000000000000e+00,-1.000000000000000000e+00,-1.000000000000000000e+00,-2.978515625000000000e-01,3.594970703125000000e-02,7.775878906250000000e-01,5.524902343750000000e-01
-4.000000000000000000e+00,0.000000000000000000e+00,-1.300000000000000000e+01,-5.000000000000000000e+00,-7.000000000000000000e+00,1.000000000000000000e+00,2.000000000000000000e+00,0.000000000000000000e+00,-2.978515625000000000e-01,3.594970703125000000e-02,7.775878906250000000e-01,5.524902343750000000e-01
-5.000000000000000000e+00,-3.000000000000000000e+00,4.000000000000000000e+00,2.000000000000000000e+00,-1.200000000000000000e+01,-4.000000000000000000e+00,-3.000000000000000000e+00,-4.000000000000000000e+00,-2.978515625000000000e-01,3.594970703125000000e-02,7.775878906250000000e-01,5.524902343750000000e-01
2.000000000000000000e+00,1.000000000000000000e+00,1.600000000000000000e+01,1.800000000000000000e+01,1.300000000000000000e+01,0.000000000000000000e+00,0.000000000000000000e+00,-1.000000000000000000e+00,-2.977905273437500000e-01,3.619384765625000000e-02,7.777709960937500000e-01,5.523071289062500000e-01
-1.000000000000000000e+00,1.000000000000000000e+00,-1.200000000000000000e+01,-1.700000000000000000e+01,-4.000000000000000000e+00,-3.000000000000000000e+00,-2.000000000000000000e+00,-1.000000000000000000e+00,-2.977905273437500000e-01,3.619384765625000000e-02,7.777709960937500000e-01,5.523071289062500000e-01
-7.000000000000000000e+00,-1.300000000000000000e+01,-2.000000000000000000e+00,-1.000000000000000000e+01,-6.000000000000000000e+00,-6.000000000000000000e+00,-2.000000000000000000e+00,-2.000000000000000000e+00,-2.977905273437500000e-01,3.619384765625000000e-02,7.777709960937500000e-01,5.523071289062500000e-01
1.600000000000000000e+01,4.000000000000000000e+00,-4.000000000000000000e+00,4.000000000000000000e+00,5.000000000000000000e+00,-1.000000000000000000e+00,-6.000000000000000000e+00,-2.000000000000000000e+00,-2.977905273437500000e-01,3.619384765625000000e-02,7.777709960937500000e-01,5.523071289062500000e-01
-3.700000000000000000e+01,-1.500000000000000000e+01,1.400000000000000000e+01,-1.000000000000000000e+00,-3.000000000000000000e+00,1.000000000000000000e+00,2.000000000000000000e+00,-3.000000000000000000e+00,-2.978515625000000000e-01,3.607177734375000000e-02,7.778930664062500000e-01,5.520629882812500000e-01
1.000000000000000000e+00,8.000000000000000000e+00,4.000000000000000000e+00,-4.000000000000000000e+00,-5.000000000000000000e+00,-1.000000000000000000e+00,1.000000000000000000e+00,0.000000000000000000e+00,-2.978515625000000000e-01,3.607177734375000000e-02,7.778930664062500000e-01,5.520629882812500000e-01
-2.000000000000000000e+00,-1.000000000000000000e+00,-1.400000000000000000e+01,-2.000000000000000000e+00,5.000000000000000000e+00,2.000000000000000000e+00,1.000000000000000000e+00,-3.000000000000000000e+00,-2.978515625000000000e-01,3.607177734375000000e-02,7.778930664062500000e-01,5.520629882812500000e-01
3.000000000000000000e+00,0.000000000000000000e+00,5.000000000000000000e+00,-4.000000000000000000e+00,-5.000000000000000000e+00,0.000000000000000000e+00,3.000000000000000000e+00,1.000000000000000000e+00,-2.978515625000000000e-01,3.607177734375000000e-02,7.778930664062500000e-01,5.520629882812500000e-01
7.000000000000000000e+00,-1.000000000000000000e+00,-1.500000000000000000e+01,1.000000000000000000e+00,-2.000000000000000000e+00,-5.000000000000000000e+00,-4.000000000000000000e+00,-1.000000000000000000e+00,-2.978515625000000000e-01,3.570556640625000000e-02,7.779541015625000000e-01,5.520019531250000000e-01
-1.000000000000000000e+00,-4.000000000000000000e+00,-7.000000000000000000e+00,5.000000000000000000e+00,-6.000000000000000000e+00,-2.000000000000000000e+00,-2.000000000000000000e+00,-1.000000000000000000e+00,-2.978515625000000000e-01,3.570556640625000000e-02,7.779541015625000000e-01,5.520019531250000000e-01
3.000000000000000000e+00,4.000000000000000000e+00,8.000000000000000000e+00,-9.000000000000000000e+00,-2.000000000000000000e+00,1.000000000000000000e+00,0.000000000000000000e+00,0.000000000000000000e+00,-2.978515625000000000e-01,3.570556640625000000e-02,7.779541015625000000e-01,5.520019531250000000e-01
-3.000000000000000000e+00,0.000000000000000000e+00,1.300000000000000000e+01,-4.000000000000000000e+00,-3.000000000000000000e+00,-2.000000000000000000e+00,-2.000000000000000000e+00,-1.000000000000000000e+00,-2.978515625000000000e-01,3.570556640625000000e-02,7.779541015625000000e-01,5.520019531250000000e-01
2.000000000000000000e+00,3.000000000000000000e+00,-1.700000000000000000e+01,2.800000000000000000e+01,1.600000000000000000e+01,4.000000000000000000e+00,3.000000000000000000e+00,1.000000000000000000e+00,-2.976074218750000000e-01,3.564453125000000000e-02,7.778930664062500000e-01,5.522460937500000000e-01
-6.000000000000000000e+00,-6.000000000000000000e+00,-1.700000000000000000e+01,-6.000000000000000000e+00,-4.000000000000000000e+00,1.000000000000000000e+00,3.000000000000000000e+00,0.000000000000000000e+00,-2.976074218750000000e-01,3.564453125000000000e-02,7.778930664062500000e-01,5.522460937500000000e-01
2.000000000000000000e+00,-3.000000000000000000e+00,9.000000000000000000e+00,9.000000000000000000e+00,-4.000000000000000000e+00,-2.000000000000000000e+00,0.000000000000000000e+00,1.000000000000000000e+00,-2.976074218750000000e-01,3.564453125000000000e-02,7.778930664062500000e-01,5.522460937500000000e-01
-4.000000000000000000e+00,3.000000000000000000e+00,-2.000000000000000000e+00,-1.000000000000000000e+01,-1.100000000000000000e+01,-3.000000000000000000e+00,1.000000000000000000e+00,-1.000000000000000000e+00,-2.976074218750000000e-01,3.564453125000000000e-02,7.778930664062500000e-01,5.522460937500000000e-01
-1.000000000000000000e+00,-2.000000000000000000e+00,1.400000000000000000e+01,-5.000000000000000000e+00,4.000000000000000000e+00,3.000000000000000000e+00,-1.000000000000000000e+00,-1.000000000000000000e+00,-2.973632812500000000e-01,3.546142578125000000e-02,7.778930664062500000e-01,5.523681640625000000e-01
-1.000000000000000000e+00,-1.000000000000000000e+00,-1.500000000000000000e+01,-7.000000000000000000e+00,-5.000000000000000000e+00,-2.000000000000000000e+00,-5.000000000000000000e+00,-2.000000000000000000e+00,-2.973632812500000000e-01,3.546142578125000000e-02,7.778930664062500000e-01,5.523681640625000000e-01
0.000000000000000000e+00,-1.000000000000000000e+01,-1.000000000000000000e+00,-2.000000000000000000e+00,7.000000000000000000e+00,1.000000000000000000e+00,-2.000000000000000000e+00,-2.000000000000000000e+00,-2.973632812500000000e-01,3.546142578125000000e-02,7.778930664062500000e-01,5.523681640625000000e-01
-5.000000000000000000e+00,-9.000000000000000000e+00,-1.800000000000000000e+01,-1.300000000000000000e+01,-4.000000000000000000e+00,-3.000000000000000000e+00,-2.000000000000000000e+00,-1.000000000000000000e+00,-2.973632812500000000e-01,3.546142578125000000e-02,7.778930664062500000e-01,5.523681640625000000e-01
1.000000000000000000e+00,5.000000000000000000e+00,1.400000000000000000e+01,2.600000000000000000e+01,6.000000000000000000e+00,3.000000000000000000e+00,1.000000000000000000e+00,-1.000000000000000000e+00,-2.973632812500000000e-01,3.491210937500000000e-02,7.779541015625000000e-01,5.523681640625000000e-01
3.000000000000000000e+00,4.000000000000000000e+00,-6.000000000000000000e+00,-8.000000000000000000e+00,-4.000000000000000000e+00,-5.000000000000000000e+00,-3.000000000000000000e+00,1.000000000000000000e+00,-2.973632812500000000e-01,3.491210937500000000e-02,7.779541015625000000e-01,5.523681640625000000e-01
5.000000000000000000e+00,4.000000000000000000e+00,9.000000000000000000e+00,-1.000000000000000000e+00,1.000000000000000000e+00,2.000000000000000000e+00,3.000000000000000000e+00,0.000000000000000000e+00,-2.973632812500000000e-01,3.491210937500000000e-02,7.779541015625000000e-01,5.523681640625000000e-01
-1.600000000000000000e+01,-6.000000000000000000e+00,-6.000000000000000000e+00,1.700000000000000000e+01,3.000000000000000000e+00,0.000000000000000000e+00,-2.000000000000000000e+00,-4.000000000000000000e+00,-2.973632812500000000e-01,3.491210937500000000e-02,7.779541015625000000e-01,5.523681640625000000e-01
6.000000000000000000e+00,-4.000000000000000000e+00,-9.000000000000000000e+00,-5.000000000000000000e+00,-7.000000000000000000e+00,-1.000000000000000000e+00,0.000000000000000000e+00,0.000000000000000000e+00,-2.974243164062500000e-01,3.454589843750000000e-02,7.780151367187500000e-01,5.523071289062500000e-01
-2.000000000000000000e+00,-3.000000000000000000e+00,4.000000000000000000e+00,-5.000000000000000000e+00,6.000000000000000000e+00,2.000000000000000000e+00,-2.000000000000000000e+00,1.000000000000000000e+00,-2.974243164062500000e-01,3.454589843750000000e-02,7.780151367187500000e-01,5.523071289062500000e-01
3.000000000000000000e+00,3.000000000000000000e+00,8.000000000000000000e+00,3.000000000000000000e+00,-3.000000000000000000e+00,-2.000000000000000000e+00,-1.000000000000000000e+00,1.000000000000000000e+00,-2.974243164062500000e-01,3.454589843750000000e-02,7.780151367187500000e-01,5.523071289062500000e-01
1.000000000000000000e+00,-1.000000000000000000e+01,1.000000000000000000e+00,-8.000000000000000000e+00,1.000000000000000000e+00,1.000000000000000000e+00,1.000000000000000000e+00,0.000000000000000000e+00,-2.974243164062500000e-01,3.454589843750000000e-02,7.780151367187500000e-01,5.523071289062500000e-01
-1.000000000000000000e+01,3.000000000000000000e+00,4.000000000000000000e+00,-6.000000000000000000e+00,-8.000000000000000000e+00,-4.000000000000000000e+00,-4.000000000000000000e+00,-2.000000000000000000e+00,-2.974243164062500000e-01,3.454589843750000000e-02,7.780151367187500000e-01,5.523071289062500000e-01
-5.000000000000000000e+00,-3.000000000000000000e+00,-3.000000000000000000e+00,0.000000000000000000e+00,-6.000000000000000000e+00,-3.000000000000000000e+00,-3.000000000000000000e+00,-3.000000000000000000e+00,-2.974243164062500000e-01,3.454589843750000000e-02,7.780151367187500000e-01,5.523071289062500000e-01
-4.000000000000000000e+00,5.000000000000000000e+00,-3.000000000000000000e+00,-9.000000000000000000e+00,0.000000000000000000e+00,-4.000000000000000000e+00,-5.000000000000000000e+00,-3.000000000000000000e+00,-2.974243164062500000e-01,3.454589843750000000e-02,7.780151367187500000e-01,5.523071289062500000e-01
5.000000000000000000e+00,7.000000000000000000e+00,-2.000000000000000000e+00,7.000000000000000000e+00,4.000000000000000000e+00,3.000000000000000000e+00,-1.000000000000000000e+00,0.000000000000000000e+00,-2.974243164062500000e-01,3.454589843750000000e-02,7.780151367187500000e-01,5.523071289062500000e-01
3.000000000000000000e+00,-8.000000000000000000e+00,9.000000000000000000e+00,-5.000000000000000000e+00,-7.000000000000000000e+00,-5.000000000000000000e+00,-4.000000000000000000e+00,-3.000000000000000000e+00,-2.973632812500000000e-01,3.454589843750000000e-02,7.780151367187500000e-01,5.523071289062500000e-01
-5.000000000000000000e+00,-1.000000000000000000e+00,0.000000000000000000e+00,6.000000000000000000e+00,6.000000000000000000e+00,0.000000000000000000e+00,4.000000000000000000e+00,2.000000000000000000e+00,-2.973632812500000000e-01,3.454589843750000000e-02,7.780151367187500000e-01,5.523071289062500000e-01
-7.000000000000000000e+00,3.000000000000000000e+00,-4.000000000000000000e+00,-1.500000000000000000e+01,-1.000000000000000000e+00,1.000000000000000000e+00,-3.000000000000000000e+00,-1.000000000000000000e+00,-2.973632812500000000e-01,3.454589843750000000e-02,7.780151367187500000e-01,5.523071289062500000e-01
1.000000000000000000e+00,0.000000000000000000e+00,-1.000000000000000000e+01,1.100000000000000000e+01,2.000000000000000000e+00,-2.000000000000000000e+00,-1.000000000000000000e+00,3.000000000000000000e+00,-2.973632812500000000e-01,3.454589843750000000e-02,7.780151367187500000e-01,5.523071289062500000e-01
8.000000000000000000e+00,5.000000000000000000e+00,9.000000000000000000e+00,-1.000000000000000000e+01,-9.000000000000000000e+00,-2.000000000000000000e+00,0.000000000000000000e+00,1.000000000000000000e+00,-2.973632812500000000e-01,3.442382812500000000e-02,7.780151367187500000e-01,5.522460937500000000e-01
2.000000000000000000e+00,-1.000000000000000000e+00,-2.200000000000000000e+01,-1.000000000000000000e+00,4.000000000000000000e+00,3.000000000000000000e+00,-3.000000000000000000e+00,-1.000000000000000000e+00,-2.973632812500000000e-01,3.442382812500000000e-02,7.780151367187500000e-01,5.522460937500000000e-01
-1.000000000000000000e+00,-3.000000000000000000e+00,-7.000000000000000000e+00,2.000000000000000000e+00,-2.000000000000000000e+00,-4.000000000000000000e+00,-2.000000000000000000e+00,-3.000000000000000000e+00,-2.973632812500000000e-01,3.442382812500000000e-02,7.780151367187500000e-01,5.522460937500000000e-01
-3.000000000000000000e+00,1.000000000000000000e+00,0.000000000000000000e+00,-1.100000000000000000e+01,-2.000000000000000000e+00,0.000000000000000000e+00,1.000000000000000000e+00,-1.000000000000000000e+00,-2.973632812500000000e-01,3.442382812500000000e-02,7.780151367187500000e-01,5.522460937500000000e-01
-4.000000000000000000e+00,-7.000000000000000000e+00,-1.000000000000000000e+00,-9.000000000000000000e+00,2.000000000000000000e+00,0.000000000000000000e+00,-2.000000000000000000e+00,0.000000000000000000e+00,-2.974243164062500000e-01,3.399658203125000000e-02,7.780761718750000000e-01,5.521850585937500000e-01
1.000000000000000000e+00,4.000000000000000000e+00,1.700000000000000000e+01,-1.200000000000000000e+01,-9.000000000000000000e+00,-1.000000000000000000e+00,1.000000000000000000e+00,-3.000000000000000000e+00,-2.974243164062500000e-01,3.399658203125000000e-02,7.780761718750000000e-01,5.521850585937500000e-01
-1.100000000000000000e+01,-5.000000000000000000e+00,5.000000000000000000e+00,1.000000000000000000e+01,-5.000000000000000000e+00,0.000000000000000000e+00,-1.000000000000000000e+00,-1.000000000000000000e+00,-2.974243164062500000e-01,3.399658203125000000e-02,7.780761718750000000e-01,5.521850585937500000e-01
-1.000000000000000000e+00,3.000000000000000000e+00,6.000000000000000000e+00,-2.100000000000000000e+01,-2.000000000000000000e+00,2.000000000000000000e+00,-2.000000000000000000e+00,-4.000000000000000000e+00,-2.974243164062500000e-01,3.399658203125000000e-02,7.780761718750000000e-01,5.521850585937500000e-01
7.000000000000000000e+00,0.000000000000000000e+00,3.000000000000000000e+00,1.900000000000000000e+01,1.500000000000000000e+01,2.000000000000000000e+00,1.000000000000000000e+00,2.000000000000000000e+00,-2.974853515625000000e-01,3.350830078125000000e-02,7.780761718750000000e-01,5.522460937500000000e-01
6.000000000000000000e+00,4.000000000000000000e+00,1.200000000000000000e+01,-1.000000000000000000e+00,1.000000000000000000e+00,-2.000000000000000000e+00,0.000000000000000000e+00,-1.000000000000000000e+00,-2.974853515625000000e-01,3.350830078125000000e-02,7.780761718750000000e-01,5.522460937500000000e-01
-7.000000000000000000e+00,-5.000000000000000000e+00,-1.600000000000000000e+01,-1.000000000000000000e+00,-4.000000000000000000e+00,-5.000000000000000000e+00,-4.000000000000000000e+00,1.000000000000000000e+00,-2.974853515625000000e-01,3.350830078125000000e-02,7.780761718750000000e-01,5.522460937500000000e-01
0.000000000000000000e+00,-3.000000000000000000e+00,1.300000000000000000e+01,1.100000000000000000e+01,5.000000000000000000e+00,-1.000000000000000000e+00,0.000000000000000000e+00,0.000000000000000000e+00,-2.974853515625000000e-01,3.350830078125000000e-02,7.780761718750000000e-01,5.522460937500000000e-01
-4.000000000000000000e+00,-6.000000000000000000e+00,-9.000000000000000000e+00,-9.000000000000000000e+00,-7.000000000000000000e+00,-2.000000000000000000e+00,-2.000000000000000000e+00,-5.000000000000000000e+00,-2.974243164062500000e-01,3.350830078125000000e-02,7.780761718750000000e-01,5.522460937500000000e-01
-5.000000000000000000e+00,-5.000000000000000000e+00,4.000000000000000000e+00,6.000000000000000000e+00,4.000000000000000000e+00,0.000000000000000000e+00,0.000000000000000000e+00,-1.000000000000000000e+00,-2.974243164062500000e-01,3.350830078125000000e-02,7.780761718750000000e-01,5.522460937500000000e-01
1.500000000000000000e+01,8.000000000000000000e+00,-3.000000000000000000e+00,3.000000000000000000e+00,-7.000000000000000000e+00,-3.000000000000000000e+00,1.000000000000000000e+00,1.000000000000000000e+00,-2.974243164062500000e-01,3.350830078125000000e-02,7.780761718750000000e-01,5.522460937500000000e-01
7.000000000000000000e+00,-1.100000000000000000e+01,1.200000000000000000e+01,1.000000000000000000e+00,1.300000000000000000e+01,0.000000000000000000e+00,-2.000000000000000000e+00,1.000000000000000000e+00,-2.974243164062500000e-01,3.350830078125000000e-02,7.780761718750000000e-01,5.522460937500000000e-01
-2.000000000000000000e+00,1.300000000000000000e+01,-6.000000000000000000e+00,-1.700000000000000000e+01,-5.000000000000000000e+00,-3.000000000000000000e+00,-4.000000000000000000e+00,0.000000000000000000e+00,-2.974243164062500000e-01,3.350830078125000000e-02,7.780761718750000000e-01,5.522460937500000000e-01
-6.000000000000000000e+00,-4.000000000000000000e+00,7.000000000000000000e+00,0.000000000000000000e+00,-6.000000000000000000e+00,-3.000000000000000000e+00,-4.000000000000000000e+00,-1.000000000000000000e+00,-2.974243164062500000e-01,3.350830078125000000e-02,7.780761718750000000e-01,5.522460937500000000e-01
-6.000000000000000000e+00,-1.000000000000000000e+00,1.700000000000000000e+01,4.000000000000000000e+00,2.000000000000000000e+00,1.000000000000000000e+00,0.000000000000000000e+00,-1.000000000000000000e+00,-2.974243164062500000e-01,3.350830078125000000e-02,7.780761718750000000e-01,5.522460937500000000e-01
-3.000000000000000000e+00,0.000000000000000000e+00,-2.600000000000000000e+01,-4.000000000000000000e+00,-6.000000000000000000e+00,-3.000000000000000000e+00,-3.000000000000000000e+00,-2.000000000000000000e+00,-2.974243164062500000e-01,3.350830078125000000e-02,7.780761718750000000e-01,5.522460937500000000e-01
1.400000000000000000e+01,1.000000000000000000e+00,-3.000000000000000000e+00,-3.000000000000000000e+00,-4.000000000000000000e+00,-2.000000000000000000e+00,1.000000000000000000e+00,3.000000000000000000e+00,-2.974853515625000000e-01,3.332519531250000000e-02,7.781372070312500000e-01,5.521240234375000000e-01
-3.000000000000000000e+00,-3.000000000000000000e+00,4.000000000000000000e+00,-8.000000000000000000e+00,-3.000000000000000000e+00,-2.000000000000000000e+00,1.000000000000000000e+00,-3.000000000000000000e+00,-2.974853515625000000e-01,3.332519531250000000e-02,7.781372070312500000e-01,5.521240234375000000e-01
1.000000000000000000e+00,2.000000000000000000e+00,7.000000000000000000e+00,1.300000000000000000e+01,-3.000000000000000000e+00,-1.000000000000000000e+00,1.000000000000000000e+00,0.000000000000000000e+00,-2.974853515625000000e-01,3.332519531250000000e-02,7.781372070312500000e-01,5.521240234375000000e-01
5.000000000000000000e+00,1.000000000000000000e+00,-1.000000000000000000e+00,7.000000000000000000e+00,8.000000000000000000e+00,2.000000000000000000e+00,1.000000000000000000e+00,1.000000000000000000e+00,-2.974853515625000000e-01,3.332519531250000000e-02,7.781372070312500000e-01,5.521240234375000000e-01
-5.000000000000000000e+00,-3.000000000000000000e+00,4.000000000000000000e+00,-1.000000000000000000e+00,-3.000000000000000000e+00,0.000000000000000000e+00,-2.000000000000000000e+00,-2.000000000000000000e+00,-2.974853515625000000e-01,3.332519531250000000e-02,7.781372070312500000e-01,5.521240234375000000e-01
4.000000000000000000e+00,-2.000000000000000000e+00,-8.000000000000000000e+00,-1.000000000000000000e+00,-1.000000000000000000e+00,0.000000000000000000e+00,0.000000000000000000e+00,0.000000000000000000e+00,-2.974853515625000000e-01,3.332519531250000000e-02,7.781372070312500000e-01,5.521240234375000000e-01
-2.000000000000000000e+00,-6.000000000000000000e+00,-3.200000000000000000e+01,-1.300000000000000000e+01,-2.000000000000000000e+00,-2.000000000000000000e+00,-2.000000000000000000e+00,-1.000000000000000000e+00,-2.974853515625000000e-01,3.332519531250000000e-02,7.781372070312500000e-01,5.521240234375000000e-01
-3.000000000000000000e+00,2.000000000000000000e+00,3.000000000000000000e+00,-4.000000000000000000e+00,-8.000000000000000000e+00,-2.000000000000000000e+00,0.000000000000000000e+00,-1.000000000000000000e+00,-2.974853515625000000e-01,3.332519531250000000e-02,7.781372070312500000e-01,5.521240234375000000e-01
-1.100000000000000000e+01,-1.000000000000000000e+00,5.000000000000000000e+00,1.200000000000000000e+01,-4.000000000000000000e+00,-2.000000000000000000e+00,-1.000000000000000000e+00,0.000000000000000000e+00,-2.973022460937500000e-01,3.320312500000000000e-02,7.780761718750000000e-01,5.522460937500000000e-01
3.000000000000000000e+00,-7.000000000000000000e+00,2.100000000000000000e+01,4.000000000000000000e+00,-5.000000000000000000e+00,2.000000000000000000e+00,2.000000000000000000e+00,1.000000000000000000e+00,-2.973022460937500000e-01,3.320312500000000000e-02,7.780761718750000000e-01,5.522460937500000000e-01
6.000000000000000000e+00,3.000000000000000000e+00,-7.000000000000000000e+00,-3.000000000000000000e+00,-3.000000000000000000e+00,1.000000000000000000e+00,0.000000000000000000e+00,0.000000000000000000e+00,-2.973022460937500000e-01,3.320312500000000000e-02,7.780761718750000000e-01,5.522460937500000000e-01
-6.000000000000000000e+00,-1.000000000000000000e+00,-1.000000000000000000e+00,-1.400000000000000000e+01,0.000000000000000000e+00,-1.000000000000000000e+00,2.000000000000000000e+00,-1.000000000000000000e+00,-2.973022460937500000e-01,3.320312500000000000e-02,7.780761718750000000e-01,5.522460937500000000e-01
9.000000000000000000e+00,2.000000000000000000e+00,-2.000000000000000000e+00,1.300000000000000000e+01,7.000000000000000000e+00,0.000000000000000000e+00,-2.000000000000000000e+00,0.000000000000000000e+00,-2.969970703125000000e-01,3.295898437500000000e-02,7.781372070312500000e-01,5.523681640625000000e-01
-2.000000000000000000e+00,-4.000000000000000000e+00,-7.000000000000000000e+00,-5.000000000000000000e+00,-2.000000000000000000e+00,-2.000000000000000000e+00,-4.000000000000000000e+00,-2.000000000000000000e+00,-2.969970703125000000e-01,3.295898437500000000e-02,7.781372070312500000e-01,5.523681640625000000e-01
7.000000000000000000e+00,0.000000000000000000e+00,3.000000000000000000e+00,-2.000000000000000000e+00,1.000000000000000000e+00,-1.000000000000000000e+00,-3.000000000000000000e+00,1.000000000000000000e+00,-2.969970703125000000e-01,3.295898437500000000e-02,7.781372070312500000e-01,5.523681640625000000e-01
-2.300000000000000000e+01,-6.000000000000000000e+00,-2.000000000000000000e+00,5.000000000000000000e+00,-3.000000000000000000e+00,-3.000000000000000000e+00,-2.000000000000000000e+00,-4.000000000000000000e+00,-2.969970703125000000e-01,3.295898437500000000e-02,7.781372070312500000e-01,5.523681640625000000e-01
5.000000000000000000e+00,3.000000000000000000e+00,8.000000000000000000e+00,-1.800000000000000000e+01,-1.100000000000000000e+01,-4.000000000000000000e+00,0.000000000000000000e+00,-1.000000000000000000e+00,-2.967529296875000000e-01,3.277587890625000000e-02,7.782592773437500000e-01,5.524291992187500000e-01
-2.100000000000000000e+01,-2.000000000000000000e+00,-7.000000000000000000e+00,3.600000000000000000e+01,1.300000000000000000e+01,0.000000000000000000e+00,-2.000000000000000000e+00,-3.000000000000000000e+00,-2.967529296875000000e-01,3.277587890625000000e-02,7.782592773437500000e-01,5.524291992187500000e-01
-4.000000000000000000e+00,-7.000000000000000000e+00,-3.600000000000000000e+01,-5.000000000000000000e+00,7.000000000000000000e+00,2.000000000000000000e+00,0.000000000000000000e+00,-3.000000000000000000e+00,-2.967529296875000000e-01,3.277587890625000000e-02,7.782592773437500000e-01,5.524291992187500000e-01
8.000000000000000000e+00,-2.000000000000000000e+00,0.000000000000000000e+00,-1.000000000000000000e+00,-5.000000000000000000e+00,0.000000000000000000e+00,0.000000000000000000e+00,0.000000000000000000e+00,-2.967529296875000000e-01,3.277587890625000000e-02,7.782592773437500000e-01,5.524291992187500000e-01
-1.000000000000000000e+00,3.000000000000000000e+00,6.000000000000000000e+00,-4.000000000000000000e+00,1.000000000000000000e+00,2.000000000000000000e+00,2.000000000000000000e+00,0.000000000000000000e+00,-2.966308593750000000e-01,3.253173828125000000e-02,7.783813476562500000e-01,5.523071289062500000e-01
8.000000000000000000e+00,4.000000000000000000e+00,-1.100000000000000000e+01,-6.000000000000000000e+00,-3.000000000000000000e+00,-2.000000000000000000e+00,1.000000000000000000e+00,1.000000000000000000e+00,-2.966308593750000000e-01,3.253173828125000000e-02,7.783813476562500000e-01,5.523071289062500000e-01
-3.000000000000000000e+00,1.000000000000000000e+00,4.700000000000000000e+01,1.200000000000000000e+01,4.000000000000000000e+00,-1.000000000000000000e+00,-1.000000000000000000e+00,0.000000000000000000e+00,-2.966308593750000000e-01,3.253173828125000000e-02,7.783813476562500000e-01,5.523071289062500000e-01
0.000000000000000000e+00,1.000000000000000000e+00,-1.100000000000000000e+01,5.000000000000000000e+00,-3.000000000000000000e+00,-5.000000000000000000e+00,-5.000000000000000000e+00,-2.000000000000000000e+00,-2.966308593750000000e-01,3.253173828125000000e-02,7.783813476562500000e-01,5.523071289062500000e-01
-8.000000000000000000e+00,-8.000000000000000000e+00,-1.700000000000000000e+01,-1.000000000000000000e+00,2.000000000000000000e+00,1.000000000000000000e+00,0.000000000000000000e+00,-4.000000000000000000e+00,-2.965087890625000000e-01,3.204345703125000000e-02,7.786254882812500000e-01,5.520019531250000000e-01
-1.400000000000000000e+01,-7.000000000000000000e+00,6.000000000000000000e+00,-1.900000000000000000e+01,-5.000000000000000000e+00,-3.000000000000000000e+00,-3.000000000000000000e+00,-3.000000000000000000e+00,-2.965087890625000000e-01,3.204345703125000000e-02,7.786254882812500000e-01,5.520019531250000000e-01
5.000000000000000000e+00,0.000000000000000000e+00,4.000000000000000000e+00,5.000000000000000000e+00,-1.000000000000000000e+00,1.000000000000000000e+00,0.000000000000000000e+00,-2.000000000000000000e+00,-2.965087890625000000e-01,3.204345703125000000e-02,7.786254882812500000e-01,5.520019531250000000e-01
4.000000000000000000e+00,-1.000000000000000000e+00,7.000000000000000000e+00,-7.000000000000000000e+00,-2.000000000000000000e+00,-1.000000000000000000e+00,3.000000000000000000e+00,-1.000000000000000000e+00,-2.965087890625000000e-01,3.204345703125000000e-02,7.786254882812500000e-01,5.520019531250000000e-01
1.200000000000000000e+01,4.000000000000000000e+00,8.000000000000000000e+00,-1.000000000000000000e+00,-4.000000000000000000e+00,-1.000000000000000000e+00,-1.000000000000000000e+00,1.000000000000000000e+00,-2.963867187500000000e-01,3.149414062500000000e-02,7.788085937500000000e-01,5.518188476562500000e-01
0.000000000000000000e+00,-2.000000000000000000e+00,-1.900000000000000000e+01,1.100000000000000000e+01,-1.100000000000000000e+01,-3.000000000000000000e+00,-1.000000000000000000e+00,0.000000000000000000e+00,-2.963867187500000000e-01,3.149414062500000000e-02,7.788085937500000000e-01,5.518188476562500000e-01
-1.000000000000000000e+01,-3.000000000000000000e+00,3.000000000000000000e+00,-1.000000000000000000e+01,8.000000000000000000e+00,0.000000000000000000e+00,-3.000000000000000000e+00,-1.000000000000000000e+00,-2.963867187500000000e-01,3.149414062500000000e-02,7.788085937500000000e-01,5.518188476562500000e-01
-2.000000000000000000e+00,-3.000000000000000000e+00,-1.400000000000000000e+01,1.800000000000000000e+01,-5.000000000000000000e+00,0.000000000000000000e+00,0.000000000000000000e+00,-2.000000000000000000e+00,-2.963867187500000000e-01,3.149414062500000000e-02,7.788085937500000000e-01,5.518188476562500000e-01
-3.000000000000000000e+00,-3.000000000000000000e+00,-4.000000000000000000e+00,-4.000000000000000000e+00,-4.000000000000000000e+00,-1.000000000000000000e+00,-2.000000000000000000e+00,-2.000000000000000000e+00,-2.960205078125000000e-01,3.149414062500000000e-02,7.788696289062500000e-01,5.520019531250000000e-01
3.000000000000000000e+00,4.000000000000000000e+00,-5.000000000000000000e+00,-1.200000000000000000e+01,5.000000000000000000e+00,2.000000000000000000e+00,1.000000000000000000e+00,0.000000000000000000e+00,-2.960205078125000000e-01,3.149414062500000000e-02,7.788696289062500000e-01,5.520019531250000000e-01
0.000000000000000000e+00,5.000000000000000000e+00,3.000000000000000000e+00,1.500000000000000000e+01,-3.000000000000000000e+00,-1.000000000000000000e+00,2.000000000000000000e+00,1.000000000000000000e+00,-2.960205078125000000e-01,3.149414062500000000e-02,7.788696289062500000e-01,5.520019531250000000e-01
5.000000000000000000e+00,1.000000000000000000e+00,8.000000000000000000e+00,-1.000000000000000000e+00,2.000000000000000000e+00,3.000000000000000000e+00,-2.000000000000000000e+00,-1.000000000000000000e+00,-2.960205078125000000e-01,3.149414062500000000e-02,7.788696289062500000e-01,5.520019531250000000e-01
5.000000000000000000e+00,0.000000000000000000e+00,-3.000000000000000000e+00,-1.000000000000000000e+00,-1.000000000000000000e+00,0.000000000000000000e+00,0.000000000000000000e+00,-1.000000000000000000e+00,-2.959594726562500000e-01,3.149414062500000000e-02,7.788696289062500000e-01,5.520019531250000000e-01
-8.000000000000000000e+00,-6.000000000000000000e+00,-2.200000000000000000e+01,-1.000000000000000000e+01,1.000000000000000000e+00,1.000000000000000000e+00,-2.000000000000000000e+00,-4.000000000000000000e+00,-2.959594726562500000e-01,3.149414062500000000e-02,7.788696289062500000e-01,5.520019531250000000e-01
0.000000000000000000e+00,-1.000000000000000000e+00,-2.000000000000000000e+00,-4.000000000000000000e+00,-2.000000000000000000e+00,1.000000000000000000e+00,0.000000000000000000e+00,-2.000000000000000000e+00,-2.959594726562500000e-01,3.149414062500000000e-02,7.788696289062500000e-01,5.520019531250000000e-01
-3.000000000000000000e+00,4.000000000000000000e+00,2.000000000000000000e+00,-3.000000000000000000e+00,4.000000000000000000e+00,0.000000000000000000e+00,-1.000000000000000000e+00,0.000000000000000000e+00,-2.959594726562500000e-01,3.149414062500000000e-02,7.788696289062500000e-01,5.520019531250000000e-01
0.000000000000000000e+00,-9.000000000000000000e+00,-2.000000000000000000e+00,1.000000000000000000e+00,2.000000000000000000e+00,-2.000000000000000000e+00,-3.000000000000000000e+00,0.000000000000000000e+00,-2.960815429687500000e-01,3.125000000000000000e-02,7.791137695312500000e-01,5.516357421875000000e-01
8.000000000000000000e+00,9.000000000000000000e+00,1.200000000000000000e+01,-2.000000000000000000e+00,4.000000000000000000e+00,2.000000000000000000e+00,-1.000000000000000000e+00,-2.000000000000000000e+00,-2.960815429687500000e-01,3.125000000000000000e-02,7.791137695312500000e-01,5.516357421875000000e-01
9.000000000000000000e+00,6.000000000000000000e+00,-6.000000000000000000e+00,-1.600000000000000000e+01,-7.000000000000000000e+00,-5.000000000000000000e+00,1.000000000000000000e+00,0.000000000000000000e+00,-2.960815429687500000e-01,3.125000000000000000e-02,7.791137695312500000e-01,5.516357421875000000e-01
-5.000000000000000000e+00,-5.000000000000000000e+00,-1.000000000000000000e+00,7.000000000000000000e+00,7.000000000000000000e+00,1.000000000000000000e+00,-4.000000000000000000e+00,-2.000000000000000000e+00,-2.960815429687500000e-01,3.125000000000000000e-02,7.791137695312500000e-01,5.516357421875000000e-01
-2.000000000000000000e+00,-3.000000000000000000e+00,-1.700000000000000000e+01,-1.000000000000000000e+00,0.000000000000000000e+00,0.000000000000000000e+00,-3.000000000000000000e+00,0.000000000000000000e+00,-2.962646484375000000e-01,3.100585937500000000e-02,7.792968750000000000e-01,5.512695312500000000e-01
4.000000000000000000e+00,0.000000000000000000e+00,-9.000000000000000000e+00,-8.000000000000000000e+00,-7.000000000000000000e+00,-4.000000000000000000e+00,-3.000000000000000000e+00,0.000000000000000000e+00,-2.962646484375000000e-01,3.100585937500000000e-02,7.792968750000000000e-01,5.512695312500000000e-01
-8.000000000000000000e+00,-5.000000000000000000e+00,-8.000000000000000000e+00,-2.000000000000000000e+01,-4.000000000000000000e+00,-1.000000000000000000e+00,0.000000000000000000e+00,1.000000000000000000e+00,-2.962646484375000000e-01,3.100585937500000000e-02,7.792968750000000000e-01,5.512695312500000000e-01
-1.000000000000000000e+01,-4.000000000000000000e+00,1.200000000000000000e+01,1.500000000000000000e+01,1.000000000000000000e+01,-2.000000000000000000e+00,-3.000000000000000000e+00,-2.000000000000000000e+00,-2.962646484375000000e-01,3.100585937500000000e-02,7.792968750000000000e-01,5.512695312500000000e-01
-5.000000000000000000e+00,2.000000000000000000e+00,3.000000000000000000e+00,-3.000000000000000000e+00,0.000000000000000000e+00,-1.000000000000000000e+00,2.000000000000000000e+00,-1.000000000000000000e+00,-2.963867187500000000e-01,3.082275390625000000e-02,7.794189453125000000e-01,5.510253906250000000e-01
4.000000000000000000e+00,-5.000000000000000000e+00,1.700000000000000000e+01,9.000000000000000000e+00,-6.000000000000000000e+00,-2.000000000000000000e+00,-2.000000000000000000e+00,0.000000000000000000e+00,-2.963867187500000000e-01,3.082275390625000000e-02,7.794189453125000000e-01,5.510253906250000000e-01
6.000000000000000000e+00,1.000000000000000000e+00,-1.500000000000000000e+01,8.000000000000000000e+00,2.000000000000000000e+00,1.000000000000000000e+00,-1.000000000000000000e+00,-1.000000000000000000e+00,-2.963867187500000000e-01,3.082275390625000000e-02,7.794189453125000000e-01,5.510253906250000000e-01
-8.000000000000000000e+00,-4.000000000000000000e+00,-5.000000000000000000e+00,-2.100000000000000000e+01,-1.200000000000000000e+01,-4.000000000000000000e+00,-1.000000000000000000e+00,2.000000000000000000e+00,-2.963867187500000000e-01,3.082275390625000000e-02,7.794189453125000000e-01,5.510253906250000000e-01
-8.000000000000000000e+00,-4.000000000000000000e+00,9.000000000000000000e+00,1.500000000000000000e+01,4.000000000000000000e+00,1.000000000000000000e+00,2.000000000000000000e+00,-1.000000000000000000e+00,-2.963867187500000000e-01,3.051757812500000000e-02,7.794799804687500000e-01,5.509643554687500000e-01
3.000000000000000000e+00,-2.000000000000000000e+00,-1.000000000000000000e+00,5.000000000000000000e+00,2.000000000000000000e+00,0.000000000000000000e+00,0.000000000000000000e+00,2.000000000000000000e+00,-2.963867187500000000e-01,3.051757812500000000e-02,7.794799804687500000e-01,5.509643554687500000e-01
-2.000000000000000000e+00,-4.000000000000000000e+00,6.000000000000000000e+00,2.000000000000000000e+00,2.000000000000000000e+00,0.000000000000000000e+00,-2.000000000000000000e+00,-5.000000000000000000e+00,-2.963867187500000000e-01,3.051757812500000000e-02,7.794799804687500000e-01,5.509643554687500000e-01
8.000000000000000000e+00,5.000000000000000000e+00,3.000000000000000000e+00,0.000000000000000000e+00,-5.000000000000000000e+00,-2.000000000000000000e+00,2.000000000000000000e+00,0.000000000000000000e+00,-2.963867187500000000e-01,3.051757812500000000e-02,7.794799804687500000e-01,5.509643554687500000e-01
-1.100000000000000000e+01,-3.000000000000000000e+00,1.000000000000000000e+00,-8.000000000000000000e+00,4.000000000000000000e+00,0.000000000000000000e+00,0.000000000000000000e+00,0.000000000000000000e+00,-2.963867187500000000e-01,3.051757812500000000e-02,7.794799804687500000e-01,5.509643554687500000e-01
1.400000000000000000e+01,-1.000000000000000000e+00,5.000000000000000000e+00,-7.000000000000000000e+00,0.000000000000000000e+00,-1.000000000000000000e+00,0.000000000000000000e+00,2.000000000000000000e+00,-2.963867187500000000e-01,3.051757812500000000e-02,7.794799804687500000e-01,5.509643554687500000e-01
-3.000000000000000000e+00,0.000000000000000000e+00,3.000000000000000000e+00,1.000000000000000000e+01,3.000000000000000000e+00,1.000000000000000000e+00,-2.000000000000000000e+00,0.000000000000000000e+00,-2.963867187500000000e-01,3.051757812500000000e-02,7.794799804687500000e-01,5.509643554687500000e-01
5.000000000000000000e+00,3.000000000000000000e+00,-7.000000000000000000e+00,-1.900000000000000000e+01,-1.200000000000000000e+01,-4.000000000000000000e+00,-6.000000000000000000e+00,-1.000000000000000000e+00,-2.963867187500000000e-01,3.051757812500000000e-02,7.794799804687500000e-01,5.509643554687500000e-01
7.000000000000000000e+00,7.000000000000000000e+00,8.000000000000000000e+00,-5.000000000000000000e+00,-2.000000000000000000e+00,0.000000000000000000e+00,0.000000000000000000e+00,0.000000000000000000e+00,-2.963867187500000000e-01,3.027343750000000000e-02,7.796630859375000000e-01,5.507202148437500000e-01
-1.200000000000000000e+01,-7.000000000000000000e+00,-1.000000000000000000e+01,7.000000000000000000e+00,0.000000000000000000e+00,0.000000000000000000e+00,-1.000000000000000000e+00,-2.000000000000000000e+00,-2.963867187500000000e-01,3.027343750000000000e-02,7.796630859375000000e-01,5.507202148437500000e-01
0.000000000000000000e+00,-4.000000000000000000e+00,-1.200000000000000000e+01,-1.000000000000000000e+00,2.100000000000000000e+01,2.000000000000000000e+00,-3.000000000000000000e+00,0.000000000000000000e+00,-2.963867187500000000e-01,3.027343750000000000e-02,7.796630859375000000e-01,5.507202148437500000e-01
-7.000000000000000000e+00,-3.000000000000000000e+00,1.700000000000000000e+01,1.200000000000000000e+01,-7.000000000000000000e+00,-2.000000000000000000e+00,1.000000000000000000e+00,0.000000000000000000e+00,-2.963867187500000000e-01,3.027343750000000000e-02,7.796630859375000000e-01,5.507202148437500000e-01
6.000000000000000000e+00,-3.000000000000000000e+00,-9.000000000000000000e+00,-1.900000000000000000e+01,-2.000000000000000000e+00,-4.000000000000000000e+00,-4.000000000000000000e+00,0.000000000000000000e+00,-2.964477539062500000e-01,2.966308593750000000e-02,7.799072265625000000e-01,5.503540039062500000e-01
2.000000000000000000e+00,-6.000000000000000000e+00,-7.000000000000000000e+00,-4.000000000000000000e+00,-4.000000000000000000e+00,-1.000000000000000000e+00,-3.000000000000000000e+00,0.000000000000000000e+00,-2.964477539062500000e-01,2.966308593750000000e-02,7.799072265625000000e-01,5.503540039062500000e-01
-1.100000000000000000e+01,-1.000000000000000000e+00,0.000000000000000000e+00,6.000000000000000000e+00,-2.000000000000000000e+00,-1.000000000000000000e+00,0.000000000000000000e+00,-2.000000000000000000e+00,-2.964477539062500000e-01,2.966308593750000000e-02,7.799072265625000000e-01,5.503540039062500000e-01
8.000000000000000000e+00,-7.000000000000000000e+00,-1.100000000000000000e+01,-4.000000000000000000e+00,-1.000000000000000000e+01,-2.000000000000000000e+00,-1.000000000000000000e+00,0.000000000000000000e+00,-2.964477539062500000e-01,2.966308593750000000e-02,7.799072265625000000e-01,5.503540039062500000e-01
-2.000000000000000000e+01,-4.000000000000000000e+00,-1.000000000000000000e+00,1.000000000000000000e+01,-3.000000000000000000e+00,1.000000000000000000e+00,-5.000000000000000000e+00,-4.000000000000000000e+00,-2.963256835937500000e-01,2.923583984375000000e-02,7.800903320312500000e-01,5.502319335937500000e-01
-3.000000000000000000e+00,-2.000000000000000000e+00,-1.000000000000000000e+00,-2.500000000000000000e+01,-5.000000000000000000e+00,-2.000000000000000000e+00,-3.000000000000000000e+00,-2.000000000000000000e+00,-2.963256835937500000e-01,2.923583984375000000e-02,7.800903320312500000e-01,5.502319335937500000e-01
2.000000000000000000e+00,-3.000000000000000000e+00,6.000000000000000000e+00,1.500000000000000000e+01,4.000000000000000000e+00,0.000000000000000000e+00,-2.000000000000000000e+00,1.000000000000000000e+00,-2.963256835937500000e-01,2.923583984375000000e-02,7.800903320312500000e-01,5.502319335937500000e-01
-5.000000000000000000e+00,1.000000000000000000e+00,-2.000000000000000000e+00,-5.000000000000000000e+00,-3.000000000000000000e+00,-3.000000000000000000e+00,0.000000000000000000e+00,-1.000000000000000000e+00,-2.963256835937500000e-01,2.923583984375000000e-02,7.800903320312500000e-01,5.502319335937500000e-01
1.200000000000000000e+01,-7.000000000000000000e+00,-1.800000000000000000e+01,-7.000000000000000000e+00,-3.000000000000000000e+00,-1.000000000000000000e+00,-1.000000000000000000e+00,1.000000000000000000e+00,-2.958374023437500000e-01,2.935791015625000000e-02,7.802124023437500000e-01,5.503540039062500000e-01
2.000000000000000000e+00,2.000000000000000000e+00,1.100000000000000000e+01,-9.000000000000000000e+00,-5.000000000000000000e+00,-2.000000000000000000e+00,0.000000000000000000e+00,-2.000000000000000000e+00,-2.958374023437500000e-01,2.935791015625000000e-02,7.802124023437500000e-01,5.503540039062500000e-01
-2.000000000000000000e+00,-4.000000000000000000e+00,-1.000000000000000000e+00,-7.000000000000000000e+00,-1.000000000000000000e+01,-3.000000000000000000e+00,1.000000000000000000e+00,-3.000000000000000000e+00,-2.958374023437500000e-01,2.935791015625000000e-02,7.802124023437500000e-01,5.503540039062500000e-01
3.000000000000000000e+00,2.000000000000000000e+00,-2.000000000000000000e+00,-5.000000000000000000e+00,1.000000000000000000e+00,0.000000000000000000e+00,-3.000000000000000000e+00,-1.000000000000000000e+00,-2.958374023437500000e-01,2.935791015625000000e-02,7.802124023437500000e-01,5.503540039062500000e-01
-6.000000000000000000e+00,0.000000000000000000e+00,8.000000000000000000e+00,7.000000000000000000e+00,-1.000000000000000000e+00,-2.000000000000000000e+00,1.000000000000000000e+00,-2.000000000000000000e+00,-2.957763671875000000e-01,2.935791015625000000e-02,7.802124023437500000e-01,5.503540039062500000e-01
3.000000000000000000e+00,2.000000000000000000e+00,1.500000000000000000e+01,2.000000000000000000e+00,3.000000000000000000e+00,-2.000000000000000000e+00,0.000000000000000000e+00,-2.000000000000000000e+00,-2.957763671875000000e-01,2.935791015625000000e-02,7.802124023437500000e-01,5.503540039062500000e-01
8.000000000000000000e+00,-2.000000000000000000e+00,-1.400000000000000000e+01,-4.000000000000000000e+00,-5.000000000000000000e+00,-1.000000000000000000e+00,2.000000000000000000e+00,2.000000000000000000e+00,-2.957763671875000000e-01,2.935791015625000000e-02,7.802124023437500000e-01,5.503540039062500000e-01
-3.000000000000000000e+01,2.000000000000000000e+00,1.200000000000000000e+01,3.000000000000000000e+00,7.000000000000000000e+00,-1.000000000000000000e+00,-3.000000000000000000e+00,-5.000000000000000000e+00,-2.957763671875000000e-01,2.935791015625000000e-02,7.802124023437500000e-01,5.503540039062500000e-01
3.000000000000000000e+00,4.000000000000000000e+00,-1.400000000000000000e+01,-1.100000000000000000e+01,-1.500000000000000000e+01,-5.000000000000000000e+00,0.000000000000000000e+00,2.000000000000000000e+00,-2.958374023437500000e-01,2.880859375000000000e-02,7.804565429687500000e-01,5.499877929687500000e-01
-3.000000000000000000e+00,1.000000000000000000e+00,0.000000000000000000e+00,1.100000000000000000e+01,1.200000000000000000e+01,3.000000000000000000e+00,-2.000000000000000000e+00,-2.000000000000000000e+00,-2.958374023437500000e-01,2.880859375000000000e-02,7.804565429687500000e-01,5.499877929687500000e-01
-3.000000000000000000e+00,-3.000000000000000000e+00,3.000000000000000000e+00,5.000000000000000000e+00,-8.000000000000000000e+00,-4.000000000000000000e+00,-1.000000000000000000e+00,-2.000000000000000000e+00,-2.958374023437500000e-01,2.880859375000000000e-02,7.804565429687500000e-01,5.499877929687500000e-01
9.000000000000000000e+00,-1.000000000000000000e+00,-1.000000000000000000e+01,-2.000000000000000000e+01,-5.000000000000000000e+00,-2.000000000000000000e+00,2.000000000000000000e+00,1.000000000000000000e+00,-2.958374023437500000e-01,2.880859375000000000e-02,7.804565429687500000e-01,5.499877929687500000e-01
-5.000000000000000000e+00,-1.000000000000000000e+01,1.000000000000000000e+01,3.100000000000000000e+01,6.000000000000000000e+00,3.000000000000000000e+00,1.000000000000000000e+00,-2.000000000000000000e+00,-2.959594726562500000e-01,2.844238281250000000e-02,7.806396484375000000e-01,5.497436523437500000e-01
7.000000000000000000e+00,-1.000000000000000000e+00,-3.000000000000000000e+01,-9.000000000000000000e+00,-1.300000000000000000e+01,-7.000000000000000000e+00,-7.000000000000000000e+00,0.000000000000000000e+00,-2.959594726562500000e-01,2.844238281250000000e-02,7.806396484375000000e-01,5.497436523437500000e-01
-2.000000000000000000e+00,2.000000000000000000e+00,9.000000000000000000e+00,-1.400000000000000000e+01,-4.000000000000000000e+00,-4.000000000000000000e+00,-3.000000000000000000e+00,-2.000000000000000000e+00,-2.959594726562500000e-01,2.844238281250000000e-02,7.806396484375000000e-01,5.497436523437500000e-01
1.700000000000000000e+01,6.000000000000000000e+00,-8.000000000000000000e+00,1.600000000000000000e+01,1.300000000000000000e+01,5.000000000000000000e+00,2.000000000000000000e+00,2.000000000000000000e+00,-2.959594726562500000e-01,2.844238281250000000e-02,7.806396484375000000e-01,5.497436523437500000e-01
-1.300000000000000000e+01,-8.000000000000000000e+00,9.000000000000000000e+00,-1.500000000000000000e+01,1.000000000000000000e+00,0.000000000000000000e+00,-1.000000000000000000e+00,-3.000000000000000000e+00,-2.957153320312500000e-01,2.862548828125000000e-02,7.807006835937500000e-01,5.496826171875000000e-01
-1.000000000000000000e+00,-3.000000000000000000e+00,-8.000000000000000000e+00,2.000000000000000000e+00,-1.000000000000000000e+00,-2.000000000000000000e+00,4.000000000000000000e+00,1.000000000000000000e+00,-2.957153320312500000e-01,2.862548828125000000e-02,7.807006835937500000e-01,5.496826171875000000e-01
-4.000000000000000000e+00,0.000000000000000000e+00,-1.000000000000000000e+00,5.000000000000000000e+00,7.000000000000000000e+00,3.000000000000000000e+00,1.000000000000000000e+00,-3.000000000000000000e+00,-2.957153320312500000e-01,2.862548828125000000e-02,7.807006835937500000e-01,5.496826171875000000e-01
-6.000000000000000000e+00,-6.000000000000000000e+00,-2.000000000000000000e+00,-1.000000000000000000e+00,-8.000000000000000000e+00,-3.000000000000000000e+00,-1.000000000000000000e+00,-1.000000000000000000e+00,-2.957153320312500000e-01,2.862548828125000000e-02,7.807006835937500000e-01,5.496826171875000000e-01
5.000000000000000000e+00,4.000000000000000000e+00,-5.000000000000000000e+00,-8.000000000000000000e+00,0.000000000000000000e+00,-2.000000000000000000e+00,-2.000000000000000000e+00,-1.000000000000000000e+00,-2.956542968750000000e-01,2.862548828125000000e-02,7.807006835937500000e-01,5.497436523437500000e-01
5.000000000000000000e+00,6.000000000000000000e+00,2.000000000000000000e+01,1.500000000000000000e+01,4.000000000000000000e+00,-2.000000000000000000e+00,0.000000000000000000e+00,-1.000000000000000000e+00,-2.956542968750000000e-01,2.862548828125000000e-02,7.807006835937500000e-01,5.497436523437500000e-01
-8.000000000000000000e+00,-9.000000000000000000e+00,-1.000000000000000000e+01,-1.600000000000000000e+01,-5.000000000000000000e+00,-4.000000000000000000e+00,-2.000000000000000000e+00,0.000000000000000000e+00,-2.956542968750000000e-01,2.862548828125000000e-02,7.807006835937500000e-01,5.497436523437500000e-01
1.100000000000000000e+01,2.000000000000000000e+00,0.000000000000000000e+00,5.000000000000000000e+00,-1.000000000000000000e+01,-1.000000000000000000e+00,2.000000000000000000e+00,-1.000000000000000000e+00,-2.956542968750000000e-01,2.862548828125000000e-02,7.807006835937500000e-01,5.497436523437500000e-01
-1.000000000000000000e+00,-3.000000000000000000e+00,-8.000000000000000000e+00,1.400000000000000000e+01,2.400000000000000000e+01,5.000000000000000000e+00,-2.000000000000000000e+00,0.000000000000000000e+00,-2.957153320312500000e-01,2.844238281250000000e-02,7.808227539062500000e-01,5.495605468750000000e-01
-1.200000000000000000e+01,-4.000000000000000000e+00,1.000000000000000000e+00,-7.000000000000000000e+00,-2.000000000000000000e+00,0.000000000000000000e+00,1.000000000000000000e+00,-2.000000000000000000e+00,-2.957153320312500000e-01,2.844238281250000000e-02,7.808227539062500000e-01,5.495605468750000000e-01
1.200000000000000000e+01,8.000000000000000000e+00,1.400000000000000000e+01,8.000000000000000000e+00,-2.000000000000000000e+00,-1.000000000000000000e+00,0.000000000000000000e+00,0.000000000000000000e+00,-2.957153320312500000e-01,2.844238281250000000e-02,7.808227539062500000e-01,5.495605468750000000e-01
-2.500000000000000000e+01,-4.000000000000000000e+00,1.000000000000000000e+01,-1.000000000000000000e+00,1.600000000000000000e+01,2.000000000000000000e+00,-1.000000000000000000e+00,-3.000000000000000000e+00,-2.957153320312500000e-01,2.844238281250000000e-02,7.808227539062500000e-01,5.495605468750000000e-01
1.000000000000000000e+00,-5.000000000000000000e+00,-2.000000000000000000e+01,-1.000000000000000000e+01,-9.000000000000000000e+00,-7.000000000000000000e+00,-2.000000000000000000e+00,0.000000000000000000e+00,-2.957153320312500000e-01,2.844238281250000000e-02,7.808227539062500000e-01,5.495605468750000000e-01
-3.000000000000000000e+00,6.000000000000000000e+00,-1.000000000000000000e+00,-2.000000000000000000e+00,-1.200000000000000000e+01,-1.000000000000000000e+00,1.000000000000000000e+00,-2.000000000000000000e+00,-2.957153320312500000e-01,2.844238281250000000e-02,7.808227539062500000e-01,5.495605468750000000e-01
0.000000000000000000e+00,-9.000000000000000000e+00,3.000000000000000000e+00,3.000000000000000000e+00,6.000000000000000000e+00,-2.000000000000000000e+00,-3.000000000000000000e+00,-3.000000000000000000e+00,-2.957153320312500000e-01,2.844238281250000000e-02,7.808227539062500000e-01,5.495605468750000000e-01
9.000000000000000000e+00,3.000000000000000000e+00,3.000000000000000000e+00,-8.000000000000000000e+00,-1.200000000000000000e+01,-5.000000000000000000e+00,-1.000000000000000000e+00,0.000000000000000000e+00,-2.957153320312500000e-01,2.844238281250000000e-02,7.808227539062500000e-01,5.495605468750000000e-01
3.000000000000000000e+00,3.000000000000000000e+00,2.900000000000000000e+01,6.000000000000000000e+00,5.000000000000000000e+00,4.000000000000000000e+00,-2.000000000000000000e+00,-3.000000000000000000e+00,-2.955932617187500000e-01,2.856445312500000000e-02,7.809448242187500000e-01,5.494384765625000000e-01
-7.000000000000000000e+00,-1.000000000000000000e+00,-2.000000000000000000e+00,0.000000000000000000e+00,-1.000000000000000000e+00,0.000000000000000000e+00,1.000000000000000000e+00,-2.000000000000000000e+00,-2.955932617187500000e-01,2.856445312500000000e-02,7.809448242187500000e-01,5.494384765625000000e-01
0.000000000000000000e+00,-4.000000000000000000e+00,-1.500000000000000000e+01,-2.000000000000000000e+00,-2.000000000000000000e+00,0.000000000000000000e+00,1.000000000000000000e+00,1.000000000000000000e+00,-2.955932617187500000e-01,2.856445312500000000e-02,7.809448242187500000e-01,5.494384765625000000e-01
3.000000000000000000e+00,0.000000000000000000e+00,-7.000000000000000000e+00,3.000000000000000000e+00,6.000000000000000000e+00,3.000000000000000000e+00,2.000000000000000000e+00,1.000000000000000000e+00,-2.955932617187500000e-01,2.856445312500000000e-02,7.809448242187500000e-01,5.494384765625000000e-01
-2.000000000000000000e+00,-2.000000000000000000e+00,-2.300000000000000000e+01,-4.000000000000000000e+00,-7.000000000000000000e+00,-7.000000000000000000e+00,-6.000000000000000000e+00,-3.000000000000000000e+00,-2.954101562500000000e-01,2.850341796875000000e-02,7.812500000000000000e-01,5.490722656250000000e-01
3.000000000000000000e+00,6.000000000000000000e+00,5.000000000000000000e+00,-4.000000000000000000e+00,0.000000000000000000e+00,-1.000000000000000000e+00,0.000000000000000000e+00,-1.000000000000000000e+00,-2.954101562500000000e-01,2.850341796875000000e-02,7.812500000000000000e-01,5.490722656250000000e-01
-5.000000000000000000e+00,-3.000000000000000000e+00,2.000000000000000000e+00,-2.000000000000000000e+00,-1.200000000000000000e+01,0.000000000000000000e+00,-4.000000000000000000e+00,-1.000000000000000000e+00,-2.954101562500000000e-01,2.850341796875000000e-02,7.812500000000000000e-01,5.490722656250000000e-01
1.100000000000000000e+01,-5.000000000000000000e+00,5.000000000000000000e+00,2.000000000000000000e+00,5.000000000000000000e+00,-2.000000000000000000e+00,-3.000000000000000000e+00,0.000000000000000000e+00,-2.954101562500000000e-01,2.850341796875000000e-02,7.812500000000000000e-01,5.490722656250000000e-01
-9.000000000000000000e+00,4.000000000000000000e+00,1.000000000000000000e+00,-7.000000000000000000e+00,-9.000000000000000000e+00,-3.000000000000000000e+00,0.000000000000000000e+00,0.000000000000000000e+00,-2.954711914062500000e-01,2.819824218750000000e-02,7.814331054687500000e-01,5.488281250000000000e-01
-1.800000000000000000e+01,-5.000000000000000000e+00,-6.000000000000000000e+00,-1.000000000000000000e+00,8.000000000000000000e+00,2.000000000000000000e+00,2.000000000000000000e+00,1.000000000000000000e+00,-2.954711914062500000e-01,2.819824218750000000e-02,7.814331054687500000e-01,5.488281250000000000e-01
2.000000000000000000e+00,4.000000000000000000e+00,1.900000000000000000e+01,9.000000000000000000e+00,0.000000000000000000e+00,1.000000000000000000e+00,1.000000000000000000e+00,0.000000000000000000e+00,-2.954711914062500000e-01,2.819824218750000000e-02,7.814331054687500000e-01,5.488281250000000000e-01
-5.000000000000000000e+00,-7.000000000000000000e+00,-5.000000000000000000e+01,-1.500000000000000000e+01,2.000000000000000000e+00,1.000000000000000000e+00,-3.000000000000000000e+00,-3.000000000000000000e+00,-2.954711914062500000e-01,2.819824218750000000e-02,7.814331054687500000e-01,5.488281250000000000e-01
1.200000000000000000e+01,0.000000000000000000e+00,2.900000000000000000e+01,5.000000000000000000e+00,-7.000000000000000000e+00,0.000000000000000000e+00,0.000000000000000000e+00,1.000000000000000000e+00,-2.952270507812500000e-01,2.844238281250000000e-02,7.814941406250000000e-01,5.488281250000000000e-01
8.000000000000000000e+00,-6.000000000000000000e+00,-1.500000000000000000e+01,-1.100000000000000000e+01,0.000000000000000000e+00,0.000000000000000000e+00,-2.000000000000000000e+00,-4.000000000000000000e+00,-2.952270507812500000e-01,2.844238281250000000e-02,7.814941406250000000e-01,5.488281250000000000e-01
4.000000000000000000e+00,4.000000000000000000e+00,1.100000000000000000e+01,-6.000000000000000000e+00,0.000000000000000000e+00,-2.000000000000000000e+00,-1.000000000000000000e+00,-1.000000000000000000e+00,-2.952270507812500000e-01,2.844238281250000000e-02,7.814941406250000000e-01,5.488281250000000000e-01
-1.600000000000000000e+01,-5.000000000000000000e+00,-4.000000000000000000e+00,1.300000000000000000e+01,-9.000000000000000000e+00,-4.000000000000000000e+00,-3.000000000000000000e+00,-2.000000000000000000e+00,-2.952270507812500000e-01,2.844238281250000000e-02,7.814941406250000000e-01,5.488281250000000000e-01
-2.000000000000000000e+00,6.000000000000000000e+00,6.000000000000000000e+00,-1.400000000000000000e+01,-2.000000000000000000e+00,1.000000000000000000e+00,0.000000000000000000e+00,-1.000000000000000000e+00,-2.949218750000000000e-01,2.911376953125000000e-02,7.816772460937500000e-01,5.487060546875000000e-01
1.100000000000000000e+01,-4.000000000000000000e+00,-7.000000000000000000e+00,4.000000000000000000e+00,1.000000000000000000e+00,-1.000000000000000000e+00,0.000000000000000000e+00,0.000000000000000000e+00,-2.949218750000000000e-01,2.911376953125000000e-02,7.816772460937500000e-01,5.487060546875000000e-01
-1.100000000000000000e+01,-2.000000000000000000e+00,3.000000000000000000e+00,-3.000000000000000000e+00,1.000000000000000000e+00,0.000000000000000000e+00,-2.000000000000000000e+00,-3.000000000000000000e+00,-2.949218750000000000e-01,2.911376953125000000e-02,7.816772460937500000e-01,5.487060546875000000e-01
6.000000000000000000e+00,-2.000000000000000000e+00,6.000000000000000000e+00,2.000000000000000000e+00,-5.000000000000000000e+00,-3.000000000000000000e+00,-3.000000000000000000e+00,-3.000000000000000000e+00,-2.949218750000000000e-01,2.911376953125000000e-02,7.816772460937500000e-01,5.487060546875000000e-01
-7.000000000000000000e+00,-6.000000000000000000e+00,-5.000000000000000000e+00,2.000000000000000000e+00,-3.000000000000000000e+00,-5.000000000000000000e+00,-5.000000000000000000e+00,-1.000000000000000000e+00,-2.949218750000000000e-01,2.929687500000000000e-02,7.819213867187500000e-01,5.483398437500000000e-01
3.000000000000000000e+00,-1.000000000000000000e+00,5.000000000000000000e+00,5.000000000000000000e+00,-4.000000000000000000e+00,-3.000000000000000000e+00,0.000000000000000000e+00,1.000000000000000000e+00,-2.949218750000000000e-01,2.929687500000000000e-02,7.819213867187500000e-01,5.483398437500000000e-01
0.000000000000000000e+00,-3.000000000000000000e+00,-2.000000000000000000e+00,-9.000000000000000000e+00,5.000000000000000000e+00,0.000000000000000000e+00,-1.000000000000000000e+00,-1.000000000000000000e+00,-2.949218750000000000e-01,2.929687500000000000e-02,7.819213867187500000e-01,5.483398437500000000e-01
-1.000000000000000000e+00,-1.000000000000000000e+00,-6.000000000000000000e+00,-6.000000000000000000e+00,9.000000000000000000e+00,5.000000000000000000e+00,1.000000000000000000e+00,-2.000000000000000000e+00,-2.949218750000000000e-01,2.929687500000000000e-02,7.819213867187500000e-01,5.483398437500000000e-01
-1.000000000000000000e+00,-2.000000000000000000e+00,2.000000000000000000e+00,7.000000000000000000e+00,-3.000000000000000000e+00,-1.000000000000000000e+00,1.000000000000000000e+00,-2.000000000000000000e+00,-2.951660156250000000e-01,2.899169921875000000e-02,7.821044921875000000e-01,5.479736328125000000e-01
-2.000000000000000000e+00,6.000000000000000000e+00,1.300000000000000000e+01,5.000000000000000000e+00,0.000000000000000000e+00,-2.000000000000000000e+00,-2.000000000000000000e+00,0.000000000000000000e+00,-2.951660156250000000e-01,2.899169921875000000e-02,7.821044921875000000e-01,5.479736328125000000e-01
1.000000000000000000e+00,-6.000000000000000000e+00,-1.100000000000000000e+01,3.000000000000000000e+00,1.100000000000000000e+01,0.000000000000000000e+00,-3.000000000000000000e+00,-2.000000000000000000e+00,-2.951660156250000000e-01,2.899169921875000000e-02,7.821044921875000000e-01,5.479736328125000000e-01
-8.000000000000000000e+00,-3.000000000000000000e+00,-2.400000000000000000e+01,-8.000000000000000000e+00,-3.000000000000000000e+00,-2.000000000000000000e+00,-3.000000000000000000e+00,-1.000000000000000000e+00,-2.951660156250000000e-01,2.899169921875000000e-02,7.821044921875000000e-01,5.479736328125000000e-01
8.000000000000000000e+00,-1.000000000000000000e+00,-1.000000000000000000e+00,-4.000000000000000000e+00,3.000000000000000000e+00,1.000000000000000000e+00,0.000000000000000000e+00,2.000000000000000000e+00,-2.951660156250000000e-01,2.893066406250000000e-02,7.821044921875000000e-01,5.479736328125000000e-01
2.000000000000000000e+00,-8.000000000000000000e+00,0.000000000000000000e+00,0.000000000000000000e+00,-2.000000000000000000e+00,1.000000000000000000e+00,0.000000000000000000e+00,0.000000000000000000e+00,-2.951660156250000000e-01,2.893066406250000000e-02,7.821044921875000000e-01,5.479736328125000000e-01
-6.000000000000000000e+00,3.000000000000000000e+00,-3.000000000000000000e+00,-8.000000000000000000e+00,-1.300000000000000000e+01,-4.000000000000000000e+00,3.000000000000000000e+00,0.000000000000000000e+00,-2.951660156250000000e-01,2.893066406250000000e-02,7.821044921875000000e-01,5.479736328125000000e-01
9.000000000000000000e+00,-5.000000000000000000e+00,1.700000000000000000e+01,1.400000000000000000e+01,1.000000000000000000e+00,-2.000000000000000000e+00,-4.000000000000000000e+00,0.000000000000000000e+00,-2.951660156250000000e-01,2.893066406250000000e-02,7.821044921875000000e-01,5.479736328125000000e-01
-1.000000000000000000e+00,2.000000000000000000e+00,1.000000000000000000e+00,3.000000000000000000e+00,7.000000000000000000e+00,2.000000000000000000e+00,-1.000000000000000000e+00,1.000000000000000000e+00,-2.950439453125000000e-01,2.941894531250000000e-02,7.819824218750000000e-01,5.482177734375000000e-01
6.000000000000000000e+00,2.000000000000000000e+00,-1.400000000000000000e+01,-4.000000000000000000e+00,-6.000000000000000000e+00,-2.000000000000000000e+00,-1.000000000000000000e+00,-3.000000000000000000e+00,-2.950439453125000000e-01,2.941894531250000000e-02,7.819824218750000000e-01,5.482177734375000000e-01
-1.000000000000000000e+00,-2.000000000000000000e+00,1.200000000000000000e+01,7.000000000000000000e+00,-1.000000000000000000e+00,-4.000000000000000000e+00,-4.000000000000000000e+00,-1.000000000000000000e+00,-2.950439453125000000e-01,2.941894531250000000e-02,7.819824218750000000e-01,5.482177734375000000e-01
-4.000000000000000000e+00,2.000000000000000000e+00,-1.400000000000000000e+01,-1.000000000000000000e+01,-4.000000000000000000e+00,-1.000000000000000000e+00,0.000000000000000000e+00,0.000000000000000000e+00,-2.950439453125000000e-01,2.941894531250000000e-02,7.819824218750000000e-01,5.482177734375000000e-01
1.300000000000000000e+01,2.000000000000000000e+00,2.000000000000000000e+00,-3.000000000000000000e+00,-5.000000000000000000e+00,-3.000000000000000000e+00,-1.000000000000000000e+00,-3.000000000000000000e+00,-2.949218750000000000e-01,2.984619140625000000e-02,7.819213867187500000e-01,5.483398437500000000e-01
-2.900000000000000000e+01,-1.000000000000000000e+00,9.000000000000000000e+00,3.000000000000000000e+00,1.000000000000000000e+00,1.000000000000000000e+00,-4.000000000000000000e+00,-3.000000000000000000e+00,-2.949218750000000000e-01,2.984619140625000000e-02,7.819213867187500000e-01,5.483398437500000000e-01
3.000000000000000000e+00,-6.000000000000000000e+00,6.000000000000000000e+00,3.000000000000000000e+00,7.000000000000000000e+00,2.000000000000000000e+00,0.000000000000000000e+00,2.000000000000000000e+00,-2.949218750000000000e-01,2.984619140625000000e-02,7.819213867187500000e-01,5.483398437500000000e-01
1.000000000000000000e+00,-2.000000000000000000e+00,9.000000000000000000e+00,5.000000000000000000e+00,-3.000000000000000000e+00,-1.000000000000000000e+00,-1.000000000000000000e+00,-2.000000000000000000e+00,-2.949218750000000000e-01,2.984619140625000000e-02,7.819213867187500000e-01,5.483398437500000000e-01
-5.000000000000000000e+00,-5.000000000000000000e+00,-2.100000000000000000e+01,-1.400000000000000000e+01,-4.000000000000000000e+00,-1.000000000000000000e+00,-1.000000000000000000e+00,-2.000000000000000000e+00,-2.950439453125000000e-01,2.960205078125000000e-02,7.819824218750000000e-01,5.482177734375000000e-01
6.000000000000000000e+00,5.000000000000000000e+00,2.000000000000000000e+00,-7.000000000000000000e+00,2.000000000000000000e+00,2.000000000000000000e+00,-2.000000000000000000e+00,-1.000000000000000000e+00,-2.950439453125000000e-01,2.960205078125000000e-02,7.819824218750000000e-01,5.482177734375000000e-01
2.000000000000000000e+00,0.000000000000000000e+00,-1.400000000000000000e+01,9.000000000000000000e+00,-1.000000000000000000e+01,-3.000000000000000000e+00,-4.000000000000000000e+00,-2.000000000000000000e+00,-2.950439453125000000e-01,2.960205078125000000e-02,7.819824218750000000e-01,5.482177734375000000e-01
-6.000000000000000000e+00,-1.000000000000000000e+00,1.700000000000000000e+01,-6.000000000000000000e+00,-3.000000000000000000e+00,-2.000000000000000000e+00,-3.000000000000000000e+00,-1.000000000000000000e+00,-2.950439453125000000e-01,2.960205078125000000e-02,7.819824218750000000e-01,5.482177734375000000e-01
-3.000000000000000000e+00,2.000000000000000000e+00,1.000000000000000000e+01,1.400000000000000000e+01,4.000000000000000000e+00,1.000000000000000000e+00,-6.000000000000000000e+00,-2.000000000000000000e+00,-2.953491210937500000e-01,2.935791015625000000e-02,7.819213867187500000e-01,5.480957031250000000e-01
-7.000000000000000000e+00,-1.300000000000000000e+01,-1.600000000000000000e+01,-1.500000000000000000e+01,-1.000000000000000000e+01,-3.000000000000000000e+00,-2.000000000000000000e+00,0.000000000000000000e+00,-2.953491210937500000e-01,2.935791015625000000e-02,7.819213867187500000e-01,5.480957031250000000e-01
3.000000000000000000e+00,6.000000000000000000e+00,-8.000000000000000000e+00,-3.000000000000000000e+00,1.000000000000000000e+00,-1.000000000000000000e+00,-3.000000000000000000e+00,-1.000000000000000000e+00,-2.953491210937500000e-01,2.935791015625000000e-02,7.819213867187500000e-01,5.480957031250000000e-01
4.000000000000000000e+00,0.000000000000000000e+00,3.000000000000000000e+00,-4.000000000000000000e+00,-2.000000000000000000e+00,-2.000000000000000000e+00,-1.000000000000000000e+00,1.000000000000000000e+00,-2.953491210937500000e-01,2.935791015625000000e-02,7.819213867187500000e-01,5.480957031250000000e-01
-1.000000000000000000e+00,5.000000000000000000e+00,1.500000000000000000e+01,5.000000000000000000e+00,-5.000000000000000000e+00,-2.000000000000000000e+00,3.000000000000000000e+00,-2.000000000000000000e+00,-2.953491210937500000e-01,2.929687500000000000e-02,7.819213867187500000e-01,5.480957031250000000e-01
1.200000000000000000e+01,4.000000000000000000e+00,-3.000000000000000000e+00,-4.000000000000000000e+00,1.000000000000000000e+00,0.000000000000000000e+00,1.000000000000000000e+00,1.000000000000000000e+00,-2.953491210937500000e-01,2.929687500000000000e-02,7.819213867187500000e-01,5.480957031250000000e-01
-4.000000000000000000e+00,-1.000000000000000000e+01,-1.700000000000000000e+01,-2.000000000000000000e+00,-3.000000000000000000e+00,1.000000000000000000e+00,0.000000000000000000e+00,-2.000000000000000000e+00,-2.953491210937500000e-01,2.929687500000000000e-02,7.819213867187500000e-01,5.480957031250000000e-01
-2.000000000000000000e+00,-1.000000000000000000e+00,2.000000000000000000e+00,0.000000000000000000e+00,-4.000000000000000000e+00,1.000000000000000000e+00,1.000000000000000000e+00,-1.000000000000000000e+00,-2.953491210937500000e-01,2.929687500000000000e-02,7.819213867187500000e-01,5.480957031250000000e-01
-3.000000000000000000e+00,2.000000000000000000e+00,-2.000000000000000000e+00,-1.100000000000000000e+01,-1.000000000000000000e+00,-1.000000000000000000e+00,-2.000000000000000000e+00,-2.000000000000000000e+00,-2.953491210937500000e-01,2.935791015625000000e-02,7.819213867187500000e-01,5.480957031250000000e-01
-3.000000000000000000e+00,-5.000000000000000000e+00,0.000000000000000000e+00,1.000000000000000000e+00,-2.000000000000000000e+00,-2.000000000000000000e+00,-2.000000000000000000e+00,-3.000000000000000000e+00,-2.953491210937500000e-01,2.935791015625000000e-02,7.819213867187500000e-01,5.480957031250000000e-01
6.000000000000000000e+00,8.000000000000000000e+00,2.700000000000000000e+01,6.000000000000000000e+00,8.000000000000000000e+00,0.000000000000000000e+00,0.000000000000000000e+00,0.000000000000000000e+00,-2.953491210937500000e-01,2.935791015625000000e-02,7.819213867187500000e-01,5.480957031250000000e-01
-2.000000000000000000e+00,3.000000000000000000e+00,-2.000000000000000000e+01,-8.000000000000000000e+00,4.000000000000000000e+00,-1.000000000000000000e+00,-4.000000000000000000e+00,-1.000000000000000000e+00,-2.953491210937500000e-01,2.935791015625000000e-02,7.819213867187500000e-01,5.480957031250000000e-01
-8.000000000000000000e+00,-7.000000000000000000e+00,-1.300000000000000000e+01,6.000000000000000000e+00,-4.000000000000000000e+00,-3.000000000000000000e+00,-4.000000000000000000e+00,-2.000000000000000000e+00,-2.955932617187500000e-01,2.929687500000000000e-02,7.819824218750000000e-01,5.479125976562500000e-01
8.000000000000000000e+00,-4.000000000000000000e+00,9.000000000000000000e+00,5.000000000000000000e+00,7.000000000000000000e+00,0.000000000000000000e+00,-3.000000000000000000e+00,3.000000000000000000e+00,-2.955932617187500000e-01,2.929687500000000000e-02,7.819824218750000000e-01,5.479125976562500000e-01
-5.000000000000000000e+00,-1.000000000000000000e+00,-2.000000000000000000e+00,-5.000000000000000000e+00,-8.000000000000000000e+00,-4.000000000000000000e+00,0.000000000000000000e+00,-1.000000000000000000e+00,-2.955932617187500000e-01,2.929687500000000000e-02,7.819824218750000000e-01,5.479125976562500000e-01
-8.000000000000000000e+00,5.000000000000000000e+00,1.200000000000000000e+01,3.000000000000000000e+00,-1.000000000000000000e+01,-8.000000000000000000e+00,-8.000000000000000000e+00,-3.000000000000000000e+00,-2.955932617187500000e-01,2.929687500000000000e-02,7.819824218750000000e-01,5.479125976562500000e-01
7.000000000000000000e+00,-2.000000000000000000e+00,-2.000000000000000000e+00,-1.300000000000000000e+01,4.000000000000000000e+00,2.000000000000000000e+00,2.000000000000000000e+00,-1.000000000000000000e+00,-2.958984375000000000e-01,2.911376953125000000e-02,7.821044921875000000e-01,5.475463867187500000e-01
9.000000000000000000e+00,-1.000000000000000000e+00,-1.000000000000000000e+01,2.000000000000000000e+00,-5.000000000000000000e+00,1.000000000000000000e+00,-1.000000000000000000e+00,-3.000000000000000000e+00,-2.958984375000000000e-01,2.911376953125000000e-02,7.821044921875000000e-01,5.475463867187500000e-01
-2.400000000000000000e+01,-7.000000000000000000e+00,1.400000000000000000e+01,1.000000000000000000e+00,-1.000000000000000000e+00,3.000000000000000000e+00,2.000000000000000000e+00,0.000000000000000000e+00,-2.958984375000000000e-01,2.911376953125000000e-02,7.821044921875000000e-01,5.475463867187500000e-01
0.000000000000000000e+00,-3.000000000000000000e+00,-3.900000000000000000e+01,-2.100000000000000000e+01,-7.000000000000000000e+00,-4.000000000000000000e+00,-1.000000000000000000e+00,-2.000000000000000000e+00,-2.958984375000000000e-01,2.911376953125000000e-02,7.821044921875000000e-01,5.475463867187500000e-01
