1.000000000000000000e+00,5.000000000000000000e+00,-2.000000000000000000e+00,-1.900000000000000000e+01,-1.100000000000000000e+01,-4.000000000000000000e+00,-2.000000000000000000e+00,0.000000000000000000e+00,-3.234252929687500000e-01,-1.477050781250000000e-02,7.866821289062500000e-01,5.256347656250000000e-01
-4.000000000000000000e+00,-3.000000000000000000e+00,4.000000000000000000e+00,2.000000000000000000e+00,3.000000000000000000e+00,-5.000000000000000000e+00,-1.900000000000000000e+01,-3.000000000000000000e+00,-3.234252929687500000e-01,-1.477050781250000000e-02,7.866821289062500000e-01,5.256347656250000000e-01
1.000000000000000000e+00,-3.000000000000000000e+00,6.000000000000000000e+00,1.000000000000000000e+00,9.000000000000000000e+00,1.600000000000000000e+01,1.900000000000000000e+01,-1.000000000000000000e+00,-3.236083984375000000e-01,-1.495361328125000000e-02,7.865600585937500000e-01,5.256347656250000000e-01
-1.000000000000000000e+00,-2.000000000000000000e+00,0.000000000000000000e+00,-7.000000000000000000e+00,-1.100000000000000000e+01,-1.500000000000000000e+01,-1.400000000000000000e+01,-3.000000000000000000e+00,-3.236083984375000000e-01,-1.495361328125000000e-02,7.865600585937500000e-01,5.256347656250000000e-01
0.000000000000000000e+00,-1.000000000000000000e+01,-4.200000000000000000e+01,-2.200000000000000000e+01,-1.000000000000000000e+00,4.000000000000000000e+00,7.000000000000000000e+00,2.000000000000000000e+00,-3.236083984375000000e-01,-1.495361328125000000e-02,7.865600585937500000e-01,5.256347656250000000e-01
-2.000000000000000000e+00,-9.000000000000000000e+00,-7.100000000000000000e+01,-9.000000000000000000e+00,2.000000000000000000e+00,1.000000000000000000e+00,-4.000000000000000000e+00,-1.000000000000000000e+00,-3.236083984375000000e-01,-1.495361328125000000e-02,7.865600585937500000e-01,5.256347656250000000e-01
3.000000000000000000e+00,4.000000000000000000e+00,3.700000000000000000e+01,5.000000000000000000e+00,-8.000000000000000000e+00,-8.000000000000000000e+00,-2.000000000000000000e+00,-1.000000000000000000e+00,-3.236083984375000000e-01,-1.525878906250000000e-02,7.866821289062500000e-01,5.254516601562500000e-01
0.000000000000000000e+00,2.000000000000000000e+00,3.700000000000000000e+01,1.200000000000000000e+01,2.200000000000000000e+01,8.000000000000000000e+00,6.000000000000000000e+00,2.000000000000000000e+00,-3.236083984375000000e-01,-1.525878906250000000e-02,7.866821289062500000e-01,5.254516601562500000e-01
-5.000000000000000000e+00,-4.000000000000000000e+00,-3.000000000000000000e+00,-3.100000000000000000e+01,-8.000000000000000000e+00,-1.000000000000000000e+00,-4.000000000000000000e+00,-3.000000000000000000e+00,-3.236083984375000000e-01,-1.525878906250000000e-02,7.866821289062500000e-01,5.254516601562500000e-01
-3.000000000000000000e+00,0.000000000000000000e+00,-2.000000000000000000e+01,8.000000000000000000e+00,-7.000000000000000000e+00,-3.000000000000000000e+00,-2.000000000000000000e+00,-4.000000000000000000e+00,-3.236083984375000000e-01,-1.525878906250000000e-02,7.866821289062500000e-01,5.254516601562500000e-01
-1.000000000000000000e+00,-6.000000000000000000e+00,-1.000000000000000000e+01,-3.000000000000000000e+00,4.000000000000000000e+00,-7.000000000000000000e+00,-1.100000000000000000e+01,-3.000000000000000000e+00,-3.236083984375000000e-01,-1.568603515625000000e-02,7.866821289062500000e-01,5.253906250000000000e-01
3.000000000000000000e+00,7.000000000000000000e+00,2.300000000000000000e+01,9.000000000000000000e+00,-3.000000000000000000e+00,-2.000000000000000000e+00,-4.000000000000000000e+00,-4.000000000000000000e+00,-3.236083984375000000e-01,-1.568603515625000000e-02,7.866821289062500000e-01,5.253906250000000000e-01
2.000000000000000000e+00,4.000000000000000000e+00,1.200000000000000000e+01,5.000000000000000000e+00,-3.000000000000000000e+00,-9.000000000000000000e+00,8.000000000000000000e+00,-1.000000000000000000e+00,-3.236083984375000000e-01,-1.568603515625000000e-02,7.866821289062500000e-01,5.253906250000000000e-01
-2.000000000000000000e+00,-4.000000000000000000e+00,0.000000000000000000e+00,-7.000000000000000000e+00,-5.000000000000000000e+00,1.800000000000000000e+01,2.000000000000000000e+01,0.000000000000000000e+00,-3.236083984375000000e-01,-1.568603515625000000e-02,7.866821289062500000e-01,5.253906250000000000e-01
2.000000000000000000e+00,-1.000000000000000000e+00,-1.300000000000000000e+01,-9.000000000000000000e+00,-3.000000000000000000e+00,0.000000000000000000e+00,4.000000000000000000e+00,1.000000000000000000e+00,-3.233642578125000000e-01,-1.629638671875000000e-02,7.868041992187500000e-01,5.254516601562500000e-01
-2.000000000000000000e+00,-4.000000000000000000e+00,1.800000000000000000e+01,1.300000000000000000e+01,4.000000000000000000e+00,-7.000000000000000000e+00,-1.800000000000000000e+01,-3.000000000000000000e+00,-3.233642578125000000e-01,-1.629638671875000000e-02,7.868041992187500000e-01,5.254516601562500000e-01
-1.000000000000000000e+00,-1.000000000000000000e+00,-1.000000000000000000e+01,7.000000000000000000e+00,-2.000000000000000000e+00,-8.000000000000000000e+00,-6.000000000000000000e+00,-2.000000000000000000e+00,-3.233642578125000000e-01,-1.629638671875000000e-02,7.868041992187500000e-01,5.254516601562500000e-01
1.000000000000000000e+00,-1.000000000000000000e+00,5.000000000000000000e+00,-1.000000000000000000e+01,-3.000000000000000000e+00,-7.000000000000000000e+00,-7.000000000000000000e+00,-2.000000000000000000e+00,-3.233642578125000000e-01,-1.629638671875000000e-02,7.868041992187500000e-01,5.254516601562500000e-01
1.000000000000000000e+00,5.000000000000000000e+00,1.100000000000000000e+01,1.000000000000000000e+01,5.000000000000000000e+00,7.000000000000000000e+00,-3.000000000000000000e+00,-1.000000000000000000e+00,-3.233642578125000000e-01,-1.635742187500000000e-02,7.868041992187500000e-01,5.253906250000000000e-01
-1.000000000000000000e+00,-4.000000000000000000e+00,-1.100000000000000000e+01,-6.000000000000000000e+00,-6.000000000000000000e+00,-6.000000000000000000e+00,1.000000000000000000e+00,0.000000000000000000e+00,-3.233642578125000000e-01,-1.635742187500000000e-02,7.868041992187500000e-01,5.253906250000000000e-01
0.000000000000000000e+00,1.000000000000000000e+00,3.200000000000000000e+01,2.200000000000000000e+01,1.000000000000000000e+01,1.000000000000000000e+01,1.000000000000000000e+00,-1.000000000000000000e+00,-3.233642578125000000e-01,-1.635742187500000000e-02,7.868041992187500000e-01,5.253906250000000000e-01
0.000000000000000000e+00,-5.000000000000000000e+00,-3.800000000000000000e+01,-3.000000000000000000e+00,0.000000000000000000e+00,-3.000000000000000000e+00,5.000000000000000000e+00,3.000000000000000000e+00,-3.233642578125000000e-01,-1.635742187500000000e-02,7.868041992187500000e-01,5.253906250000000000e-01
-3.000000000000000000e+00,-1.000000000000000000e+00,-1.000000000000000000e+01,-1.400000000000000000e+01,0.000000000000000000e+00,-1.000000000000000000e+00,-9.000000000000000000e+00,-3.000000000000000000e+00,-3.234252929687500000e-01,-1.599121093750000000e-02,7.870483398437500000e-01,5.250244140625000000e-01
1.000000000000000000e+00,-2.000000000000000000e+00,2.000000000000000000e+01,7.000000000000000000e+00,-6.000000000000000000e+00,-8.000000000000000000e+00,-1.300000000000000000e+01,-2.000000000000000000e+00,-3.234252929687500000e-01,-1.599121093750000000e-02,7.870483398437500000e-01,5.250244140625000000e-01
-5.000000000000000000e+00,4.000000000000000000e+00,-3.000000000000000000e+00,-9.000000000000000000e+00,-3.000000000000000000e+00,0.000000000000000000e+00,1.000000000000000000e+01,0.000000000000000000e+00,-3.234252929687500000e-01,-1.599121093750000000e-02,7.870483398437500000e-01,5.250244140625000000e-01
-3.000000000000000000e+00,-1.100000000000000000e+01,0.000000000000000000e+00,1.400000000000000000e+01,1.000000000000000000e+00,1.000000000000000000e+00,-7.000000000000000000e+00,-1.000000000000000000e+00,-3.234252929687500000e-01,-1.599121093750000000e-02,7.870483398437500000e-01,5.250244140625000000e-01
-4.000000000000000000e+00,-1.000000000000000000e+00,-1.500000000000000000e+01,-5.000000000000000000e+00,-1.100000000000000000e+01,-7.000000000000000000e+00,-4.000000000000000000e+00,-2.000000000000000000e+00,-3.238525390625000000e-01,-1.617431640625000000e-02,7.871704101562500000e-01,5.245971679687500000e-01
2.000000000000000000e+00,-6.000000000000000000e+00,-1.200000000000000000e+01,-2.100000000000000000e+01,9.000000000000000000e+00,6.000000000000000000e+00,8.000000000000000000e+00,3.000000000000000000e+00,-3.238525390625000000e-01,-1.617431640625000000e-02,7.871704101562500000e-01,5.245971679687500000e-01
-2.000000000000000000e+00,-5.000000000000000000e+00,-3.000000000000000000e+01,9.000000000000000000e+00,-8.000000000000000000e+00,-8.000000000000000000e+00,-1.000000000000000000e+01,-5.000000000000000000e+00,-3.238525390625000000e-01,-1.617431640625000000e-02,7.871704101562500000e-01,5.245971679687500000e-01
1.000000000000000000e+00,2.000000000000000000e+00,3.700000000000000000e+01,2.000000000000000000e+00,0.000000000000000000e+00,-8.000000000000000000e+00,-5.000000000000000000e+00,0.000000000000000000e+00,-3.238525390625000000e-01,-1.617431640625000000e-02,7.871704101562500000e-01,5.245971679687500000e-01
-5.000000000000000000e+00,-6.000000000000000000e+00,-2.400000000000000000e+01,-1.000000000000000000e+01,2.000000000000000000e+00,-9.000000000000000000e+00,-1.000000000000000000e+00,-1.000000000000000000e+00,-3.237915039062500000e-01,-1.666259765625000000e-02,7.872314453125000000e-01,5.244750976562500000e-01
-3.000000000000000000e+00,-6.000000000000000000e+00,-2.800000000000000000e+01,-1.100000000000000000e+01,-1.000000000000000000e+01,9.000000000000000000e+00,2.100000000000000000e+01,1.000000000000000000e+00,-3.237915039062500000e-01,-1.666259765625000000e-02,7.872314453125000000e-01,5.244750976562500000e-01
-1.000000000000000000e+00,3.000000000000000000e+00,3.100000000000000000e+01,5.000000000000000000e+00,8.000000000000000000e+00,2.000000000000000000e+00,-1.000000000000000000e+00,1.000000000000000000e+00,-3.237915039062500000e-01,-1.666259765625000000e-02,7.872314453125000000e-01,5.244750976562500000e-01
3.000000000000000000e+00,7.000000000000000000e+00,6.200000000000000000e+01,1.000000000000000000e+01,8.000000000000000000e+00,1.200000000000000000e+01,1.400000000000000000e+01,4.000000000000000000e+00,-3.237915039062500000e-01,-1.666259765625000000e-02,7.872314453125000000e-01,5.244750976562500000e-01
0.000000000000000000e+00,-7.000000000000000000e+00,-7.000000000000000000e+01,-2.200000000000000000e+01,-1.000000000000000000e+01,0.000000000000000000e+00,2.000000000000000000e+00,1.000000000000000000e+00,-3.233032226562500000e-01,-1.690673828125000000e-02,7.874145507812500000e-01,5.245361328125000000e-01
-1.000000000000000000e+00,1.000000000000000000e+00,4.900000000000000000e+01,2.000000000000000000e+01,5.000000000000000000e+00,-3.000000000000000000e+00,-1.500000000000000000e+01,-4.000000000000000000e+00,-3.233032226562500000e-01,-1.690673828125000000e-02,7.874145507812500000e-01,5.245361328125000000e-01
-5.000000000000000000e+00,-1.100000000000000000e+01,-7.700000000000000000e+01,-2.400000000000000000e+01,-6.000000000000000000e+00,-9.000000000000000000e+00,-8.000000000000000000e+00,-3.000000000000000000e+00,-3.233032226562500000e-01,-1.690673828125000000e-02,7.874145507812500000e-01,5.245361328125000000e-01
-2.000000000000000000e+00,0.000000000000000000e+00,2.300000000000000000e+01,2.000000000000000000e+00,-4.000000000000000000e+00,-3.000000000000000000e+00,3.000000000000000000e+00,-1.000000000000000000e+00,-3.233032226562500000e-01,-1.690673828125000000e-02,7.874145507812500000e-01,5.245361328125000000e-01
0.000000000000000000e+00,1.000000000000000000e+00,2.000000000000000000e+00,-3.000000000000000000e+00,0.000000000000000000e+00,-1.000000000000000000e+00,-2.000000000000000000e+00,-1.000000000000000000e+00,-3.231811523437500000e-01,-1.715087890625000000e-02,7.875366210937500000e-01,5.243530273437500000e-01
1.000000000000000000e+00,0.000000000000000000e+00,-2.000000000000000000e+01,-6.000000000000000000e+00,-2.000000000000000000e+00,-1.000000000000000000e+00,-3.000000000000000000e+00,-1.000000000000000000e+00,-3.231811523437500000e-01,-1.715087890625000000e-02,7.875366210937500000e-01,5.243530273437500000e-01
4.000000000000000000e+00,0.000000000000000000e+00,1.700000000000000000e+01,8.000000000000000000e+00,5.000000000000000000e+00,7.000000000000000000e+00,7.000000000000000000e+00,1.000000000000000000e+00,-3.231811523437500000e-01,-1.715087890625000000e-02,7.875366210937500000e-01,5.243530273437500000e-01
1.000000000000000000e+00,5.000000000000000000e+00,1.600000000000000000e+01,1.700000000000000000e+01,0.000000000000000000e+00,0.000000000000000000e+00,-5.000000000000000000e+00,-2.000000000000000000e+00,-3.231811523437500000e-01,-1.715087890625000000e-02,7.875366210937500000e-01,5.243530273437500000e-01
0.000000000000000000e+00,-8.000000000000000000e+00,-4.200000000000000000e+01,-2.000000000000000000e+01,3.000000000000000000e+00,-1.300000000000000000e+01,-1.900000000000000000e+01,-2.000000000000000000e+00,-3.231811523437500000e-01,-1.727294921875000000e-02,7.877807617187500000e-01,5.239868164062500000e-01
-1.000000000000000000e+00,-2.000000000000000000e+00,-4.400000000000000000e+01,-1.100000000000000000e+01,1.000000000000000000e+00,2.400000000000000000e+01,3.800000000000000000e+01,3.000000000000000000e+00,-3.231811523437500000e-01,-1.727294921875000000e-02,7.877807617187500000e-01,5.239868164062500000e-01
2.000000000000000000e+00,1.300000000000000000e+01,1.500000000000000000e+01,6.000000000000000000e+00,8.000000000000000000e+00,-2.000000000000000000e+00,-1.300000000000000000e+01,1.000000000000000000e+00,-3.231811523437500000e-01,-1.727294921875000000e-02,7.877807617187500000e-01,5.239868164062500000e-01
-1.000000000000000000e+00,2.000000000000000000e+00,-1.500000000000000000e+01,-1.200000000000000000e+01,-1.300000000000000000e+01,0.000000000000000000e+00,-1.000000000000000000e+00,-2.000000000000000000e+00,-3.231811523437500000e-01,-1.727294921875000000e-02,7.877807617187500000e-01,5.239868164062500000e-01
0.000000000000000000e+00,1.600000000000000000e+01,3.500000000000000000e+01,1.400000000000000000e+01,9.000000000000000000e+00,7.000000000000000000e+00,3.000000000000000000e+00,0.000000000000000000e+00,-3.233032226562500000e-01,-1.751708984375000000e-02,7.880249023437500000e-01,5.235595703125000000e-01
1.000000000000000000e+00,4.000000000000000000e+00,5.000000000000000000e+01,1.000000000000000000e+01,-5.000000000000000000e+00,-1.200000000000000000e+01,-1.600000000000000000e+01,0.000000000000000000e+00,-3.233032226562500000e-01,-1.751708984375000000e-02,7.880249023437500000e-01,5.235595703125000000e-01
-5.000000000000000000e+00,-8.000000000000000000e+00,-1.800000000000000000e+01,-9.000000000000000000e+00,-1.100000000000000000e+01,-3.000000000000000000e+00,1.000000000000000000e+00,-2.000000000000000000e+00,-3.233032226562500000e-01,-1.751708984375000000e-02,7.880249023437500000e-01,5.235595703125000000e-01
-2.000000000000000000e+00,-3.000000000000000000e+00,-2.800000000000000000e+01,-1.400000000000000000e+01,-1.000000000000000000e+01,-1.000000000000000000e+00,4.000000000000000000e+00,-4.000000000000000000e+00,-3.233032226562500000e-01,-1.751708984375000000e-02,7.880249023437500000e-01,5.235595703125000000e-01
-2.000000000000000000e+00,-1.400000000000000000e+01,-3.200000000000000000e+01,8.000000000000000000e+00,0.000000000000000000e+00,1.000000000000000000e+00,-5.000000000000000000e+00,-3.000000000000000000e+00,-3.231201171875000000e-01,-1.757812500000000000e-02,7.881469726562500000e-01,5.234985351562500000e-01
-3.000000000000000000e+00,-1.000000000000000000e+01,-2.000000000000000000e+01,-2.500000000000000000e+01,-1.500000000000000000e+01,-1.300000000000000000e+01,-1.000000000000000000e+01,-1.000000000000000000e+00,-3.231201171875000000e-01,-1.757812500000000000e-02,7.881469726562500000e-01,5.234985351562500000e-01
0.000000000000000000e+00,0.000000000000000000e+00,3.300000000000000000e+01,6.000000000000000000e+00,-5.000000000000000000e+00,-7.000000000000000000e+00,-1.000000000000000000e+00,-1.000000000000000000e+00,-3.231201171875000000e-01,-1.757812500000000000e-02,7.881469726562500000e-01,5.234985351562500000e-01
1.000000000000000000e+00,2.000000000000000000e+00,-1.200000000000000000e+01,-2.000000000000000000e+01,3.000000000000000000e+00,1.200000000000000000e+01,4.000000000000000000e+00,2.000000000000000000e+00,-3.231201171875000000e-01,-1.757812500000000000e-02,7.881469726562500000e-01,5.234985351562500000e-01
1.000000000000000000e+00,-5.000000000000000000e+00,3.800000000000000000e+01,4.000000000000000000e+00,-2.000000000000000000e+00,6.000000000000000000e+00,7.000000000000000000e+00,2.000000000000000000e+00,-3.226318359375000000e-01,-1.721191406250000000e-02,7.882080078125000000e-01,5.236816406250000000e-01
-2.000000000000000000e+00,-3.000000000000000000e+00,-6.500000000000000000e+01,-3.000000000000000000e+00,-2.000000000000000000e+00,-8.000000000000000000e+00,-2.400000000000000000e+01,-4.000000000000000000e+00,-3.226318359375000000e-01,-1.721191406250000000e-02,7.882080078125000000e-01,5.236816406250000000e-01
1.000000000000000000e+00,-1.000000000000000000e+00,1.400000000000000000e+01,-7.000000000000000000e+00,-1.000000000000000000e+01,5.000000000000000000e+00,7.000000000000000000e+00,-2.000000000000000000e+00,-3.226318359375000000e-01,-1.721191406250000000e-02,7.882080078125000000e-01,5.236816406250000000e-01
0.000000000000000000e+00,-1.000000000000000000e+00,3.500000000000000000e+01,6.000000000000000000e+00,2.000000000000000000e+00,-1.000000000000000000e+01,3.000000000000000000e+00,1.000000000000000000e+00,-3.226318359375000000e-01,-1.721191406250000000e-02,7.882080078125000000e-01,5.236816406250000000e-01
-5.000000000000000000e+00,-1.300000000000000000e+01,-2.100000000000000000e+01,-1.300000000000000000e+01,-1.000000000000000000e+00,1.100000000000000000e+01,1.100000000000000000e+01,1.000000000000000000e+00,-3.225708007812500000e-01,-1.727294921875000000e-02,7.882080078125000000e-01,5.237426757812500000e-01
1.000000000000000000e+00,1.000000000000000000e+00,-5.000000000000000000e+01,-7.000000000000000000e+00,6.000000000000000000e+00,-4.000000000000000000e+00,-5.000000000000000000e+00,-1.000000000000000000e+00,-3.225708007812500000e-01,-1.727294921875000000e-02,7.882080078125000000e-01,5.237426757812500000e-01
-2.000000000000000000e+00,6.000000000000000000e+00,5.800000000000000000e+01,1.100000000000000000e+01,-5.000000000000000000e+00,-1.500000000000000000e+01,-1.500000000000000000e+01,-3.000000000000000000e+00,-3.225708007812500000e-01,-1.727294921875000000e-02,7.882080078125000000e-01,5.237426757812500000e-01
-1.000000000000000000e+00,0.000000000000000000e+00,-9.000000000000000000e+00,9.000000000000000000e+00,8.000000000000000000e+00,1.200000000000000000e+01,1.200000000000000000e+01,1.000000000000000000e+00,-3.225708007812500000e-01,-1.727294921875000000e-02,7.882080078125000000e-01,5.237426757812500000e-01
0.000000000000000000e+00,-1.000000000000000000e+00,2.600000000000000000e+01,-2.000000000000000000e+00,-1.100000000000000000e+01,-4.000000000000000000e+00,4.000000000000000000e+00,1.000000000000000000e+00,-3.223876953125000000e-01,-1.751708984375000000e-02,7.884521484375000000e-01,5.234375000000000000e-01
-1.000000000000000000e+00,2.000000000000000000e+00,8.000000000000000000e+00,-1.100000000000000000e+01,1.000000000000000000e+00,-1.000000000000000000e+00,2.000000000000000000e+00,-1.000000000000000000e+00,-3.223876953125000000e-01,-1.751708984375000000e-02,7.884521484375000000e-01,5.234375000000000000e-01
-2.000000000000000000e+00,-4.000000000000000000e+00,-1.400000000000000000e+01,-9.000000000000000000e+00,-2.000000000000000000e+00,3.000000000000000000e+00,0.000000000000000000e+00,-3.000000000000000000e+00,-3.223876953125000000e-01,-1.751708984375000000e-02,7.884521484375000000e-01,5.234375000000000000e-01
-3.000000000000000000e+00,4.000000000000000000e+00,2.000000000000000000e+01,1.100000000000000000e+01,3.000000000000000000e+00,-1.000000000000000000e+00,-3.000000000000000000e+00,0.000000000000000000e+00,-3.223876953125000000e-01,-1.751708984375000000e-02,7.884521484375000000e-01,5.234375000000000000e-01
-1.000000000000000000e+00,6.000000000000000000e+00,2.600000000000000000e+01,6.000000000000000000e+00,-1.000000000000000000e+01,-9.000000000000000000e+00,-5.000000000000000000e+00,-1.000000000000000000e+00,-3.221435546875000000e-01,-1.782226562500000000e-02,7.886352539062500000e-01,5.233154296875000000e-01
0.000000000000000000e+00,-1.000000000000000000e+00,-1.300000000000000000e+01,-1.800000000000000000e+01,-1.100000000000000000e+01,3.000000000000000000e+00,1.200000000000000000e+01,5.000000000000000000e+00,-3.221435546875000000e-01,-1.782226562500000000e-02,7.886352539062500000e-01,5.233154296875000000e-01
0.000000000000000000e+00,-5.000000000000000000e+00,4.900000000000000000e+01,9.000000000000000000e+00,4.000000000000000000e+00,4.000000000000000000e+00,-6.000000000000000000e+00,0.000000000000000000e+00,-3.221435546875000000e-01,-1.782226562500000000e-02,7.886352539062500000e-01,5.233154296875000000e-01
-4.000000000000000000e+00,-1.900000000000000000e+01,-8.100000000000000000e+01,-1.300000000000000000e+01,-3.000000000000000000e+00,-6.000000000000000000e+00,-7.000000000000000000e+00,-4.000000000000000000e+00,-3.221435546875000000e-01,-1.782226562500000000e-02,7.886352539062500000e-01,5.233154296875000000e-01
0.000000000000000000e+00,2.000000000000000000e+00,1.100000000000000000e+01,-1.900000000000000000e+01,-8.000000000000000000e+00,-3.000000000000000000e+00,4.000000000000000000e+00,-1.000000000000000000e+00,-3.217773437500000000e-01,-1.794433593750000000e-02,7.886352539062500000e-01,5.234985351562500000e-01
3.000000000000000000e+00,1.000000000000000000e+00,5.800000000000000000e+01,2.200000000000000000e+01,-1.000000000000000000e+00,-5.000000000000000000e+00,-5.000000000000000000e+00,1.000000000000000000e+00,-3.217773437500000000e-01,-1.794433593750000000e-02,7.886352539062500000e-01,5.234985351562500000e-01
-3.000000000000000000e+00,-5.000000000000000000e+00,-6.000000000000000000e+00,4.000000000000000000e+00,1.000000000000000000e+01,-1.000000000000000000e+00,-1.000000000000000000e+00,2.000000000000000000e+00,-3.217773437500000000e-01,-1.794433593750000000e-02,7.886352539062500000e-01,5.234985351562500000e-01
0.000000000000000000e+00,0.000000000000000000e+00,7.000000000000000000e+00,-3.000000000000000000e+00,1.000000000000000000e+00,-2.000000000000000000e+00,8.000000000000000000e+00,-1.000000000000000000e+00,-3.217773437500000000e-01,-1.794433593750000000e-02,7.886352539062500000e-01,5.234985351562500000e-01
-4.000000000000000000e+00,-6.000000000000000000e+00,-3.000000000000000000e+01,-5.000000000000000000e+00,-9.000000000000000000e+00,-1.000000000000000000e+00,-1.100000000000000000e+01,-5.000000000000000000e+00,-3.212280273437500000e-01,-1.794433593750000000e-02,7.885742187500000000e-01,5.240478515625000000e-01
0.000000000000000000e+00,5.000000000000000000e+00,-5.000000000000000000e+00,1.000000000000000000e+00,-2.000000000000000000e+00,0.000000000000000000e+00,3.000000000000000000e+00,-3.000000000000000000e+00,-3.212280273437500000e-01,-1.794433593750000000e-02,7.885742187500000000e-01,5.240478515625000000e-01
3.000000000000000000e+00,-6.000000000000000000e+00,-3.800000000000000000e+01,-1.000000000000000000e+01,7.000000000000000000e+00,4.000000000000000000e+00,7.000000000000000000e+00,2.000000000000000000e+00,-3.212280273437500000e-01,-1.794433593750000000e-02,7.885742187500000000e-01,5.240478515625000000e-01
-3.000000000000000000e+00,-2.000000000000000000e+00,1.400000000000000000e+01,5.000000000000000000e+00,2.000000000000000000e+00,-1.000000000000000000e+00,-6.000000000000000000e+00,-1.000000000000000000e+00,-3.212280273437500000e-01,-1.794433593750000000e-02,7.885742187500000000e-01,5.240478515625000000e-01
-1.000000000000000000e+00,3.000000000000000000e+00,-1.800000000000000000e+01,-1.000000000000000000e+00,1.000000000000000000e+00,-4.000000000000000000e+00,-8.000000000000000000e+00,-2.000000000000000000e+00,-3.206787109375000000e-01,-1.800537109375000000e-02,7.885742187500000000e-01,5.242919921875000000e-01
-3.000000000000000000e+00,1.000000000000000000e+00,3.400000000000000000e+01,3.000000000000000000e+00,2.000000000000000000e+00,-1.000000000000000000e+00,-2.000000000000000000e+00,-5.000000000000000000e+00,-3.206787109375000000e-01,-1.800537109375000000e-02,7.885742187500000000e-01,5.242919921875000000e-01
-4.000000000000000000e+00,-3.000000000000000000e+00,-2.500000000000000000e+01,-1.000000000000000000e+01,-1.000000000000000000e+01,-4.000000000000000000e+00,-6.000000000000000000e+00,-1.000000000000000000e+00,-3.206787109375000000e-01,-1.800537109375000000e-02,7.885742187500000000e-01,5.242919921875000000e-01
5.000000000000000000e+00,-5.000000000000000000e+00,6.000000000000000000e+00,-1.000000000000000000e+01,5.000000000000000000e+00,0.000000000000000000e+00,-8.000000000000000000e+00,1.000000000000000000e+00,-3.206787109375000000e-01,-1.800537109375000000e-02,7.885742187500000000e-01,5.242919921875000000e-01
-1.000000000000000000e+00,2.000000000000000000e+00,-3.000000000000000000e+01,5.000000000000000000e+00,0.000000000000000000e+00,-2.000000000000000000e+00,5.000000000000000000e+00,2.000000000000000000e+00,-3.204345703125000000e-01,-1.831054687500000000e-02,7.886962890625000000e-01,5.242919921875000000e-01
1.000000000000000000e+00,-4.000000000000000000e+00,1.000000000000000000e+00,-1.100000000000000000e+01,0.000000000000000000e+00,-5.000000000000000000e+00,-1.300000000000000000e+01,1.000000000000000000e+00,-3.204345703125000000e-01,-1.831054687500000000e-02,7.886962890625000000e-01,5.242919921875000000e-01
0.000000000000000000e+00,-2.000000000000000000e+00,-1.400000000000000000e+01,-6.000000000000000000e+00,-4.000000000000000000e+00,4.000000000000000000e+00,1.600000000000000000e+01,1.000000000000000000e+00,-3.204345703125000000e-01,-1.831054687500000000e-02,7.886962890625000000e-01,5.242919921875000000e-01
-4.000000000000000000e+00,2.000000000000000000e+00,6.000000000000000000e+01,1.600000000000000000e+01,-8.000000000000000000e+00,-6.000000000000000000e+00,1.000000000000000000e+00,-2.000000000000000000e+00,-3.204345703125000000e-01,-1.831054687500000000e-02,7.886962890625000000e-01,5.242919921875000000e-01
-1.000000000000000000e+00,0.000000000000000000e+00,2.600000000000000000e+01,4.000000000000000000e+00,1.200000000000000000e+01,4.000000000000000000e+00,4.000000000000000000e+00,0.000000000000000000e+00,-3.203735351562500000e-01,-1.867675781250000000e-02,7.887573242187500000e-01,5.242309570312500000e-01
-5.000000000000000000e+00,1.000000000000000000e+00,-4.000000000000000000e+00,5.000000000000000000e+00,-7.000000000000000000e+00,-2.000000000000000000e+00,0.000000000000000000e+00,-4.000000000000000000e+00,-3.203735351562500000e-01,-1.867675781250000000e-02,7.887573242187500000e-01,5.242309570312500000e-01
-1.000000000000000000e+00,0.000000000000000000e+00,4.900000000000000000e+01,2.200000000000000000e+01,6.000000000000000000e+00,-8.000000000000000000e+00,-1.600000000000000000e+01,-4.000000000000000000e+00,-3.203735351562500000e-01,-1.867675781250000000e-02,7.887573242187500000e-01,5.242309570312500000e-01
2.000000000000000000e+00,4.000000000000000000e+00,4.000000000000000000e+00,6.000000000000000000e+00,5.000000000000000000e+00,-6.000000000000000000e+00,2.000000000000000000e+00,1.000000000000000000e+00,-3.203735351562500000e-01,-1.867675781250000000e-02,7.887573242187500000e-01,5.242309570312500000e-01
2.000000000000000000e+00,4.000000000000000000e+00,5.000000000000000000e+01,1.500000000000000000e+01,4.000000000000000000e+00,1.500000000000000000e+01,7.000000000000000000e+00,0.000000000000000000e+00,-3.202514648437500000e-01,-1.928710937500000000e-02,7.887573242187500000e-01,5.242919921875000000e-01
0.000000000000000000e+00,-5.000000000000000000e+00,-3.700000000000000000e+01,5.000000000000000000e+00,7.000000000000000000e+00,2.000000000000000000e+00,-8.000000000000000000e+00,0.000000000000000000e+00,-3.202514648437500000e-01,-1.928710937500000000e-02,7.887573242187500000e-01,5.242919921875000000e-01
-1.000000000000000000e+00,-4.000000000000000000e+00,2.600000000000000000e+01,-5.000000000000000000e+00,-1.000000000000000000e+01,-4.000000000000000000e+00,-9.000000000000000000e+00,0.000000000000000000e+00,-3.202514648437500000e-01,-1.928710937500000000e-02,7.887573242187500000e-01,5.242919921875000000e-01
0.000000000000000000e+00,2.000000000000000000e+00,-5.000000000000000000e+00,-6.000000000000000000e+00,-6.000000000000000000e+00,-4.000000000000000000e+00,-9.000000000000000000e+00,-2.000000000000000000e+00,-3.202514648437500000e-01,-1.928710937500000000e-02,7.887573242187500000e-01,5.242919921875000000e-01
0.000000000000000000e+00,3.000000000000000000e+00,3.000000000000000000e+00,1.000000000000000000e+00,-7.000000000000000000e+00,-5.000000000000000000e+00,1.000000000000000000e+00,0.000000000000000000e+00,-3.198852539062500000e-01,-1.977539062500000000e-02,7.886962890625000000e-01,5.245361328125000000e-01
-4.000000000000000000e+00,-1.200000000000000000e+01,-6.900000000000000000e+01,-8.000000000000000000e+00,1.000000000000000000e+00,1.000000000000000000e+00,1.000000000000000000e+00,1.000000000000000000e+00,-3.198852539062500000e-01,-1.977539062500000000e-02,7.886962890625000000e-01,5.245361328125000000e-01
1.000000000000000000e+00,0.000000000000000000e+00,0.000000000000000000e+00,3.000000000000000000e+00,3.000000000000000000e+00,-9.000000000000000000e+00,-1.100000000000000000e+01,0.000000000000000000e+00,-3.198852539062500000e-01,-1.977539062500000000e-02,7.886962890625000000e-01,5.245361328125000000e-01
1.000000000000000000e+00,0.000000000000000000e+00,6.000000000000000000e+00,-2.000000000000000000e+00,-2.000000000000000000e+00,1.200000000000000000e+01,1.900000000000000000e+01,0.000000000000000000e+00,-3.198852539062500000e-01,-1.977539062500000000e-02,7.886962890625000000e-01,5.245361328125000000e-01
1.000000000000000000e+00,-2.000000000000000000e+00,-7.000000000000000000e+00,-1.100000000000000000e+01,-1.000000000000000000e+00,-1.000000000000000000e+00,-4.000000000000000000e+00,0.000000000000000000e+00,-3.195800781250000000e-01,-1.989746093750000000e-02,7.886962890625000000e-01,5.247802734375000000e-01
-1.000000000000000000e+00,4.000000000000000000e+00,3.200000000000000000e+01,-1.000000000000000000e+00,-7.000000000000000000e+00,-3.000000000000000000e+00,3.000000000000000000e+00,0.000000000000000000e+00,-3.195800781250000000e-01,-1.989746093750000000e-02,7.886962890625000000e-01,5.247802734375000000e-01
1.000000000000000000e+00,3.000000000000000000e+00,-1.200000000000000000e+01,4.000000000000000000e+00,0.000000000000000000e+00,0.000000000000000000e+00,3.000000000000000000e+00,0.000000000000000000e+00,-3.195800781250000000e-01,-1.989746093750000000e-02,7.886962890625000000e-01,5.247802734375000000e-01
-4.000000000000000000e+00,-5.000000000000000000e+00,-2.900000000000000000e+01,-1.100000000000000000e+01,1.000000000000000000e+00,0.000000000000000000e+00,-9.000000000000000000e+00,-3.000000000000000000e+00,-3.195800781250000000e-01,-1.989746093750000000e-02,7.886962890625000000e-01,5.247802734375000000e-01
2.000000000000000000e+00,8.000000000000000000e+00,8.800000000000000000e+01,3.500000000000000000e+01,0.000000000000000000e+00,0.000000000000000000e+00,2.000000000000000000e+00,-3.000000000000000000e+00,-3.195190429687500000e-01,-1.989746093750000000e-02,7.886962890625000000e-01,5.247802734375000000e-01
-3.000000000000000000e+00,0.000000000000000000e+00,-4.000000000000000000e+00,-1.400000000000000000e+01,-2.000000000000000000e+00,-6.000000000000000000e+00,-6.000000000000000000e+00,-4.000000000000000000e+00,-3.195190429687500000e-01,-1.989746093750000000e-02,7.886962890625000000e-01,5.247802734375000000e-01
-2.000000000000000000e+00,3.000000000000000000e+00,-6.000000000000000000e+00,6.000000000000000000e+00,1.000000000000000000e+00,0.000000000000000000e+00,-1.000000000000000000e+00,-1.000000000000000000e+00,-3.195190429687500000e-01,-1.989746093750000000e-02,7.886962890625000000e-01,5.247802734375000000e-01
0.000000000000000000e+00,-2.000000000000000000e+00,-4.800000000000000000e+01,-1.200000000000000000e+01,1.000000000000000000e+00,1.300000000000000000e+01,6.000000000000000000e+00,1.000000000000000000e+00,-3.195190429687500000e-01,-1.989746093750000000e-02,7.886962890625000000e-01,5.247802734375000000e-01
0.000000000000000000e+00,-5.000000000000000000e+00,-2.300000000000000000e+01,0.000000000000000000e+00,6.000000000000000000e+00,1.000000000000000000e+00,1.000000000000000000e+00,0.000000000000000000e+00,-3.198242187500000000e-01,-2.026367187500000000e-02,7.886962890625000000e-01,5.245361328125000000e-01
0.000000000000000000e+00,1.000000000000000000e+00,1.400000000000000000e+01,0.000000000000000000e+00,0.000000000000000000e+00,2.000000000000000000e+00,0.000000000000000000e+00,-1.000000000000000000e+00,-3.198242187500000000e-01,-2.026367187500000000e-02,7.886962890625000000e-01,5.245361328125000000e-01
-5.000000000000000000e+00,-4.000000000000000000e+00,-1.400000000000000000e+01,-9.000000000000000000e+00,-1.400000000000000000e+01,-8.000000000000000000e+00,-6.000000000000000000e+00,-5.000000000000000000e+00,-3.198242187500000000e-01,-2.026367187500000000e-02,7.886962890625000000e-01,5.245361328125000000e-01
-3.000000000000000000e+00,2.000000000000000000e+00,-1.000000000000000000e+00,4.000000000000000000e+00,3.000000000000000000e+00,-2.000000000000000000e+00,7.000000000000000000e+00,-2.000000000000000000e+00,-3.198242187500000000e-01,-2.026367187500000000e-02,7.886962890625000000e-01,5.245361328125000000e-01
-2.000000000000000000e+00,-2.000000000000000000e+00,-1.100000000000000000e+01,-8.000000000000000000e+00,-3.000000000000000000e+00,-1.000000000000000000e+00,-1.700000000000000000e+01,-2.000000000000000000e+00,-3.198852539062500000e-01,-2.050781250000000000e-02,7.886962890625000000e-01,5.244750976562500000e-01
-1.000000000000000000e+00,-1.000000000000000000e+00,7.000000000000000000e+00,9.000000000000000000e+00,1.000000000000000000e+00,2.000000000000000000e+00,3.000000000000000000e+00,-1.000000000000000000e+00,-3.198852539062500000e-01,-2.050781250000000000e-02,7.886962890625000000e-01,5.244750976562500000e-01
0.000000000000000000e+00,-2.000000000000000000e+00,-1.000000000000000000e+01,-1.700000000000000000e+01,-3.000000000000000000e+00,2.000000000000000000e+00,-2.000000000000000000e+00,-2.000000000000000000e+00,-3.198852539062500000e-01,-2.050781250000000000e-02,7.886962890625000000e-01,5.244750976562500000e-01
-2.000000000000000000e+00,1.000000000000000000e+00,5.700000000000000000e+01,3.400000000000000000e+01,3.000000000000000000e+00,-1.000000000000000000e+01,-1.600000000000000000e+01,-2.000000000000000000e+00,-3.198852539062500000e-01,-2.050781250000000000e-02,7.886962890625000000e-01,5.244750976562500000e-01
-2.000000000000000000e+00,-2.000000000000000000e+00,-1.200000000000000000e+01,3.000000000000000000e+00,0.000000000000000000e+00,2.000000000000000000e+00,2.800000000000000000e+01,1.000000000000000000e+00,-3.198242187500000000e-01,-2.050781250000000000e-02,7.885742187500000000e-01,5.247802734375000000e-01
1.000000000000000000e+00,-2.000000000000000000e+00,1.900000000000000000e+01,-1.000000000000000000e+01,-1.000000000000000000e+00,6.000000000000000000e+00,1.000000000000000000e+00,-1.000000000000000000e+00,-3.198242187500000000e-01,-2.050781250000000000e-02,7.885742187500000000e-01,5.247802734375000000e-01
0.000000000000000000e+00,-4.000000000000000000e+00,-1.700000000000000000e+01,6.000000000000000000e+00,3.000000000000000000e+00,4.000000000000000000e+00,3.000000000000000000e+00,-1.000000000000000000e+00,-3.198242187500000000e-01,-2.050781250000000000e-02,7.885742187500000000e-01,5.247802734375000000e-01
-2.000000000000000000e+00,1.000000000000000000e+00,2.300000000000000000e+01,-6.000000000000000000e+00,-5.000000000000000000e+00,-1.300000000000000000e+01,-1.700000000000000000e+01,-4.000000000000000000e+00,-3.198242187500000000e-01,-2.050781250000000000e-02,7.885742187500000000e-01,5.247802734375000000e-01
1.000000000000000000e+00,2.000000000000000000e+00,1.200000000000000000e+01,5.000000000000000000e+00,3.000000000000000000e+00,-1.000000000000000000e+01,-1.200000000000000000e+01,-2.000000000000000000e+00,-3.195800781250000000e-01,-2.038574218750000000e-02,7.883911132812500000e-01,5.252075195312500000e-01
-4.000000000000000000e+00,-1.000000000000000000e+00,-2.000000000000000000e+00,1.500000000000000000e+01,-7.000000000000000000e+00,-6.000000000000000000e+00,1.000000000000000000e+00,0.000000000000000000e+00,-3.195800781250000000e-01,-2.038574218750000000e-02,7.883911132812500000e-01,5.252075195312500000e-01
1.000000000000000000e+00,-1.000000000000000000e+00,-3.800000000000000000e+01,1.000000000000000000e+00,9.000000000000000000e+00,1.300000000000000000e+01,1.300000000000000000e+01,3.000000000000000000e+00,-3.195800781250000000e-01,-2.038574218750000000e-02,7.883911132812500000e-01,5.252075195312500000e-01
0.000000000000000000e+00,2.000000000000000000e+00,2.000000000000000000e+00,3.000000000000000000e+00,1.000000000000000000e+00,5.000000000000000000e+00,6.000000000000000000e+00,2.000000000000000000e+00,-3.195800781250000000e-01,-2.038574218750000000e-02,7.883911132812500000e-01,5.252075195312500000e-01
1.000000000000000000e+00,-2.000000000000000000e+00,8.000000000000000000e+00,-9.000000000000000000e+00,-2.000000000000000000e+00,-3.000000000000000000e+00,-4.000000000000000000e+00,-2.000000000000000000e+00,-3.194580078125000000e-01,-2.026367187500000000e-02,7.882690429687500000e-01,5.254516601562500000e-01
1.000000000000000000e+00,6.000000000000000000e+00,4.200000000000000000e+01,9.000000000000000000e+00,6.000000000000000000e+00,2.000000000000000000e+00,4.000000000000000000e+00,1.000000000000000000e+00,-3.194580078125000000e-01,-2.026367187500000000e-02,7.882690429687500000e-01,5.254516601562500000e-01
-8.000000000000000000e+00,-1.900000000000000000e+01,-8.000000000000000000e+01,-3.900000000000000000e+01,-1.200000000000000000e+01,-9.000000000000000000e+00,-1.300000000000000000e+01,-3.000000000000000000e+00,-3.194580078125000000e-01,-2.026367187500000000e-02,7.882690429687500000e-01,5.254516601562500000e-01
2.000000000000000000e+00,-1.000000000000000000e+00,5.000000000000000000e+01,5.000000000000000000e+00,1.000000000000000000e+00,4.000000000000000000e+00,6.000000000000000000e+00,2.000000000000000000e+00,-3.194580078125000000e-01,-2.026367187500000000e-02,7.882690429687500000e-01,5.254516601562500000e-01
-2.000000000000000000e+00,-4.000000000000000000e+00,-9.000000000000000000e+00,-1.400000000000000000e+01,-8.000000000000000000e+00,-6.000000000000000000e+00,-8.000000000000000000e+00,-3.000000000000000000e+00,-3.193969726562500000e-01,-2.075195312500000000e-02,7.880859375000000000e-01,5.256958007812500000e-01
0.000000000000000000e+00,2.000000000000000000e+00,0.000000000000000000e+00,-1.000000000000000000e+00,2.000000000000000000e+00,0.000000000000000000e+00,4.000000000000000000e+00,-1.000000000000000000e+00,-3.193969726562500000e-01,-2.075195312500000000e-02,7.880859375000000000e-01,5.256958007812500000e-01
0.000000000000000000e+00,2.000000000000000000e+00,3.600000000000000000e+01,1.900000000000000000e+01,-4.000000000000000000e+00,-2.000000000000000000e+00,5.000000000000000000e+00,1.000000000000000000e+00,-3.193969726562500000e-01,-2.075195312500000000e-02,7.880859375000000000e-01,5.256958007812500000e-01
1.000000000000000000e+00,2.000000000000000000e+00,-9.000000000000000000e+00,-1.300000000000000000e+01,9.000000000000000000e+00,-4.000000000000000000e+00,-5.000000000000000000e+00,0.000000000000000000e+00,-3.193969726562500000e-01,-2.075195312500000000e-02,7.880859375000000000e-01,5.256958007812500000e-01
-3.000000000000000000e+00,-8.000000000000000000e+00,-6.700000000000000000e+01,-2.100000000000000000e+01,-1.100000000000000000e+01,-4.000000000000000000e+00,5.000000000000000000e+00,-1.000000000000000000e+00,-3.192138671875000000e-01,-2.142333984375000000e-02,7.879638671875000000e-01,5.260620117187500000e-01
-3.000000000000000000e+00,-3.000000000000000000e+00,1.000000000000000000e+01,1.600000000000000000e+01,-1.000000000000000000e+00,-4.000000000000000000e+00,8.000000000000000000e+00,-5.000000000000000000e+00,-3.192138671875000000e-01,-2.142333984375000000e-02,7.879638671875000000e-01,5.260620117187500000e-01
1.000000000000000000e+00,2.000000000000000000e+00,2.100000000000000000e+01,2.000000000000000000e+00,3.000000000000000000e+00,0.000000000000000000e+00,-1.500000000000000000e+01,-1.000000000000000000e+00,-3.192138671875000000e-01,-2.142333984375000000e-02,7.879638671875000000e-01,5.260620117187500000e-01
1.000000000000000000e+00,-2.000000000000000000e+00,-5.300000000000000000e+01,-1.400000000000000000e+01,-8.000000000000000000e+00,8.000000000000000000e+00,2.000000000000000000e+01,1.000000000000000000e+00,-3.192138671875000000e-01,-2.142333984375000000e-02,7.879638671875000000e-01,5.260620117187500000e-01
0.000000000000000000e+00,9.000000000000000000e+00,9.800000000000000000e+01,3.100000000000000000e+01,1.300000000000000000e+01,4.000000000000000000e+00,-6.000000000000000000e+00,0.000000000000000000e+00,-3.187866210937500000e-01,-2.191162109375000000e-02,7.878417968750000000e-01,5.264282226562500000e-01
0.000000000000000000e+00,-5.000000000000000000e+00,-8.000000000000000000e+01,-2.000000000000000000e+01,-4.000000000000000000e+00,-3.000000000000000000e+00,-6.000000000000000000e+00,1.000000000000000000e+00,-3.187866210937500000e-01,-2.191162109375000000e-02,7.878417968750000000e-01,5.264282226562500000e-01
0.000000000000000000e+00,-3.000000000000000000e+00,-7.000000000000000000e+00,-1.600000000000000000e+01,-9.000000000000000000e+00,-6.000000000000000000e+00,-1.000000000000000000e+00,-1.000000000000000000e+00,-3.187866210937500000e-01,-2.191162109375000000e-02,7.878417968750000000e-01,5.264282226562500000e-01
-1.000000000000000000e+00,-4.000000000000000000e+00,1.400000000000000000e+01,1.700000000000000000e+01,2.000000000000000000e+00,4.000000000000000000e+00,-7.000000000000000000e+00,-3.000000000000000000e+00,-3.187866210937500000e-01,-2.191162109375000000e-02,7.878417968750000000e-01,5.264282226562500000e-01
-3.000000000000000000e+00,-4.000000000000000000e+00,-3.000000000000000000e+01,-1.800000000000000000e+01,-1.300000000000000000e+01,-9.000000000000000000e+00,0.000000000000000000e+00,0.000000000000000000e+00,-3.181152343750000000e-01,-2.239990234375000000e-02,7.877197265625000000e-01,5.269775390625000000e-01
-1.000000000000000000e+00,1.000000000000000000e+00,7.000000000000000000e+00,-1.100000000000000000e+01,3.000000000000000000e+00,1.000000000000000000e+00,6.000000000000000000e+00,2.000000000000000000e+00,-3.181152343750000000e-01,-2.239990234375000000e-02,7.877197265625000000e-01,5.269775390625000000e-01
1.000000000000000000e+00,2.000000000000000000e+00,9.000000000000000000e+00,2.200000000000000000e+01,1.000000000000000000e+00,1.000000000000000000e+00,-9.000000000000000000e+00,-3.000000000000000000e+00,-3.181152343750000000e-01,-2.239990234375000000e-02,7.877197265625000000e-01,5.269775390625000000e-01
-1.000000000000000000e+00,3.000000000000000000e+00,4.200000000000000000e+01,6.000000000000000000e+00,-3.000000000000000000e+00,-6.000000000000000000e+00,-9.000000000000000000e+00,-2.000000000000000000e+00,-3.181152343750000000e-01,-2.239990234375000000e-02,7.877197265625000000e-01,5.269775390625000000e-01
-3.000000000000000000e+00,-3.000000000000000000e+00,-1.300000000000000000e+01,-8.000000000000000000e+00,-5.000000000000000000e+00,1.000000000000000000e+00,0.000000000000000000e+00,-2.000000000000000000e+00,-3.176269531250000000e-01,-2.294921875000000000e-02,7.876586914062500000e-01,5.274047851562500000e-01
0.000000000000000000e+00,2.000000000000000000e+00,1.900000000000000000e+01,6.000000000000000000e+00,3.000000000000000000e+00,-9.000000000000000000e+00,-8.000000000000000000e+00,-1.000000000000000000e+00,-3.176269531250000000e-01,-2.294921875000000000e-02,7.876586914062500000e-01,5.274047851562500000e-01
1.000000000000000000e+00,4.000000000000000000e+00,3.100000000000000000e+01,-2.000000000000000000e+00,1.500000000000000000e+01,1.300000000000000000e+01,1.600000000000000000e+01,3.000000000000000000e+00,-3.176269531250000000e-01,-2.294921875000000000e-02,7.876586914062500000e-01,5.274047851562500000e-01
-1.000000000000000000e+00,1.000000000000000000e+00,-3.100000000000000000e+01,-1.000000000000000000e+01,-1.900000000000000000e+01,-1.400000000000000000e+01,-1.200000000000000000e+01,-3.000000000000000000e+00,-3.176269531250000000e-01,-2.294921875000000000e-02,7.876586914062500000e-01,5.274047851562500000e-01
-1.000000000000000000e+00,-4.000000000000000000e+00,-6.500000000000000000e+01,2.000000000000000000e+00,7.000000000000000000e+00,7.000000000000000000e+00,4.000000000000000000e+00,-2.000000000000000000e+00,-3.169555664062500000e-01,-2.337646484375000000e-02,7.876586914062500000e-01,5.277709960937500000e-01
2.000000000000000000e+00,-5.000000000000000000e+00,-1.500000000000000000e+01,-5.000000000000000000e+00,0.000000000000000000e+00,2.000000000000000000e+00,-4.000000000000000000e+00,0.000000000000000000e+00,-3.169555664062500000e-01,-2.337646484375000000e-02,7.876586914062500000e-01,5.277709960937500000e-01
0.000000000000000000e+00,3.000000000000000000e+00,1.500000000000000000e+01,-1.000000000000000000e+00,4.000000000000000000e+00,-1.000000000000000000e+01,0.000000000000000000e+00,0.000000000000000000e+00,-3.169555664062500000e-01,-2.337646484375000000e-02,7.876586914062500000e-01,5.277709960937500000e-01
0.000000000000000000e+00,2.000000000000000000e+00,2.600000000000000000e+01,8.000000000000000000e+00,4.000000000000000000e+00,1.300000000000000000e+01,1.200000000000000000e+01,-2.000000000000000000e+00,-3.169555664062500000e-01,-2.337646484375000000e-02,7.876586914062500000e-01,5.277709960937500000e-01
-8.000000000000000000e+00,-1.400000000000000000e+01,-4.600000000000000000e+01,-3.300000000000000000e+01,-1.100000000000000000e+01,-9.000000000000000000e+00,-2.100000000000000000e+01,-2.000000000000000000e+00,-3.165893554687500000e-01,-2.410888671875000000e-02,7.875976562500000000e-01,5.280151367187500000e-01
1.000000000000000000e+00,1.000000000000000000e+00,-2.000000000000000000e+00,3.900000000000000000e+01,3.000000000000000000e+00,9.000000000000000000e+00,4.000000000000000000e+00,-1.000000000000000000e+00,-3.165893554687500000e-01,-2.410888671875000000e-02,7.875976562500000000e-01,5.280151367187500000e-01
1.000000000000000000e+00,1.000000000000000000e+00,4.000000000000000000e+00,0.000000000000000000e+00,-2.000000000000000000e+00,0.000000000000000000e+00,9.000000000000000000e+00,1.000000000000000000e+00,-3.165893554687500000e-01,-2.410888671875000000e-02,7.875976562500000000e-01,5.280151367187500000e-01
-2.000000000000000000e+00,-2.000000000000000000e+00,3.000000000000000000e+01,1.000000000000000000e+01,2.000000000000000000e+00,-7.000000000000000000e+00,-1.300000000000000000e+01,-2.000000000000000000e+00,-3.165893554687500000e-01,-2.410888671875000000e-02,7.875976562500000000e-01,5.280151367187500000e-01
2.000000000000000000e+00,2.000000000000000000e+00,2.400000000000000000e+01,4.000000000000000000e+00,-7.000000000000000000e+00,-6.000000000000000000e+00,1.000000000000000000e+00,2.000000000000000000e+00,-3.162841796875000000e-01,-2.490234375000000000e-02,7.875976562500000000e-01,5.281982421875000000e-01
-2.000000000000000000e+00,-3.000000000000000000e+00,1.900000000000000000e+01,-4.000000000000000000e+00,5.000000000000000000e+00,2.000000000000000000e+00,7.000000000000000000e+00,1.000000000000000000e+00,-3.162841796875000000e-01,-2.490234375000000000e-02,7.875976562500000000e-01,5.281982421875000000e-01
-1.000000000000000000e+00,7.000000000000000000e+00,2.700000000000000000e+01,1.500000000000000000e+01,3.000000000000000000e+00,0.000000000000000000e+00,-9.000000000000000000e+00,-1.000000000000000000e+00,-3.162841796875000000e-01,-2.490234375000000000e-02,7.875976562500000000e-01,5.281982421875000000e-01
-3.000000000000000000e+00,-1.200000000000000000e+01,-6.400000000000000000e+01,-2.100000000000000000e+01,-1.000000000000000000e+01,-9.000000000000000000e+00,-6.000000000000000000e+00,-3.000000000000000000e+00,-3.162841796875000000e-01,-2.490234375000000000e-02,7.875976562500000000e-01,5.281982421875000000e-01
0.000000000000000000e+00,-1.000000000000000000e+00,1.700000000000000000e+01,-2.000000000000000000e+00,-1.000000000000000000e+00,-1.000000000000000000e+00,4.000000000000000000e+00,-1.000000000000000000e+00,-3.159179687500000000e-01,-2.557373046875000000e-02,7.875976562500000000e-01,5.283813476562500000e-01
-2.000000000000000000e+00,-3.000000000000000000e+00,-5.100000000000000000e+01,-2.000000000000000000e+01,-6.000000000000000000e+00,-5.000000000000000000e+00,-1.200000000000000000e+01,-4.000000000000000000e+00,-3.159179687500000000e-01,-2.557373046875000000e-02,7.875976562500000000e-01,5.283813476562500000e-01
-1.000000000000000000e+00,1.000000000000000000e+00,-1.100000000000000000e+01,-7.000000000000000000e+00,-6.000000000000000000e+00,1.000000000000000000e+00,6.000000000000000000e+00,-1.000000000000000000e+00,-3.159179687500000000e-01,-2.557373046875000000e-02,7.875976562500000000e-01,5.283813476562500000e-01
-1.000000000000000000e+00,-2.000000000000000000e+00,1.300000000000000000e+01,5.000000000000000000e+00,-1.200000000000000000e+01,-1.000000000000000000e+01,-1.000000000000000000e+01,-1.000000000000000000e+00,-3.159179687500000000e-01,-2.557373046875000000e-02,7.875976562500000000e-01,5.283813476562500000e-01
3.000000000000000000e+00,9.000000000000000000e+00,4.000000000000000000e+01,1.900000000000000000e+01,9.000000000000000000e+00,5.000000000000000000e+00,4.000000000000000000e+00,0.000000000000000000e+00,-3.157348632812500000e-01,-2.630615234375000000e-02,7.874755859375000000e-01,5.286254882812500000e-01
1.000000000000000000e+00,-2.000000000000000000e+00,0.000000000000000000e+00,9.000000000000000000e+00,0.000000000000000000e+00,2.000000000000000000e+00,-8.000000000000000000e+00,1.000000000000000000e+00,-3.157348632812500000e-01,-2.630615234375000000e-02,7.874755859375000000e-01,5.286254882812500000e-01
0.000000000000000000e+00,1.000000000000000000e+00,2.900000000000000000e+01,1.000000000000000000e+01,-2.000000000000000000e+00,-8.000000000000000000e+00,-3.000000000000000000e+00,-2.000000000000000000e+00,-3.157348632812500000e-01,-2.630615234375000000e-02,7.874755859375000000e-01,5.286254882812500000e-01
0.000000000000000000e+00,-3.000000000000000000e+00,-4.000000000000000000e+00,-6.000000000000000000e+00,5.000000000000000000e+00,8.000000000000000000e+00,7.000000000000000000e+00,1.000000000000000000e+00,-3.157348632812500000e-01,-2.630615234375000000e-02,7.874755859375000000e-01,5.286254882812500000e-01
0.000000000000000000e+00,-7.000000000000000000e+00,-8.000000000000000000e+00,1.000000000000000000e+00,2.000000000000000000e+00,-7.000000000000000000e+00,-1.600000000000000000e+01,-1.000000000000000000e+00,-3.153076171875000000e-01,-2.655029296875000000e-02,7.874145507812500000e-01,5.289306640625000000e-01
-3.000000000000000000e+00,-1.000000000000000000e+00,-6.000000000000000000e+00,-4.000000000000000000e+00,-1.000000000000000000e+01,-8.000000000000000000e+00,-5.000000000000000000e+00,-3.000000000000000000e+00,-3.153076171875000000e-01,-2.655029296875000000e-02,7.874145507812500000e-01,5.289306640625000000e-01
-3.000000000000000000e+00,-6.000000000000000000e+00,-3.100000000000000000e+01,-1.000000000000000000e+01,-6.000000000000000000e+00,3.000000000000000000e+00,1.000000000000000000e+00,-4.000000000000000000e+00,-3.153076171875000000e-01,-2.655029296875000000e-02,7.874145507812500000e-01,5.289306640625000000e-01
-1.000000000000000000e+00,1.000000000000000000e+00,3.000000000000000000e+00,-5.000000000000000000e+00,-3.000000000000000000e+00,-7.000000000000000000e+00,-4.000000000000000000e+00,0.000000000000000000e+00,-3.153076171875000000e-01,-2.655029296875000000e-02,7.874145507812500000e-01,5.289306640625000000e-01
-1.000000000000000000e+00,4.000000000000000000e+00,-1.200000000000000000e+01,1.600000000000000000e+01,6.000000000000000000e+00,8.000000000000000000e+00,3.000000000000000000e+00,-2.000000000000000000e+00,-3.148193359375000000e-01,-2.648925781250000000e-02,7.874755859375000000e-01,5.291137695312500000e-01
0.000000000000000000e+00,-1.000000000000000000e+00,1.000000000000000000e+01,-1.400000000000000000e+01,0.000000000000000000e+00,-3.000000000000000000e+00,-1.800000000000000000e+01,-1.000000000000000000e+00,-3.148193359375000000e-01,-2.648925781250000000e-02,7.874755859375000000e-01,5.291137695312500000e-01
1.000000000000000000e+00,-3.000000000000000000e+00,-4.000000000000000000e+00,1.000000000000000000e+00,-4.000000000000000000e+00,0.000000000000000000e+00,-1.000000000000000000e+00,0.000000000000000000e+00,-3.148193359375000000e-01,-2.648925781250000000e-02,7.874755859375000000e-01,5.291137695312500000e-01
-2.000000000000000000e+00,-5.000000000000000000e+00,-2.400000000000000000e+01,-1.200000000000000000e+01,-2.000000000000000000e+00,0.000000000000000000e+00,-7.000000000000000000e+00,-2.000000000000000000e+00,-3.148193359375000000e-01,-2.648925781250000000e-02,7.874755859375000000e-01,5.291137695312500000e-01
1.000000000000000000e+00,4.000000000000000000e+00,2.700000000000000000e+01,3.000000000000000000e+00,5.000000000000000000e+00,1.000000000000000000e+00,-1.000000000000000000e+00,-3.000000000000000000e+00,-3.145751953125000000e-01,-2.679443359375000000e-02,7.876586914062500000e-01,5.290527343750000000e-01
-3.000000000000000000e+00,-6.000000000000000000e+00,-1.600000000000000000e+01,-4.000000000000000000e+00,-9.000000000000000000e+00,-1.400000000000000000e+01,-1.500000000000000000e+01,-4.000000000000000000e+00,-3.145751953125000000e-01,-2.679443359375000000e-02,7.876586914062500000e-01,5.290527343750000000e-01
-3.000000000000000000e+00,-4.000000000000000000e+00,-4.100000000000000000e+01,-1.000000000000000000e+01,-4.000000000000000000e+00,5.000000000000000000e+00,1.100000000000000000e+01,-1.000000000000000000e+00,-3.143920898437500000e-01,-2.722167968750000000e-02,7.876586914062500000e-01,5.291137695312500000e-01
2.000000000000000000e+00,0.000000000000000000e+00,-7.000000000000000000e+00,-1.800000000000000000e+01,1.000000000000000000e+00,8.000000000000000000e+00,7.000000000000000000e+00,1.000000000000000000e+00,-3.143920898437500000e-01,-2.722167968750000000e-02,7.876586914062500000e-01,5.291137695312500000e-01
1.000000000000000000e+00,2.000000000000000000e+00,1.800000000000000000e+01,1.100000000000000000e+01,1.000000000000000000e+00,-1.000000000000000000e+00,5.000000000000000000e+00,0.000000000000000000e+00,-3.143920898437500000e-01,-2.722167968750000000e-02,7.876586914062500000e-01,5.291137695312500000e-01
-3.000000000000000000e+00,-4.000000000000000000e+00,-3.000000000000000000e+01,-3.000000000000000000e+00,-1.000000000000000000e+00,-4.000000000000000000e+00,1.000000000000000000e+00,0.000000000000000000e+00,-3.143920898437500000e-01,-2.722167968750000000e-02,7.876586914062500000e-01,5.291137695312500000e-01
0.000000000000000000e+00,1.000000000000000000e+00,1.400000000000000000e+01,-6.000000000000000000e+00,3.000000000000000000e+00,1.000000000000000000e+00,-5.000000000000000000e+00,-3.000000000000000000e+00,-3.143920898437500000e-01,-2.728271484375000000e-02,7.876586914062500000e-01,5.291137695312500000e-01
-3.000000000000000000e+00,-3.000000000000000000e+00,-1.100000000000000000e+01,5.000000000000000000e+00,5.000000000000000000e+00,-3.000000000000000000e+00,5.000000000000000000e+00,0.000000000000000000e+00,-3.143920898437500000e-01,-2.728271484375000000e-02,7.876586914062500000e-01,5.291137695312500000e-01
1.000000000000000000e+00,4.000000000000000000e+00,1.800000000000000000e+01,5.000000000000000000e+00,-5.000000000000000000e+00,1.000000000000000000e+00,-1.100000000000000000e+01,-4.000000000000000000e+00,-3.143920898437500000e-01,-2.728271484375000000e-02,7.876586914062500000e-01,5.291137695312500000e-01
0.000000000000000000e+00,3.000000000000000000e+00,5.000000000000000000e+01,-7.000000000000000000e+00,-4.000000000000000000e+00,-1.000000000000000000e+00,6.000000000000000000e+00,2.000000000000000000e+00,-3.143920898437500000e-01,-2.728271484375000000e-02,7.876586914062500000e-01,5.291137695312500000e-01
-3.000000000000000000e+00,-2.000000000000000000e+00,-2.300000000000000000e+01,-3.000000000000000000e+00,-9.000000000000000000e+00,-5.000000000000000000e+00,-7.000000000000000000e+00,-3.000000000000000000e+00,-3.139648437500000000e-01,-2.697753906250000000e-02,7.877197265625000000e-01,5.292358398437500000e-01
1.000000000000000000e+00,2.000000000000000000e+00,1.900000000000000000e+01,2.000000000000000000e+01,1.200000000000000000e+01,9.000000000000000000e+00,8.000000000000000000e+00,-1.000000000000000000e+00,-3.139648437500000000e-01,-2.697753906250000000e-02,7.877197265625000000e-01,5.292358398437500000e-01
1.000000000000000000e+00,-2.000000000000000000e+00,-2.500000000000000000e+01,2.000000000000000000e+00,5.000000000000000000e+00,-3.000000000000000000e+00,-1.000000000000000000e+00,2.000000000000000000e+00,-3.139648437500000000e-01,-2.697753906250000000e-02,7.877197265625000000e-01,5.292358398437500000e-01
-3.000000000000000000e+00,0.000000000000000000e+00,3.900000000000000000e+01,1.500000000000000000e+01,3.000000000000000000e+00,6.000000000000000000e+00,7.000000000000000000e+00,-1.000000000000000000e+00,-3.139648437500000000e-01,-2.697753906250000000e-02,7.877197265625000000e-01,5.292358398437500000e-01
-1.000000000000000000e+00,0.000000000000000000e+00,4.000000000000000000e+00,-9.000000000000000000e+00,-4.000000000000000000e+00,-1.000000000000000000e+00,6.000000000000000000e+00,3.000000000000000000e+00,-3.135986328125000000e-01,-2.722167968750000000e-02,7.877807617187500000e-01,5.293579101562500000e-01
-1.000000000000000000e+00,-2.000000000000000000e+00,-3.000000000000000000e+00,-1.000000000000000000e+01,-7.000000000000000000e+00,-3.000000000000000000e+00,-7.000000000000000000e+00,-1.000000000000000000e+00,-3.135986328125000000e-01,-2.722167968750000000e-02,7.877807617187500000e-01,5.293579101562500000e-01
0.000000000000000000e+00,0.000000000000000000e+00,-1.400000000000000000e+01,-8.000000000000000000e+00,-3.000000000000000000e+00,-2.100000000000000000e+01,-1.200000000000000000e+01,2.000000000000000000e+00,-3.135986328125000000e-01,-2.722167968750000000e-02,7.877807617187500000e-01,5.293579101562500000e-01
2.000000000000000000e+00,0.000000000000000000e+00,3.400000000000000000e+01,-1.000000000000000000e+01,-4.000000000000000000e+00,1.900000000000000000e+01,2.000000000000000000e+01,0.000000000000000000e+00,-3.135986328125000000e-01,-2.722167968750000000e-02,7.877807617187500000e-01,5.293579101562500000e-01
-2.000000000000000000e+00,-1.000000000000000000e+01,-8.000000000000000000e+01,-1.100000000000000000e+01,8.000000000000000000e+00,5.000000000000000000e+00,-1.100000000000000000e+01,-1.000000000000000000e+00,-3.131713867187500000e-01,-2.752685546875000000e-02,7.878417968750000000e-01,5.295410156250000000e-01
1.000000000000000000e+00,0.000000000000000000e+00,5.000000000000000000e+00,-5.000000000000000000e+00,-5.000000000000000000e+00,-1.100000000000000000e+01,-1.000000000000000000e+01,0.000000000000000000e+00,-3.131713867187500000e-01,-2.752685546875000000e-02,7.878417968750000000e-01,5.295410156250000000e-01
-1.000000000000000000e+00,0.000000000000000000e+00,2.400000000000000000e+01,4.000000000000000000e+00,-2.000000000000000000e+00,1.100000000000000000e+01,1.000000000000000000e+01,0.000000000000000000e+00,-3.131713867187500000e-01,-2.752685546875000000e-02,7.878417968750000000e-01,5.295410156250000000e-01
1.000000000000000000e+00,5.000000000000000000e+00,3.700000000000000000e+01,3.000000000000000000e+00,2.000000000000000000e+00,-6.000000000000000000e+00,-5.000000000000000000e+00,-1.000000000000000000e+00,-3.131713867187500000e-01,-2.752685546875000000e-02,7.878417968750000000e-01,5.295410156250000000e-01
-1.000000000000000000e+00,-8.000000000000000000e+00,-2.400000000000000000e+01,0.000000000000000000e+00,-9.000000000000000000e+00,-5.000000000000000000e+00,6.000000000000000000e+00,0.000000000000000000e+00,-3.128051757812500000e-01,-2.740478515625000000e-02,7.879028320312500000e-01,5.296630859375000000e-01
0.000000000000000000e+00,5.000000000000000000e+00,1.900000000000000000e+01,0.000000000000000000e+00,9.000000000000000000e+00,9.000000000000000000e+00,7.000000000000000000e+00,0.000000000000000000e+00,-3.128051757812500000e-01,-2.740478515625000000e-02,7.879028320312500000e-01,5.296630859375000000e-01
-5.000000000000000000e+00,-2.000000000000000000e+00,-2.000000000000000000e+00,-2.000000000000000000e+00,-4.000000000000000000e+00,-3.000000000000000000e+00,-8.000000000000000000e+00,-3.000000000000000000e+00,-3.128051757812500000e-01,-2.740478515625000000e-02,7.879028320312500000e-01,5.296630859375000000e-01
-1.000000000000000000e+00,5.000000000000000000e+00,4.200000000000000000e+01,1.100000000000000000e+01,-1.000000000000000000e+00,-3.000000000000000000e+00,-4.000000000000000000e+00,-1.000000000000000000e+00,-3.128051757812500000e-01,-2.740478515625000000e-02,7.879028320312500000e-01,5.296630859375000000e-01
-1.000000000000000000e+00,5.000000000000000000e+00,6.500000000000000000e+01,1.100000000000000000e+01,0.000000000000000000e+00,-6.000000000000000000e+00,5.000000000000000000e+00,0.000000000000000000e+00,-3.125000000000000000e-01,-2.740478515625000000e-02,7.881469726562500000e-01,5.294799804687500000e-01
1.000000000000000000e+00,1.000000000000000000e+00,-1.000000000000000000e+01,-4.000000000000000000e+00,5.000000000000000000e+00,4.000000000000000000e+00,-4.000000000000000000e+00,-1.000000000000000000e+00,-3.125000000000000000e-01,-2.740478515625000000e-02,7.881469726562500000e-01,5.294799804687500000e-01
-2.000000000000000000e+00,-8.000000000000000000e+00,-2.600000000000000000e+01,-2.700000000000000000e+01,0.000000000000000000e+00,0.000000000000000000e+00,4.000000000000000000e+00,-1.000000000000000000e+00,-3.125000000000000000e-01,-2.740478515625000000e-02,7.881469726562500000e-01,5.294799804687500000e-01
-3.000000000000000000e+00,1.000000000000000000e+00,2.600000000000000000e+01,1.300000000000000000e+01,-2.000000000000000000e+00,4.000000000000000000e+00,7.000000000000000000e+00,0.000000000000000000e+00,-3.125000000000000000e-01,-2.740478515625000000e-02,7.881469726562500000e-01,5.294799804687500000e-01
0.000000000000000000e+00,0.000000000000000000e+00,1.300000000000000000e+01,2.000000000000000000e+00,-1.000000000000000000e+00,0.000000000000000000e+00,4.000000000000000000e+00,2.000000000000000000e+00,-3.125000000000000000e-01,-2.807617187500000000e-02,7.882080078125000000e-01,5.292968750000000000e-01
-4.000000000000000000e+00,-6.000000000000000000e+00,-3.000000000000000000e+01,-1.200000000000000000e+01,-6.000000000000000000e+00,-1.200000000000000000e+01,-1.100000000000000000e+01,-3.000000000000000000e+00,-3.125000000000000000e-01,-2.807617187500000000e-02,7.882080078125000000e-01,5.292968750000000000e-01
1.000000000000000000e+00,0.000000000000000000e+00,-9.000000000000000000e+00,-1.500000000000000000e+01,-6.000000000000000000e+00,-8.000000000000000000e+00,-6.000000000000000000e+00,-3.000000000000000000e+00,-3.125000000000000000e-01,-2.807617187500000000e-02,7.882080078125000000e-01,5.292968750000000000e-01
-2.000000000000000000e+00,-7.000000000000000000e+00,-3.500000000000000000e+01,-1.200000000000000000e+01,1.000000000000000000e+00,9.000000000000000000e+00,9.000000000000000000e+00,-1.000000000000000000e+00,-3.125000000000000000e-01,-2.807617187500000000e-02,7.882080078125000000e-01,5.292968750000000000e-01
2.000000000000000000e+00,-1.000000000000000000e+00,-2.500000000000000000e+01,1.000000000000000000e+00,9.000000000000000000e+00,6.000000000000000000e+00,2.000000000000000000e+00,-1.000000000000000000e+00,-3.123168945312500000e-01,-2.850341796875000000e-02,7.882080078125000000e-01,5.294799804687500000e-01
-6.000000000000000000e+00,-3.000000000000000000e+00,1.000000000000000000e+00,-4.000000000000000000e+00,-1.000000000000000000e+01,-1.000000000000000000e+00,-2.000000000000000000e+00,-3.000000000000000000e+00,-3.123168945312500000e-01,-2.850341796875000000e-02,7.882080078125000000e-01,5.294799804687500000e-01
-1.000000000000000000e+00,6.000000000000000000e+00,3.500000000000000000e+01,1.100000000000000000e+01,9.000000000000000000e+00,7.000000000000000000e+00,7.000000000000000000e+00,0.000000000000000000e+00,-3.123168945312500000e-01,-2.850341796875000000e-02,7.882080078125000000e-01,5.294799804687500000e-01
-6.000000000000000000e+00,-1.300000000000000000e+01,-1.600000000000000000e+01,-5.000000000000000000e+00,-1.300000000000000000e+01,-1.200000000000000000e+01,-1.800000000000000000e+01,-6.000000000000000000e+00,-3.123168945312500000e-01,-2.850341796875000000e-02,7.882080078125000000e-01,5.294799804687500000e-01
0.000000000000000000e+00,7.000000000000000000e+00,4.800000000000000000e+01,6.000000000000000000e+00,-5.000000000000000000e+00,-6.000000000000000000e+00,-2.500000000000000000e+01,-1.000000000000000000e+00,-3.120117187500000000e-01,-2.838134765625000000e-02,7.881469726562500000e-01,5.297241210937500000e-01
4.000000000000000000e+00,-2.000000000000000000e+00,-5.000000000000000000e+00,-6.000000000000000000e+00,6.000000000000000000e+00,6.000000000000000000e+00,1.100000000000000000e+01,0.000000000000000000e+00,-3.120117187500000000e-01,-2.838134765625000000e-02,7.881469726562500000e-01,5.297241210937500000e-01
-3.000000000000000000e+00,-5.000000000000000000e+00,1.000000000000000000e+01,7.000000000000000000e+00,-1.100000000000000000e+01,-6.000000000000000000e+00,-5.000000000000000000e+00,-1.000000000000000000e+00,-3.120117187500000000e-01,-2.838134765625000000e-02,7.881469726562500000e-01,5.297241210937500000e-01
2.000000000000000000e+00,4.000000000000000000e+00,-1.100000000000000000e+01,1.000000000000000000e+00,5.000000000000000000e+00,-1.000000000000000000e+00,-6.000000000000000000e+00,0.000000000000000000e+00,-3.120117187500000000e-01,-2.838134765625000000e-02,7.881469726562500000e-01,5.297241210937500000e-01
1.000000000000000000e+00,0.000000000000000000e+00,1.000000000000000000e+01,3.000000000000000000e+00,6.000000000000000000e+00,1.000000000000000000e+00,5.000000000000000000e+00,0.000000000000000000e+00,-3.119506835937500000e-01,-2.838134765625000000e-02,7.882080078125000000e-01,5.297241210937500000e-01
-8.000000000000000000e+00,-4.000000000000000000e+00,-3.700000000000000000e+01,-1.000000000000000000e+01,-1.100000000000000000e+01,-1.000000000000000000e+01,-1.200000000000000000e+01,-2.000000000000000000e+00,-3.119506835937500000e-01,-2.838134765625000000e-02,7.882080078125000000e-01,5.297241210937500000e-01
0.000000000000000000e+00,2.000000000000000000e+00,1.000000000000000000e+01,-2.000000000000000000e+00,0.000000000000000000e+00,6.000000000000000000e+00,1.400000000000000000e+01,0.000000000000000000e+00,-3.119506835937500000e-01,-2.838134765625000000e-02,7.882080078125000000e-01,5.297241210937500000e-01
-1.000000000000000000e+00,-2.000000000000000000e+00,-2.500000000000000000e+01,-5.000000000000000000e+00,3.000000000000000000e+00,-4.000000000000000000e+00,1.000000000000000000e+00,1.000000000000000000e+00,-3.119506835937500000e-01,-2.838134765625000000e-02,7.882080078125000000e-01,5.297241210937500000e-01
-1.000000000000000000e+00,1.000000000000000000e+00,1.200000000000000000e+01,9.000000000000000000e+00,3.000000000000000000e+00,3.000000000000000000e+00,1.000000000000000000e+00,-1.000000000000000000e+00,-3.120727539062500000e-01,-2.874755859375000000e-02,7.883300781250000000e-01,5.293579101562500000e-01
0.000000000000000000e+00,-6.000000000000000000e+00,-2.400000000000000000e+01,-1.400000000000000000e+01,-7.000000000000000000e+00,-1.700000000000000000e+01,-1.200000000000000000e+01,0.000000000000000000e+00,-3.120727539062500000e-01,-2.874755859375000000e-02,7.883300781250000000e-01,5.293579101562500000e-01
-2.000000000000000000e+00,7.000000000000000000e+00,5.000000000000000000e+01,1.800000000000000000e+01,3.000000000000000000e+00,2.000000000000000000e+00,5.000000000000000000e+00,-3.000000000000000000e+00,-3.120727539062500000e-01,-2.874755859375000000e-02,7.883300781250000000e-01,5.293579101562500000e-01
-1.000000000000000000e+00,0.000000000000000000e+00,-4.700000000000000000e+01,-1.000000000000000000e+01,0.000000000000000000e+00,5.000000000000000000e+00,7.000000000000000000e+00,-1.000000000000000000e+00,-3.120727539062500000e-01,-2.874755859375000000e-02,7.883300781250000000e-01,5.293579101562500000e-01
0.000000000000000000e+00,1.000000000000000000e+01,8.400000000000000000e+01,7.000000000000000000e+00,-1.000000000000000000e+00,-2.000000000000000000e+00,-5.000000000000000000e+00,-3.000000000000000000e+00,-3.122558593750000000e-01,-2.923583984375000000e-02,7.884521484375000000e-01,5.291137695312500000e-01
-1.000000000000000000e+00,-1.000000000000000000e+01,-2.400000000000000000e+01,7.000000000000000000e+00,9.000000000000000000e+00,0.000000000000000000e+00,8.000000000000000000e+00,0.000000000000000000e+00,-3.122558593750000000e-01,-2.923583984375000000e-02,7.884521484375000000e-01,5.291137695312500000e-01
-1.000000000000000000e+00,-7.000000000000000000e+00,-2.200000000000000000e+01,-1.000000000000000000e+01,-2.000000000000000000e+00,7.000000000000000000e+00,1.100000000000000000e+01,-1.000000000000000000e+00,-3.122558593750000000e-01,-2.923583984375000000e-02,7.884521484375000000e-01,5.291137695312500000e-01
0.000000000000000000e+00,-1.000000000000000000e+00,-1.000000000000000000e+00,-8.000000000000000000e+00,-2.000000000000000000e+00,-6.000000000000000000e+00,-1.100000000000000000e+01,-3.000000000000000000e+00,-3.122558593750000000e-01,-2.923583984375000000e-02,7.884521484375000000e-01,5.291137695312500000e-01
-3.000000000000000000e+00,-6.000000000000000000e+00,0.000000000000000000e+00,-2.000000000000000000e+00,4.000000000000000000e+00,-4.000000000000000000e+00,0.000000000000000000e+00,-4.000000000000000000e+00,-3.121948242187500000e-01,-2.929687500000000000e-02,7.884521484375000000e-01,5.291137695312500000e-01
2.000000000000000000e+00,2.000000000000000000e+00,-3.100000000000000000e+01,4.000000000000000000e+00,-4.000000000000000000e+00,-1.000000000000000000e+00,-3.000000000000000000e+00,-1.000000000000000000e+00,-3.121948242187500000e-01,-2.929687500000000000e-02,7.884521484375000000e-01,5.291137695312500000e-01
-2.000000000000000000e+00,-3.000000000000000000e+00,-2.600000000000000000e+01,-7.000000000000000000e+00,-6.000000000000000000e+00,-7.000000000000000000e+00,-5.000000000000000000e+00,-1.000000000000000000e+00,-3.121948242187500000e-01,-2.929687500000000000e-02,7.884521484375000000e-01,5.291137695312500000e-01
-1.000000000000000000e+00,0.000000000000000000e+00,-1.600000000000000000e+01,-7.000000000000000000e+00,1.000000000000000000e+00,-6.000000000000000000e+00,9.000000000000000000e+00,0.000000000000000000e+00,-3.121948242187500000e-01,-2.929687500000000000e-02,7.884521484375000000e-01,5.291137695312500000e-01
1.000000000000000000e+00,-7.000000000000000000e+00,-2.400000000000000000e+01,-7.000000000000000000e+00,-7.000000000000000000e+00,-4.000000000000000000e+00,-3.000000000000000000e+00,-1.000000000000000000e+00,-3.120727539062500000e-01,-2.905273437500000000e-02,7.883911132812500000e-01,5.292968750000000000e-01
-1.000000000000000000e+00,1.000000000000000000e+00,7.000000000000000000e+00,1.000000000000000000e+01,0.000000000000000000e+00,1.000000000000000000e+00,0.000000000000000000e+00,2.000000000000000000e+00,-3.120727539062500000e-01,-2.905273437500000000e-02,7.883911132812500000e-01,5.292968750000000000e-01
0.000000000000000000e+00,-3.000000000000000000e+00,-3.200000000000000000e+01,-1.900000000000000000e+01,9.000000000000000000e+00,8.000000000000000000e+00,1.000000000000000000e+01,3.000000000000000000e+00,-3.120727539062500000e-01,-2.905273437500000000e-02,7.883911132812500000e-01,5.292968750000000000e-01
0.000000000000000000e+00,2.000000000000000000e+00,5.500000000000000000e+01,3.600000000000000000e+01,4.000000000000000000e+00,-5.000000000000000000e+00,-6.000000000000000000e+00,0.000000000000000000e+00,-3.120727539062500000e-01,-2.905273437500000000e-02,7.883911132812500000e-01,5.292968750000000000e-01
-5.000000000000000000e+00,-1.000000000000000000e+01,-4.800000000000000000e+01,-1.500000000000000000e+01,-5.000000000000000000e+00,5.000000000000000000e+00,1.100000000000000000e+01,1.000000000000000000e+00,-3.120727539062500000e-01,-2.905273437500000000e-02,7.883911132812500000e-01,5.292968750000000000e-01
0.000000000000000000e+00,5.000000000000000000e+00,3.500000000000000000e+01,1.000000000000000000e+01,9.000000000000000000e+00,-3.000000000000000000e+00,1.000000000000000000e+00,0.000000000000000000e+00,-3.120727539062500000e-01,-2.905273437500000000e-02,7.883911132812500000e-01,5.292968750000000000e-01
2.000000000000000000e+00,-1.000000000000000000e+00,7.000000000000000000e+00,-1.200000000000000000e+01,-1.100000000000000000e+01,-5.000000000000000000e+00,-7.000000000000000000e+00,0.000000000000000000e+00,-3.120727539062500000e-01,-2.905273437500000000e-02,7.883911132812500000e-01,5.292968750000000000e-01
-1.000000000000000000e+00,1.100000000000000000e+01,3.000000000000000000e+00,1.400000000000000000e+01,3.000000000000000000e+00,4.000000000000000000e+00,-3.000000000000000000e+00,-1.000000000000000000e+00,-3.120727539062500000e-01,-2.905273437500000000e-02,7.883911132812500000e-01,5.292968750000000000e-01
-2.000000000000000000e+00,-1.100000000000000000e+01,-5.200000000000000000e+01,-6.000000000000000000e+00,3.000000000000000000e+00,4.000000000000000000e+00,0.000000000000000000e+00,3.000000000000000000e+00,-3.120727539062500000e-01,-2.935791015625000000e-02,7.884521484375000000e-01,5.291748046875000000e-01
1.000000000000000000e+00,-1.000000000000000000e+00,2.700000000000000000e+01,7.000000000000000000e+00,1.000000000000000000e+00,5.000000000000000000e+00,-4.000000000000000000e+00,2.000000000000000000e+00,-3.120727539062500000e-01,-2.935791015625000000e-02,7.884521484375000000e-01,5.291748046875000000e-01
-2.000000000000000000e+00,-3.000000000000000000e+00,-1.300000000000000000e+01,-4.000000000000000000e+00,2.000000000000000000e+00,3.000000000000000000e+00,-1.000000000000000000e+00,0.000000000000000000e+00,-3.120727539062500000e-01,-2.935791015625000000e-02,7.884521484375000000e-01,5.291748046875000000e-01
1.000000000000000000e+00,-1.000000000000000000e+00,-1.100000000000000000e+01,-1.000000000000000000e+00,2.000000000000000000e+00,-3.000000000000000000e+00,1.000000000000000000e+00,0.000000000000000000e+00,-3.120727539062500000e-01,-2.935791015625000000e-02,7.884521484375000000e-01,5.291748046875000000e-01
-4.000000000000000000e+00,3.000000000000000000e+00,9.000000000000000000e+00,-3.000000000000000000e+00,-1.100000000000000000e+01,-1.100000000000000000e+01,-9.000000000000000000e+00,-5.000000000000000000e+00,-3.121337890625000000e-01,-2.990722656250000000e-02,7.884521484375000000e-01,5.291137695312500000e-01
-6.000000000000000000e+00,-4.000000000000000000e+00,-6.000000000000000000e+00,1.000000000000000000e+00,-1.000000000000000000e+01,-3.000000000000000000e+00,-4.000000000000000000e+00,-1.000000000000000000e+01,-3.121337890625000000e-01,-2.990722656250000000e-02,7.884521484375000000e-01,5.291137695312500000e-01
2.000000000000000000e+00,7.000000000000000000e+00,2.000000000000000000e+01,1.300000000000000000e+01,-7.000000000000000000e+00,-1.700000000000000000e+01,-2.300000000000000000e+01,-2.000000000000000000e+00,-3.121337890625000000e-01,-2.990722656250000000e-02,7.884521484375000000e-01,5.291137695312500000e-01
-1.000000000000000000e+00,-1.100000000000000000e+01,-3.600000000000000000e+01,-6.000000000000000000e+00,5.000000000000000000e+00,1.300000000000000000e+01,1.500000000000000000e+01,0.000000000000000000e+00,-3.121337890625000000e-01,-2.990722656250000000e-02,7.884521484375000000e-01,5.291137695312500000e-01
1.000000000000000000e+00,3.000000000000000000e+00,4.000000000000000000e+00,-6.000000000000000000e+00,1.000000000000000000e+00,4.000000000000000000e+00,8.000000000000000000e+00,1.000000000000000000e+00,-3.121948242187500000e-01,-3.033447265625000000e-02,7.883911132812500000e-01,5.291137695312500000e-01
-2.000000000000000000e+00,0.000000000000000000e+00,3.100000000000000000e+01,4.000000000000000000e+00,-8.000000000000000000e+00,1.000000000000000000e+00,-3.000000000000000000e+00,-1.000000000000000000e+00,-3.121948242187500000e-01,-3.033447265625000000e-02,7.883911132812500000e-01,5.291137695312500000e-01
