-9.000000000000000000e+00,-8.000000000000000000e+00,-4.700000000000000000e+01,-5.500000000000000000e+01,-5.000000000000000000e+00,-2.000000000000000000e+00,8.000000000000000000e+00,-5.000000000000000000e+00,3.045043945312500000e-01,2.449340820312500000e-01,-9.139404296875000000e-01,1.097412109375000000e-01
0.000000000000000000e+00,1.000000000000000000e+00,2.800000000000000000e+01,3.000000000000000000e+00,-5.000000000000000000e+00,-9.000000000000000000e+00,-7.000000000000000000e+00,-1.000000000000000000e+00,3.045043945312500000e-01,2.449340820312500000e-01,-9.139404296875000000e-01,1.097412109375000000e-01
1.000000000000000000e+00,-2.000000000000000000e+00,1.300000000000000000e+01,1.300000000000000000e+01,5.000000000000000000e+00,3.000000000000000000e+00,-2.000000000000000000e+00,0.000000000000000000e+00,3.045043945312500000e-01,2.449340820312500000e-01,-9.139404296875000000e-01,1.097412109375000000e-01
-2.000000000000000000e+00,1.000000000000000000e+00,5.000000000000000000e+00,9.000000000000000000e+00,5.000000000000000000e+00,2.000000000000000000e+00,3.000000000000000000e+00,1.000000000000000000e+00,3.045043945312500000e-01,2.449340820312500000e-01,-9.139404296875000000e-01,1.097412109375000000e-01
2.000000000000000000e+00,1.000000000000000000e+00,9.000000000000000000e+00,1.700000000000000000e+01,-1.000000000000000000e+00,1.000000000000000000e+00,-2.000000000000000000e+00,-1.000000000000000000e+00,3.041381835937500000e-01,2.451782226562500000e-01,-9.140014648437500000e-01,1.099243164062500000e-01
-1.000000000000000000e+00,6.000000000000000000e+00,1.100000000000000000e+01,-7.000000000000000000e+00,0.000000000000000000e+00,5.000000000000000000e+00,3.000000000000000000e+00,0.000000000000000000e+00,3.041381835937500000e-01,2.451782226562500000e-01,-9.140014648437500000e-01,1.099243164062500000e-01
2.000000000000000000e+00,-3.000000000000000000e+00,-1.400000000000000000e+01,-2.000000000000000000e+00,-1.000000000000000000e+00,-3.000000000000000000e+00,-5.000000000000000000e+00,1.000000000000000000e+00,3.041381835937500000e-01,2.451782226562500000e-01,-9.140014648437500000e-01,1.099243164062500000e-01
-1.000000000000000000e+00,-3.000000000000000000e+00,-1.200000000000000000e+01,-9.000000000000000000e+00,-9.000000000000000000e+00,-4.000000000000000000e+00,1.000000000000000000e+00,2.000000000000000000e+00,3.041381835937500000e-01,2.451782226562500000e-01,-9.140014648437500000e-01,1.099243164062500000e-01
3.000000000000000000e+00,5.000000000000000000e+00,2.800000000000000000e+01,9.000000000000000000e+00,1.000000000000000000e+00,1.000000000000000000e+00,8.000000000000000000e+00,2.000000000000000000e+00,3.037109375000000000e-01,2.449951171875000000e-01,-9.141235351562500000e-01,1.101074218750000000e-01
2.000000000000000000e+00,1.100000000000000000e+01,3.100000000000000000e+01,4.000000000000000000e+00,1.500000000000000000e+01,9.000000000000000000e+00,5.000000000000000000e+00,5.000000000000000000e+00,3.037109375000000000e-01,2.449951171875000000e-01,-9.141235351562500000e-01,1.101074218750000000e-01
-5.000000000000000000e+00,-2.100000000000000000e+01,-8.000000000000000000e+01,-2.500000000000000000e+01,-1.500000000000000000e+01,-1.100000000000000000e+01,-1.200000000000000000e+01,-6.000000000000000000e+00,3.037109375000000000e-01,2.449951171875000000e-01,-9.141235351562500000e-01,1.101074218750000000e-01
-6.000000000000000000e+00,-2.000000000000000000e+00,2.000000000000000000e+00,9.000000000000000000e+00,-2.000000000000000000e+00,1.000000000000000000e+00,-1.000000000000000000e+00,-2.000000000000000000e+00,3.037109375000000000e-01,2.449951171875000000e-01,-9.141235351562500000e-01,1.101074218750000000e-01
-2.000000000000000000e+00,-5.000000000000000000e+00,-6.000000000000000000e+00,-2.700000000000000000e+01,-4.000000000000000000e+00,-5.000000000000000000e+00,-6.000000000000000000e+00,-2.000000000000000000e+00,3.031616210937500000e-01,2.451171875000000000e-01,-9.142456054687500000e-01,1.104125976562500000e-01
-2.000000000000000000e+00,-2.000000000000000000e+00,2.700000000000000000e+01,1.700000000000000000e+01,-1.000000000000000000e+00,-3.000000000000000000e+00,1.000000000000000000e+00,-1.000000000000000000e+00,3.031616210937500000e-01,2.451171875000000000e-01,-9.142456054687500000e-01,1.104125976562500000e-01
5.000000000000000000e+00,6.000000000000000000e+00,-3.000000000000000000e+00,1.000000000000000000e+00,1.000000000000000000e+00,-2.000000000000000000e+00,-1.000000000000000000e+00,-1.000000000000000000e+00,3.031616210937500000e-01,2.451171875000000000e-01,-9.142456054687500000e-01,1.104125976562500000e-01
2.000000000000000000e+00,-2.000000000000000000e+00,-4.000000000000000000e+00,-1.000000000000000000e+01,1.000000000000000000e+00,1.000000000000000000e+00,5.000000000000000000e+00,2.000000000000000000e+00,3.031616210937500000e-01,2.451171875000000000e-01,-9.142456054687500000e-01,1.104125976562500000e-01
0.000000000000000000e+00,0.000000000000000000e+00,1.100000000000000000e+01,9.000000000000000000e+00,0.000000000000000000e+00,-5.000000000000000000e+00,-7.000000000000000000e+00,-3.000000000000000000e+00,3.027954101562500000e-01,2.454833984375000000e-01,-9.142456054687500000e-01,1.107788085937500000e-01
-2.000000000000000000e+00,-6.000000000000000000e+00,-3.200000000000000000e+01,-1.100000000000000000e+01,0.000000000000000000e+00,3.000000000000000000e+00,-3.000000000000000000e+00,-4.000000000000000000e+00,3.027954101562500000e-01,2.454833984375000000e-01,-9.142456054687500000e-01,1.107788085937500000e-01
1.000000000000000000e+01,2.000000000000000000e+01,7.700000000000000000e+01,2.300000000000000000e+01,6.000000000000000000e+00,4.000000000000000000e+00,2.000000000000000000e+00,4.000000000000000000e+00,3.027954101562500000e-01,2.454833984375000000e-01,-9.142456054687500000e-01,1.107788085937500000e-01
-5.000000000000000000e+00,-4.000000000000000000e+00,-7.000000000000000000e+01,-2.400000000000000000e+01,-5.000000000000000000e+00,-6.000000000000000000e+00,-4.000000000000000000e+00,-2.000000000000000000e+00,3.027954101562500000e-01,2.454833984375000000e-01,-9.142456054687500000e-01,1.107788085937500000e-01
0.000000000000000000e+00,-4.000000000000000000e+00,-1.900000000000000000e+01,1.000000000000000000e+01,5.000000000000000000e+00,2.000000000000000000e+00,-1.000000000000000000e+00,-1.000000000000000000e+00,3.023681640625000000e-01,2.454223632812500000e-01,-9.143676757812500000e-01,1.108398437500000000e-01
-1.000000000000000000e+00,-3.000000000000000000e+00,-1.300000000000000000e+01,2.000000000000000000e+01,1.000000000000000000e+00,3.000000000000000000e+00,1.000000000000000000e+00,-1.000000000000000000e+00,3.023681640625000000e-01,2.454223632812500000e-01,-9.143676757812500000e-01,1.108398437500000000e-01
-5.000000000000000000e+00,-3.000000000000000000e+00,-4.000000000000000000e+00,-6.000000000000000000e+00,-1.000000000000000000e+00,1.000000000000000000e+00,1.300000000000000000e+01,-2.000000000000000000e+00,3.023681640625000000e-01,2.454223632812500000e-01,-9.143676757812500000e-01,1.108398437500000000e-01
3.000000000000000000e+00,6.000000000000000000e+00,2.800000000000000000e+01,4.000000000000000000e+00,1.000000000000000000e+00,-2.000000000000000000e+00,-2.000000000000000000e+01,-2.000000000000000000e+00,3.023681640625000000e-01,2.454223632812500000e-01,-9.143676757812500000e-01,1.108398437500000000e-01
1.000000000000000000e+00,4.000000000000000000e+00,-1.400000000000000000e+01,9.000000000000000000e+00,-2.000000000000000000e+00,2.000000000000000000e+00,-2.000000000000000000e+00,2.000000000000000000e+00,3.019409179687500000e-01,2.455444335937500000e-01,-9.144897460937500000e-01,1.109008789062500000e-01
-4.000000000000000000e+00,-3.000000000000000000e+00,2.500000000000000000e+01,0.000000000000000000e+00,-3.000000000000000000e+00,-3.000000000000000000e+00,-9.000000000000000000e+00,-3.000000000000000000e+00,3.019409179687500000e-01,2.455444335937500000e-01,-9.144897460937500000e-01,1.109008789062500000e-01
0.000000000000000000e+00,4.000000000000000000e+00,4.700000000000000000e+01,2.800000000000000000e+01,4.000000000000000000e+00,0.000000000000000000e+00,1.100000000000000000e+01,0.000000000000000000e+00,3.019409179687500000e-01,2.455444335937500000e-01,-9.144897460937500000e-01,1.109008789062500000e-01
-3.000000000000000000e+00,-8.000000000000000000e+00,-7.100000000000000000e+01,-3.200000000000000000e+01,0.000000000000000000e+00,0.000000000000000000e+00,-1.000000000000000000e+00,-5.000000000000000000e+00,3.019409179687500000e-01,2.455444335937500000e-01,-9.144897460937500000e-01,1.109008789062500000e-01
-1.000000000000000000e+00,-3.000000000000000000e+00,1.600000000000000000e+01,-6.000000000000000000e+00,-9.000000000000000000e+00,-3.000000000000000000e+00,1.000000000000000000e+00,-1.000000000000000000e+00,3.015136718750000000e-01,2.455444335937500000e-01,-9.146118164062500000e-01,1.111450195312500000e-01
-1.000000000000000000e+00,0.000000000000000000e+00,2.200000000000000000e+01,6.000000000000000000e+00,2.000000000000000000e+00,1.000000000000000000e+00,1.000000000000000000e+00,-2.000000000000000000e+00,3.015136718750000000e-01,2.455444335937500000e-01,-9.146118164062500000e-01,1.111450195312500000e-01
1.000000000000000000e+00,8.000000000000000000e+00,2.000000000000000000e+01,2.400000000000000000e+01,2.000000000000000000e+00,-1.000000000000000000e+00,-5.000000000000000000e+00,1.000000000000000000e+00,3.015136718750000000e-01,2.455444335937500000e-01,-9.146118164062500000e-01,1.111450195312500000e-01
-2.000000000000000000e+00,-2.000000000000000000e+00,-2.000000000000000000e+00,-2.100000000000000000e+01,-5.000000000000000000e+00,-4.000000000000000000e+00,5.000000000000000000e+00,-2.000000000000000000e+00,3.015136718750000000e-01,2.455444335937500000e-01,-9.146118164062500000e-01,1.111450195312500000e-01
1.000000000000000000e+00,-2.000000000000000000e+00,-2.500000000000000000e+01,1.000000000000000000e+00,-4.000000000000000000e+00,-1.000000000000000000e+00,-7.000000000000000000e+00,-3.000000000000000000e+00,3.010253906250000000e-01,2.457885742187500000e-01,-9.146118164062500000e-01,1.114501953125000000e-01
-1.000000000000000000e+00,1.000000000000000000e+00,3.300000000000000000e+01,-9.000000000000000000e+00,-5.000000000000000000e+00,-5.000000000000000000e+00,2.000000000000000000e+00,0.000000000000000000e+00,3.010253906250000000e-01,2.457885742187500000e-01,-9.146118164062500000e-01,1.114501953125000000e-01
0.000000000000000000e+00,-6.000000000000000000e+00,-5.800000000000000000e+01,-2.300000000000000000e+01,-6.000000000000000000e+00,-2.000000000000000000e+00,-5.000000000000000000e+00,0.000000000000000000e+00,3.010253906250000000e-01,2.457885742187500000e-01,-9.146118164062500000e-01,1.114501953125000000e-01
-3.000000000000000000e+00,0.000000000000000000e+00,7.000000000000000000e+01,2.900000000000000000e+01,3.000000000000000000e+00,-1.000000000000000000e+00,0.000000000000000000e+00,-1.000000000000000000e+00,3.010253906250000000e-01,2.457885742187500000e-01,-9.146118164062500000e-01,1.114501953125000000e-01
0.000000000000000000e+00,2.000000000000000000e+00,2.000000000000000000e+01,1.300000000000000000e+01,5.000000000000000000e+00,1.000000000000000000e+00,-2.000000000000000000e+00,0.000000000000000000e+00,3.007202148437500000e-01,2.457275390625000000e-01,-9.147338867187500000e-01,1.116333007812500000e-01
0.000000000000000000e+00,1.000000000000000000e+00,-4.400000000000000000e+01,-2.300000000000000000e+01,-4.000000000000000000e+00,0.000000000000000000e+00,1.000000000000000000e+00,1.000000000000000000e+00,3.007202148437500000e-01,2.457275390625000000e-01,-9.147338867187500000e-01,1.116333007812500000e-01
-4.000000000000000000e+00,-1.200000000000000000e+01,-6.600000000000000000e+01,-4.100000000000000000e+01,-5.000000000000000000e+00,-1.000000000000000000e+00,-3.000000000000000000e+00,-4.000000000000000000e+00,3.007202148437500000e-01,2.457275390625000000e-01,-9.147338867187500000e-01,1.116333007812500000e-01
7.000000000000000000e+00,6.000000000000000000e+00,1.700000000000000000e+01,1.000000000000000000e+00,-1.000000000000000000e+00,6.000000000000000000e+00,1.500000000000000000e+01,2.000000000000000000e+00,3.007202148437500000e-01,2.457275390625000000e-01,-9.147338867187500000e-01,1.116333007812500000e-01
-5.000000000000000000e+00,-1.100000000000000000e+01,2.400000000000000000e+01,9.000000000000000000e+00,-5.000000000000000000e+00,-8.000000000000000000e+00,-7.000000000000000000e+00,-5.000000000000000000e+00,3.003540039062500000e-01,2.457275390625000000e-01,-9.148559570312500000e-01,1.118164062500000000e-01
-2.000000000000000000e+00,-1.000000000000000000e+00,-3.000000000000000000e+00,-1.600000000000000000e+01,-7.000000000000000000e+00,-1.000000000000000000e+00,-1.000000000000000000e+00,0.000000000000000000e+00,3.003540039062500000e-01,2.457275390625000000e-01,-9.148559570312500000e-01,1.118164062500000000e-01
3.000000000000000000e+00,6.000000000000000000e+00,3.300000000000000000e+01,2.400000000000000000e+01,7.000000000000000000e+00,7.000000000000000000e+00,2.000000000000000000e+00,1.000000000000000000e+00,3.003540039062500000e-01,2.457275390625000000e-01,-9.148559570312500000e-01,1.118164062500000000e-01
0.000000000000000000e+00,0.000000000000000000e+00,-1.900000000000000000e+01,-6.000000000000000000e+00,0.000000000000000000e+00,0.000000000000000000e+00,1.000000000000000000e+00,2.000000000000000000e+00,3.003540039062500000e-01,2.457275390625000000e-01,-9.148559570312500000e-01,1.118164062500000000e-01
0.000000000000000000e+00,2.000000000000000000e+00,1.800000000000000000e+01,-1.000000000000000000e+00,4.000000000000000000e+00,1.000000000000000000e+00,-2.000000000000000000e+00,0.000000000000000000e+00,3.000488281250000000e-01,2.456665039062500000e-01,-9.149169921875000000e-01,1.123046875000000000e-01
1.000000000000000000e+00,-3.000000000000000000e+00,1.500000000000000000e+01,1.100000000000000000e+01,1.000000000000000000e+00,-3.000000000000000000e+00,5.000000000000000000e+00,2.000000000000000000e+00,3.000488281250000000e-01,2.456665039062500000e-01,-9.149169921875000000e-01,1.123046875000000000e-01
-5.000000000000000000e+00,-1.300000000000000000e+01,-5.400000000000000000e+01,-3.100000000000000000e+01,-4.000000000000000000e+00,-2.000000000000000000e+00,-5.000000000000000000e+00,1.000000000000000000e+00,3.000488281250000000e-01,2.456665039062500000e-01,-9.149169921875000000e-01,1.123046875000000000e-01
-1.000000000000000000e+00,4.000000000000000000e+00,2.000000000000000000e+00,7.000000000000000000e+00,-4.000000000000000000e+00,-3.000000000000000000e+00,-5.000000000000000000e+00,-3.000000000000000000e+00,3.000488281250000000e-01,2.456665039062500000e-01,-9.149169921875000000e-01,1.123046875000000000e-01
-4.000000000000000000e+00,-2.000000000000000000e+00,-2.000000000000000000e+01,-1.000000000000000000e+00,2.000000000000000000e+00,0.000000000000000000e+00,3.000000000000000000e+00,0.000000000000000000e+00,2.994995117187500000e-01,2.459106445312500000e-01,-9.149780273437500000e-01,1.127319335937500000e-01
-3.000000000000000000e+00,-4.000000000000000000e+00,-2.000000000000000000e+00,7.000000000000000000e+00,4.000000000000000000e+00,-2.000000000000000000e+00,-6.000000000000000000e+00,-4.000000000000000000e+00,2.994995117187500000e-01,2.459106445312500000e-01,-9.149780273437500000e-01,1.127319335937500000e-01
4.000000000000000000e+00,1.100000000000000000e+01,2.500000000000000000e+01,2.800000000000000000e+01,3.000000000000000000e+00,-6.000000000000000000e+00,-1.200000000000000000e+01,3.000000000000000000e+00,2.994995117187500000e-01,2.459106445312500000e-01,-9.149780273437500000e-01,1.127319335937500000e-01
-2.000000000000000000e+00,-5.000000000000000000e+00,6.000000000000000000e+00,-2.200000000000000000e+01,-4.000000000000000000e+00,2.000000000000000000e+00,6.000000000000000000e+00,-2.000000000000000000e+00,2.994995117187500000e-01,2.459106445312500000e-01,-9.149780273437500000e-01,1.127319335937500000e-01
2.000000000000000000e+00,3.000000000000000000e+00,2.000000000000000000e+00,3.000000000000000000e+00,-2.000000000000000000e+00,-8.000000000000000000e+00,-1.700000000000000000e+01,0.000000000000000000e+00,2.990112304687500000e-01,2.462768554687500000e-01,-9.149780273437500000e-01,1.129150390625000000e-01
3.000000000000000000e+00,0.000000000000000000e+00,-2.400000000000000000e+01,1.000000000000000000e+00,1.000000000000000000e+00,6.000000000000000000e+00,1.900000000000000000e+01,2.000000000000000000e+00,2.990112304687500000e-01,2.462768554687500000e-01,-9.149780273437500000e-01,1.129150390625000000e-01
-3.000000000000000000e+00,-5.000000000000000000e+00,-6.000000000000000000e+00,-5.000000000000000000e+00,-3.000000000000000000e+00,-3.000000000000000000e+00,-7.000000000000000000e+00,-4.000000000000000000e+00,2.990112304687500000e-01,2.462768554687500000e-01,-9.149780273437500000e-01,1.129150390625000000e-01
3.000000000000000000e+00,5.000000000000000000e+00,3.000000000000000000e+01,6.000000000000000000e+00,3.000000000000000000e+00,-1.000000000000000000e+00,1.000000000000000000e+00,-1.000000000000000000e+00,2.990112304687500000e-01,2.462768554687500000e-01,-9.149780273437500000e-01,1.129150390625000000e-01
-8.000000000000000000e+00,1.000000000000000000e+00,2.000000000000000000e+01,9.000000000000000000e+00,2.000000000000000000e+00,1.000000000000000000e+00,0.000000000000000000e+00,-1.000000000000000000e+00,2.987060546875000000e-01,2.460937500000000000e-01,-9.151611328125000000e-01,1.129760742187500000e-01
-4.000000000000000000e+00,1.000000000000000000e+00,-2.400000000000000000e+01,2.000000000000000000e+00,-3.000000000000000000e+00,-2.000000000000000000e+00,-8.000000000000000000e+00,-2.000000000000000000e+00,2.987060546875000000e-01,2.460937500000000000e-01,-9.151611328125000000e-01,1.129760742187500000e-01
-3.000000000000000000e+00,2.000000000000000000e+00,2.700000000000000000e+01,-2.000000000000000000e+00,-5.000000000000000000e+00,-1.000000000000000000e+00,0.000000000000000000e+00,0.000000000000000000e+00,2.987060546875000000e-01,2.460937500000000000e-01,-9.151611328125000000e-01,1.129760742187500000e-01
4.000000000000000000e+00,3.000000000000000000e+00,8.000000000000000000e+00,8.000000000000000000e+00,2.000000000000000000e+00,0.000000000000000000e+00,-1.000000000000000000e+00,2.000000000000000000e+00,2.987060546875000000e-01,2.460937500000000000e-01,-9.151611328125000000e-01,1.129760742187500000e-01
0.000000000000000000e+00,-8.000000000000000000e+00,3.000000000000000000e+00,-4.000000000000000000e+00,-3.000000000000000000e+00,-3.000000000000000000e+00,5.000000000000000000e+00,-1.000000000000000000e+00,2.984008789062500000e-01,2.460327148437500000e-01,-9.152221679687500000e-01,1.132202148437500000e-01
3.000000000000000000e+00,1.400000000000000000e+01,2.000000000000000000e+01,-2.000000000000000000e+00,4.000000000000000000e+00,6.000000000000000000e+00,5.000000000000000000e+00,4.000000000000000000e+00,2.984008789062500000e-01,2.460327148437500000e-01,-9.152221679687500000e-01,1.132202148437500000e-01
-1.300000000000000000e+01,-2.400000000000000000e+01,-2.500000000000000000e+01,3.000000000000000000e+00,-8.000000000000000000e+00,-8.000000000000000000e+00,-2.000000000000000000e+00,-9.000000000000000000e+00,2.984008789062500000e-01,2.460327148437500000e-01,-9.152221679687500000e-01,1.132202148437500000e-01
3.000000000000000000e+00,-3.000000000000000000e+00,-5.300000000000000000e+01,-1.200000000000000000e+01,4.000000000000000000e+00,-1.000000000000000000e+00,-4.000000000000000000e+00,0.000000000000000000e+00,2.984008789062500000e-01,2.460327148437500000e-01,-9.152221679687500000e-01,1.132202148437500000e-01
-1.000000000000000000e+00,4.000000000000000000e+00,-2.500000000000000000e+01,-2.100000000000000000e+01,3.000000000000000000e+00,4.000000000000000000e+00,3.000000000000000000e+00,1.000000000000000000e+00,2.980346679687500000e-01,2.460327148437500000e-01,-9.152832031250000000e-01,1.135253906250000000e-01
1.000000000000000000e+00,2.000000000000000000e+00,9.000000000000000000e+00,-6.000000000000000000e+00,-1.000000000000000000e+00,-2.000000000000000000e+00,-1.000000000000000000e+00,-2.000000000000000000e+00,2.980346679687500000e-01,2.460327148437500000e-01,-9.152832031250000000e-01,1.135253906250000000e-01
2.000000000000000000e+00,6.000000000000000000e+00,4.000000000000000000e+00,7.000000000000000000e+00,0.000000000000000000e+00,2.000000000000000000e+00,0.000000000000000000e+00,0.000000000000000000e+00,2.980346679687500000e-01,2.460327148437500000e-01,-9.152832031250000000e-01,1.135253906250000000e-01
-1.000000000000000000e+00,-3.000000000000000000e+00,4.000000000000000000e+00,2.000000000000000000e+00,-3.000000000000000000e+00,1.000000000000000000e+00,3.000000000000000000e+00,1.000000000000000000e+00,2.980346679687500000e-01,2.460327148437500000e-01,-9.152832031250000000e-01,1.135253906250000000e-01
-3.000000000000000000e+00,-1.000000000000000000e+01,2.000000000000000000e+00,1.000000000000000000e+00,-5.000000000000000000e+00,-6.000000000000000000e+00,-5.000000000000000000e+00,-7.000000000000000000e+00,2.975463867187500000e-01,2.465820312500000000e-01,-9.152221679687500000e-01,1.140136718750000000e-01
1.000000000000000000e+00,-5.000000000000000000e+00,-1.100000000000000000e+01,0.000000000000000000e+00,-2.000000000000000000e+00,-1.000000000000000000e+00,-7.000000000000000000e+00,-2.000000000000000000e+00,2.975463867187500000e-01,2.465820312500000000e-01,-9.152221679687500000e-01,1.140136718750000000e-01
0.000000000000000000e+00,5.000000000000000000e+00,2.200000000000000000e+01,-9.000000000000000000e+00,-2.000000000000000000e+00,2.000000000000000000e+00,1.000000000000000000e+00,-1.000000000000000000e+00,2.975463867187500000e-01,2.465820312500000000e-01,-9.152221679687500000e-01,1.140136718750000000e-01
-1.000000000000000000e+00,6.000000000000000000e+00,-7.000000000000000000e+00,3.300000000000000000e+01,7.000000000000000000e+00,-3.000000000000000000e+00,-4.000000000000000000e+00,-1.000000000000000000e+00,2.975463867187500000e-01,2.465820312500000000e-01,-9.152221679687500000e-01,1.140136718750000000e-01
-3.000000000000000000e+00,-8.000000000000000000e+00,-3.200000000000000000e+01,-1.900000000000000000e+01,-8.000000000000000000e+00,-3.000000000000000000e+00,-1.400000000000000000e+01,-3.000000000000000000e+00,2.971191406250000000e-01,2.467651367187500000e-01,-9.152832031250000000e-01,1.143188476562500000e-01
-5.000000000000000000e+00,-2.000000000000000000e+00,1.400000000000000000e+01,2.000000000000000000e+00,3.000000000000000000e+00,0.000000000000000000e+00,1.000000000000000000e+00,-4.000000000000000000e+00,2.971191406250000000e-01,2.467651367187500000e-01,-9.152832031250000000e-01,1.143188476562500000e-01
-2.000000000000000000e+00,-1.300000000000000000e+01,-3.400000000000000000e+01,-1.600000000000000000e+01,0.000000000000000000e+00,-1.000000000000000000e+00,1.000000000000000000e+00,-2.000000000000000000e+00,2.971191406250000000e-01,2.467651367187500000e-01,-9.152832031250000000e-01,1.143188476562500000e-01
2.000000000000000000e+00,4.000000000000000000e+00,1.300000000000000000e+01,-3.000000000000000000e+00,-2.000000000000000000e+00,-2.000000000000000000e+00,-3.000000000000000000e+00,1.000000000000000000e+00,2.971191406250000000e-01,2.467651367187500000e-01,-9.152832031250000000e-01,1.143188476562500000e-01
2.000000000000000000e+00,-2.000000000000000000e+00,-1.300000000000000000e+01,2.000000000000000000e+00,0.000000000000000000e+00,0.000000000000000000e+00,1.000000000000000000e+00,0.000000000000000000e+00,2.965698242187500000e-01,2.473754882812500000e-01,-9.152832031250000000e-01,1.148071289062500000e-01
-1.000000000000000000e+00,0.000000000000000000e+00,2.000000000000000000e+00,-1.000000000000000000e+00,-9.000000000000000000e+00,-4.000000000000000000e+00,1.000000000000000000e+00,0.000000000000000000e+00,2.965698242187500000e-01,2.473754882812500000e-01,-9.152832031250000000e-01,1.148071289062500000e-01
-1.000000000000000000e+00,1.000000000000000000e+00,1.000000000000000000e+01,-1.000000000000000000e+00,5.000000000000000000e+00,4.000000000000000000e+00,6.000000000000000000e+00,1.000000000000000000e+00,2.965698242187500000e-01,2.473754882812500000e-01,-9.152832031250000000e-01,1.148071289062500000e-01
-2.000000000000000000e+00,-8.000000000000000000e+00,-1.300000000000000000e+01,7.000000000000000000e+00,-5.000000000000000000e+00,0.000000000000000000e+00,-4.000000000000000000e+00,-3.000000000000000000e+00,2.965698242187500000e-01,2.473754882812500000e-01,-9.152832031250000000e-01,1.148071289062500000e-01
1.000000000000000000e+00,2.000000000000000000e+00,3.000000000000000000e+01,-7.000000000000000000e+00,3.000000000000000000e+00,-1.000000000000000000e+00,4.000000000000000000e+00,1.000000000000000000e+00,2.960815429687500000e-01,2.475585937500000000e-01,-9.153442382812500000e-01,1.151733398437500000e-01
-2.000000000000000000e+00,-1.000000000000000000e+00,0.000000000000000000e+00,1.900000000000000000e+01,-5.000000000000000000e+00,-7.000000000000000000e+00,-1.200000000000000000e+01,-4.000000000000000000e+00,2.960815429687500000e-01,2.475585937500000000e-01,-9.153442382812500000e-01,1.151733398437500000e-01
4.000000000000000000e+00,1.100000000000000000e+01,6.800000000000000000e+01,2.000000000000000000e+01,-1.000000000000000000e+00,-1.000000000000000000e+00,1.000000000000000000e+00,1.000000000000000000e+00,2.960815429687500000e-01,2.475585937500000000e-01,-9.153442382812500000e-01,1.151733398437500000e-01
-3.000000000000000000e+00,-8.000000000000000000e+00,2.000000000000000000e+00,-1.800000000000000000e+01,-4.000000000000000000e+00,2.000000000000000000e+00,2.000000000000000000e+00,-1.000000000000000000e+00,2.960815429687500000e-01,2.475585937500000000e-01,-9.153442382812500000e-01,1.151733398437500000e-01
0.000000000000000000e+00,3.000000000000000000e+00,-5.000000000000000000e+00,1.200000000000000000e+01,5.000000000000000000e+00,1.000000000000000000e+01,1.000000000000000000e+01,3.000000000000000000e+00,2.955322265625000000e-01,2.480468750000000000e-01,-9.153442382812500000e-01,1.153564453125000000e-01
-3.000000000000000000e+00,-8.000000000000000000e+00,1.200000000000000000e+01,-9.000000000000000000e+00,-6.000000000000000000e+00,-9.000000000000000000e+00,-1.500000000000000000e+01,-4.000000000000000000e+00,2.955322265625000000e-01,2.480468750000000000e-01,-9.153442382812500000e-01,1.153564453125000000e-01
-5.000000000000000000e+00,-2.000000000000000000e+00,3.000000000000000000e+00,6.000000000000000000e+00,5.000000000000000000e+00,4.000000000000000000e+00,6.000000000000000000e+00,-2.000000000000000000e+00,2.955322265625000000e-01,2.480468750000000000e-01,-9.153442382812500000e-01,1.153564453125000000e-01
3.000000000000000000e+00,1.000000000000000000e+00,4.000000000000000000e+00,-1.000000000000000000e+00,1.000000000000000000e+00,-4.000000000000000000e+00,-2.000000000000000000e+00,-1.000000000000000000e+00,2.955322265625000000e-01,2.480468750000000000e-01,-9.153442382812500000e-01,1.153564453125000000e-01
-2.000000000000000000e+00,1.000000000000000000e+00,1.400000000000000000e+01,3.000000000000000000e+00,-7.000000000000000000e+00,-3.000000000000000000e+00,-7.000000000000000000e+00,-3.000000000000000000e+00,2.952270507812500000e-01,2.478637695312500000e-01,-9.154663085937500000e-01,1.154785156250000000e-01
-1.000000000000000000e+00,-5.000000000000000000e+00,-2.100000000000000000e+01,-1.200000000000000000e+01,3.000000000000000000e+00,3.000000000000000000e+00,3.000000000000000000e+00,-1.000000000000000000e+00,2.952270507812500000e-01,2.478637695312500000e-01,-9.154663085937500000e-01,1.154785156250000000e-01
0.000000000000000000e+00,1.000000000000000000e+00,-1.400000000000000000e+01,-9.000000000000000000e+00,-4.000000000000000000e+00,-9.000000000000000000e+00,-5.000000000000000000e+00,-2.000000000000000000e+00,2.952270507812500000e-01,2.478637695312500000e-01,-9.154663085937500000e-01,1.154785156250000000e-01
-4.000000000000000000e+00,-3.000000000000000000e+00,2.200000000000000000e+01,1.000000000000000000e+00,-1.000000000000000000e+00,2.000000000000000000e+00,-1.000000000000000000e+00,1.000000000000000000e+00,2.952270507812500000e-01,2.478637695312500000e-01,-9.154663085937500000e-01,1.154785156250000000e-01
2.000000000000000000e+00,9.000000000000000000e+00,-1.900000000000000000e+01,-3.000000000000000000e+00,3.000000000000000000e+00,-3.000000000000000000e+00,-4.000000000000000000e+00,0.000000000000000000e+00,2.946777343750000000e-01,2.478027343750000000e-01,-9.156494140625000000e-01,1.156616210937500000e-01
-6.000000000000000000e+00,-1.500000000000000000e+01,-3.300000000000000000e+01,-4.000000000000000000e+00,-2.000000000000000000e+00,0.000000000000000000e+00,-4.000000000000000000e+00,-3.000000000000000000e+00,2.946777343750000000e-01,2.478027343750000000e-01,-9.156494140625000000e-01,1.156616210937500000e-01
0.000000000000000000e+00,0.000000000000000000e+00,1.000000000000000000e+00,-8.000000000000000000e+00,-2.000000000000000000e+00,-1.000000000000000000e+00,-8.000000000000000000e+00,0.000000000000000000e+00,2.946777343750000000e-01,2.478027343750000000e-01,-9.156494140625000000e-01,1.156616210937500000e-01
0.000000000000000000e+00,-1.000000000000000000e+00,-1.900000000000000000e+01,-6.000000000000000000e+00,-5.000000000000000000e+00,-7.000000000000000000e+00,-2.000000000000000000e+00,3.000000000000000000e+00,2.946777343750000000e-01,2.478027343750000000e-01,-9.156494140625000000e-01,1.156616210937500000e-01
1.000000000000000000e+00,-7.000000000000000000e+00,-1.500000000000000000e+01,5.000000000000000000e+00,-2.000000000000000000e+00,0.000000000000000000e+00,6.000000000000000000e+00,1.000000000000000000e+00,2.940063476562500000e-01,2.482910156250000000e-01,-9.157104492187500000e-01,1.160278320312500000e-01
4.000000000000000000e+00,5.000000000000000000e+00,-7.000000000000000000e+00,2.000000000000000000e+00,0.000000000000000000e+00,0.000000000000000000e+00,9.000000000000000000e+00,3.000000000000000000e+00,2.940063476562500000e-01,2.482910156250000000e-01,-9.157104492187500000e-01,1.160278320312500000e-01
-1.000000000000000000e+00,-1.000000000000000000e+00,9.000000000000000000e+00,1.000000000000000000e+00,5.000000000000000000e+00,-1.000000000000000000e+00,-9.000000000000000000e+00,-5.000000000000000000e+00,2.940063476562500000e-01,2.482910156250000000e-01,-9.157104492187500000e-01,1.160278320312500000e-01
-4.000000000000000000e+00,-2.000000000000000000e+00,-2.400000000000000000e+01,-6.000000000000000000e+00,-3.000000000000000000e+00,-6.000000000000000000e+00,-1.000000000000000000e+00,-3.000000000000000000e+00,2.940063476562500000e-01,2.482910156250000000e-01,-9.157104492187500000e-01,1.160278320312500000e-01
1.000000000000000000e+00,6.000000000000000000e+00,5.400000000000000000e+01,1.600000000000000000e+01,-5.000000000000000000e+00,-4.000000000000000000e+00,-3.000000000000000000e+00,-2.000000000000000000e+00,2.933959960937500000e-01,2.484741210937500000e-01,-9.157714843750000000e-01,1.162109375000000000e-01
-1.000000000000000000e+00,-1.200000000000000000e+01,-1.200000000000000000e+01,-1.100000000000000000e+01,-3.000000000000000000e+00,2.000000000000000000e+00,-1.000000000000000000e+00,-1.000000000000000000e+00,2.933959960937500000e-01,2.484741210937500000e-01,-9.157714843750000000e-01,1.162109375000000000e-01
0.000000000000000000e+00,5.000000000000000000e+00,1.000000000000000000e+01,-1.000000000000000000e+00,-2.000000000000000000e+00,-3.000000000000000000e+00,1.400000000000000000e+01,3.000000000000000000e+00,2.933959960937500000e-01,2.484741210937500000e-01,-9.157714843750000000e-01,1.162109375000000000e-01
-1.000000000000000000e+00,-4.000000000000000000e+00,0.000000000000000000e+00,-3.000000000000000000e+00,-2.000000000000000000e+00,-1.000000000000000000e+00,-4.000000000000000000e+00,-1.000000000000000000e+00,2.933959960937500000e-01,2.484741210937500000e-01,-9.157714843750000000e-01,1.162109375000000000e-01
-1.000000000000000000e+00,-3.000000000000000000e+00,0.000000000000000000e+00,-9.000000000000000000e+00,-4.000000000000000000e+00,-4.000000000000000000e+00,2.000000000000000000e+00,1.000000000000000000e+00,2.927856445312500000e-01,2.488403320312500000e-01,-9.158935546875000000e-01,1.163330078125000000e-01
-2.000000000000000000e+00,-1.000000000000000000e+00,2.700000000000000000e+01,1.800000000000000000e+01,-2.000000000000000000e+00,-1.000000000000000000e+00,1.000000000000000000e+00,-3.000000000000000000e+00,2.927856445312500000e-01,2.488403320312500000e-01,-9.158935546875000000e-01,1.163330078125000000e-01
1.000000000000000000e+00,1.000000000000000000e+00,-2.800000000000000000e+01,1.600000000000000000e+01,3.000000000000000000e+00,2.000000000000000000e+00,1.000000000000000000e+00,1.000000000000000000e+00,2.927856445312500000e-01,2.488403320312500000e-01,-9.158935546875000000e-01,1.163330078125000000e-01
-2.000000000000000000e+00,-8.000000000000000000e+00,-3.900000000000000000e+01,-4.900000000000000000e+01,-3.000000000000000000e+00,-2.000000000000000000e+00,-1.000000000000000000e+00,-2.000000000000000000e+00,2.927856445312500000e-01,2.488403320312500000e-01,-9.158935546875000000e-01,1.163330078125000000e-01
1.000000000000000000e+00,-3.000000000000000000e+00,-6.000000000000000000e+00,1.000000000000000000e+01,-6.000000000000000000e+00,-6.000000000000000000e+00,-1.000000000000000000e+00,-4.000000000000000000e+00,2.923583984375000000e-01,2.489624023437500000e-01,-9.159545898437500000e-01,1.163940429687500000e-01
-1.000000000000000000e+00,1.000000000000000000e+01,8.000000000000000000e+00,0.000000000000000000e+00,0.000000000000000000e+00,-1.000000000000000000e+00,-1.000000000000000000e+00,2.000000000000000000e+00,2.923583984375000000e-01,2.489624023437500000e-01,-9.159545898437500000e-01,1.163940429687500000e-01
-5.000000000000000000e+00,-3.000000000000000000e+00,-3.100000000000000000e+01,-7.000000000000000000e+00,-1.000000000000000000e+00,0.000000000000000000e+00,-5.000000000000000000e+00,-1.000000000000000000e+00,2.923583984375000000e-01,2.489624023437500000e-01,-9.159545898437500000e-01,1.163940429687500000e-01
-5.000000000000000000e+00,-5.000000000000000000e+00,6.000000000000000000e+00,5.000000000000000000e+00,-4.000000000000000000e+00,-2.000000000000000000e+00,-1.000000000000000000e+00,-6.000000000000000000e+00,2.923583984375000000e-01,2.489624023437500000e-01,-9.159545898437500000e-01,1.163940429687500000e-01
1.000000000000000000e+00,2.000000000000000000e+00,-5.300000000000000000e+01,-1.600000000000000000e+01,8.000000000000000000e+00,2.000000000000000000e+00,-6.000000000000000000e+00,-1.000000000000000000e+00,2.918701171875000000e-01,2.491455078125000000e-01,-9.160766601562500000e-01,1.166381835937500000e-01
0.000000000000000000e+00,0.000000000000000000e+00,1.000000000000000000e+00,-1.200000000000000000e+01,-4.000000000000000000e+00,-4.000000000000000000e+00,-5.000000000000000000e+00,-4.000000000000000000e+00,2.918701171875000000e-01,2.491455078125000000e-01,-9.160766601562500000e-01,1.166381835937500000e-01
3.000000000000000000e+00,-1.000000000000000000e+00,2.000000000000000000e+01,7.000000000000000000e+00,3.000000000000000000e+00,1.000000000000000000e+00,-1.000000000000000000e+00,-1.000000000000000000e+00,2.918701171875000000e-01,2.491455078125000000e-01,-9.160766601562500000e-01,1.166381835937500000e-01
1.000000000000000000e+00,4.000000000000000000e+00,1.500000000000000000e+01,9.000000000000000000e+00,-4.000000000000000000e+00,-1.000000000000000000e+00,7.000000000000000000e+00,-1.000000000000000000e+00,2.918701171875000000e-01,2.491455078125000000e-01,-9.160766601562500000e-01,1.166381835937500000e-01
-1.000000000000000000e+00,0.000000000000000000e+00,-1.000000000000000000e+00,-1.200000000000000000e+01,-3.000000000000000000e+00,-5.000000000000000000e+00,-5.000000000000000000e+00,-4.000000000000000000e+00,2.913818359375000000e-01,2.494506835937500000e-01,-9.160766601562500000e-01,1.168823242187500000e-01
-2.000000000000000000e+00,3.000000000000000000e+00,1.200000000000000000e+01,1.000000000000000000e+01,0.000000000000000000e+00,0.000000000000000000e+00,-1.000000000000000000e+00,-1.000000000000000000e+00,2.913818359375000000e-01,2.494506835937500000e-01,-9.160766601562500000e-01,1.168823242187500000e-01
-2.000000000000000000e+00,-1.200000000000000000e+01,-2.500000000000000000e+01,-1.800000000000000000e+01,-7.000000000000000000e+00,-1.000000000000000000e+00,-2.000000000000000000e+00,-1.000000000000000000e+00,2.913818359375000000e-01,2.494506835937500000e-01,-9.160766601562500000e-01,1.168823242187500000e-01
-1.000000000000000000e+00,-2.000000000000000000e+00,9.000000000000000000e+00,1.100000000000000000e+01,2.000000000000000000e+00,-3.000000000000000000e+00,-7.000000000000000000e+00,0.000000000000000000e+00,2.913818359375000000e-01,2.494506835937500000e-01,-9.160766601562500000e-01,1.168823242187500000e-01
-1.000000000000000000e+00,5.000000000000000000e+00,4.700000000000000000e+01,2.500000000000000000e+01,0.000000000000000000e+00,-1.000000000000000000e+00,4.000000000000000000e+00,-1.000000000000000000e+00,2.909545898437500000e-01,2.495727539062500000e-01,-9.161987304687500000e-01,1.170654296875000000e-01
-2.000000000000000000e+00,-3.000000000000000000e+00,-3.300000000000000000e+01,-3.000000000000000000e+01,-3.000000000000000000e+00,-2.000000000000000000e+00,-4.000000000000000000e+00,0.000000000000000000e+00,2.909545898437500000e-01,2.495727539062500000e-01,-9.161987304687500000e-01,1.170654296875000000e-01
-2.000000000000000000e+00,-2.000000000000000000e+00,7.000000000000000000e+00,-4.000000000000000000e+00,4.000000000000000000e+00,1.000000000000000000e+00,5.000000000000000000e+00,-1.000000000000000000e+00,2.909545898437500000e-01,2.495727539062500000e-01,-9.161987304687500000e-01,1.170654296875000000e-01
4.000000000000000000e+00,3.000000000000000000e+00,4.000000000000000000e+01,1.400000000000000000e+01,2.000000000000000000e+00,3.000000000000000000e+00,7.000000000000000000e+00,0.000000000000000000e+00,2.909545898437500000e-01,2.495727539062500000e-01,-9.161987304687500000e-01,1.170654296875000000e-01
-2.000000000000000000e+00,1.000000000000000000e+00,-1.900000000000000000e+01,2.700000000000000000e+01,4.000000000000000000e+00,4.000000000000000000e+00,1.000000000000000000e+00,1.000000000000000000e+00,2.905883789062500000e-01,2.495117187500000000e-01,-9.162597656250000000e-01,1.171875000000000000e-01
0.000000000000000000e+00,-3.000000000000000000e+00,3.700000000000000000e+01,-1.100000000000000000e+01,-4.000000000000000000e+00,0.000000000000000000e+00,2.000000000000000000e+00,0.000000000000000000e+00,2.905883789062500000e-01,2.495117187500000000e-01,-9.162597656250000000e-01,1.171875000000000000e-01
1.000000000000000000e+00,4.000000000000000000e+00,-1.500000000000000000e+01,-4.000000000000000000e+00,0.000000000000000000e+00,-4.000000000000000000e+00,-1.100000000000000000e+01,-3.000000000000000000e+00,2.905883789062500000e-01,2.495117187500000000e-01,-9.162597656250000000e-01,1.171875000000000000e-01
-3.000000000000000000e+00,-2.000000000000000000e+00,-3.000000000000000000e+00,1.000000000000000000e+01,0.000000000000000000e+00,3.000000000000000000e+00,5.000000000000000000e+00,1.000000000000000000e+00,2.905883789062500000e-01,2.495117187500000000e-01,-9.162597656250000000e-01,1.171875000000000000e-01
-3.000000000000000000e+00,-6.000000000000000000e+00,-5.900000000000000000e+01,-2.100000000000000000e+01,-6.000000000000000000e+00,-4.000000000000000000e+00,-5.000000000000000000e+00,-2.000000000000000000e+00,2.904052734375000000e-01,2.496948242187500000e-01,-9.162597656250000000e-01,1.174316406250000000e-01
-1.000000000000000000e+00,2.000000000000000000e+00,8.000000000000000000e+00,9.000000000000000000e+00,8.000000000000000000e+00,5.000000000000000000e+00,2.000000000000000000e+00,1.000000000000000000e+00,2.904052734375000000e-01,2.496948242187500000e-01,-9.162597656250000000e-01,1.174316406250000000e-01
3.000000000000000000e+00,-4.000000000000000000e+00,-1.300000000000000000e+01,-1.300000000000000000e+01,-6.000000000000000000e+00,2.000000000000000000e+00,1.000000000000000000e+00,2.000000000000000000e+00,2.904052734375000000e-01,2.496948242187500000e-01,-9.162597656250000000e-01,1.174316406250000000e-01
-4.000000000000000000e+00,9.000000000000000000e+00,-7.000000000000000000e+00,-2.500000000000000000e+01,5.000000000000000000e+00,-2.000000000000000000e+00,-5.000000000000000000e+00,1.000000000000000000e+00,2.904052734375000000e-01,2.496948242187500000e-01,-9.162597656250000000e-01,1.174316406250000000e-01
-3.000000000000000000e+00,-1.300000000000000000e+01,-4.600000000000000000e+01,-2.500000000000000000e+01,-2.000000000000000000e+00,0.000000000000000000e+00,4.000000000000000000e+00,1.000000000000000000e+00,2.901000976562500000e-01,2.498168945312500000e-01,-9.163208007812500000e-01,1.176147460937500000e-01
-6.000000000000000000e+00,1.000000000000000000e+00,2.000000000000000000e+01,2.100000000000000000e+01,-1.000000000000000000e+00,-3.000000000000000000e+00,-1.000000000000000000e+00,-3.000000000000000000e+00,2.901000976562500000e-01,2.498168945312500000e-01,-9.163208007812500000e-01,1.176147460937500000e-01
-3.000000000000000000e+00,-3.000000000000000000e+00,-7.000000000000000000e+00,-6.000000000000000000e+00,-2.000000000000000000e+00,-2.000000000000000000e+00,-2.000000000000000000e+00,-2.000000000000000000e+00,2.901000976562500000e-01,2.498168945312500000e-01,-9.163208007812500000e-01,1.176147460937500000e-01
1.000000000000000000e+00,3.000000000000000000e+00,1.400000000000000000e+01,1.400000000000000000e+01,0.000000000000000000e+00,-3.000000000000000000e+00,-5.000000000000000000e+00,-3.000000000000000000e+00,2.901000976562500000e-01,2.498168945312500000e-01,-9.163208007812500000e-01,1.176147460937500000e-01
-1.000000000000000000e+00,-1.000000000000000000e+00,3.600000000000000000e+01,-1.800000000000000000e+01,-3.000000000000000000e+00,-4.000000000000000000e+00,-3.000000000000000000e+00,2.000000000000000000e+00,2.896118164062500000e-01,2.503051757812500000e-01,-9.163208007812500000e-01,1.177978515625000000e-01
-2.000000000000000000e+00,-1.100000000000000000e+01,-4.500000000000000000e+01,1.500000000000000000e+01,1.000000000000000000e+00,6.000000000000000000e+00,1.100000000000000000e+01,0.000000000000000000e+00,2.896118164062500000e-01,2.503051757812500000e-01,-9.163208007812500000e-01,1.177978515625000000e-01
0.000000000000000000e+00,1.000000000000000000e+01,2.800000000000000000e+01,-2.600000000000000000e+01,-1.000000000000000000e+01,-1.100000000000000000e+01,2.000000000000000000e+00,-3.000000000000000000e+00,2.896118164062500000e-01,2.503051757812500000e-01,-9.163208007812500000e-01,1.177978515625000000e-01
-4.000000000000000000e+00,-3.000000000000000000e+00,1.000000000000000000e+00,1.200000000000000000e+01,2.000000000000000000e+00,0.000000000000000000e+00,-1.000000000000000000e+01,-2.000000000000000000e+00,2.896118164062500000e-01,2.503051757812500000e-01,-9.163208007812500000e-01,1.177978515625000000e-01
-1.000000000000000000e+00,-4.000000000000000000e+00,2.700000000000000000e+01,-7.000000000000000000e+00,1.000000000000000000e+00,5.000000000000000000e+00,1.300000000000000000e+01,0.000000000000000000e+00,2.893066406250000000e-01,2.503051757812500000e-01,-9.163818359375000000e-01,1.177978515625000000e-01
1.000000000000000000e+00,-5.000000000000000000e+00,-5.100000000000000000e+01,2.000000000000000000e+00,-3.000000000000000000e+00,-5.000000000000000000e+00,-1.000000000000000000e+00,1.000000000000000000e+00,2.893066406250000000e-01,2.503051757812500000e-01,-9.163818359375000000e-01,1.177978515625000000e-01
0.000000000000000000e+00,0.000000000000000000e+00,7.000000000000000000e+00,1.300000000000000000e+01,6.000000000000000000e+00,4.000000000000000000e+00,-2.000000000000000000e+00,2.000000000000000000e+00,2.893066406250000000e-01,2.503051757812500000e-01,-9.163818359375000000e-01,1.177978515625000000e-01
0.000000000000000000e+00,-1.000000000000000000e+00,-5.000000000000000000e+00,3.000000000000000000e+00,-3.000000000000000000e+00,1.000000000000000000e+00,3.000000000000000000e+00,-1.000000000000000000e+00,2.893066406250000000e-01,2.503051757812500000e-01,-9.163818359375000000e-01,1.177978515625000000e-01
-1.000000000000000000e+00,6.000000000000000000e+00,1.300000000000000000e+01,8.000000000000000000e+00,4.000000000000000000e+00,0.000000000000000000e+00,-5.000000000000000000e+00,-4.000000000000000000e+00,2.890014648437500000e-01,2.502441406250000000e-01,-9.165039062500000000e-01,1.178588867187500000e-01
0.000000000000000000e+00,-1.000000000000000000e+00,3.100000000000000000e+01,-7.000000000000000000e+00,-4.000000000000000000e+00,-5.000000000000000000e+00,-7.000000000000000000e+00,-1.000000000000000000e+00,2.890014648437500000e-01,2.502441406250000000e-01,-9.165039062500000000e-01,1.178588867187500000e-01
2.000000000000000000e+00,-1.000000000000000000e+00,-3.100000000000000000e+01,-2.000000000000000000e+00,-1.000000000000000000e+00,0.000000000000000000e+00,-4.000000000000000000e+00,-1.000000000000000000e+00,2.890014648437500000e-01,2.502441406250000000e-01,-9.165039062500000000e-01,1.178588867187500000e-01
-5.000000000000000000e+00,-8.000000000000000000e+00,1.500000000000000000e+01,-4.000000000000000000e+00,-1.200000000000000000e+01,-7.000000000000000000e+00,-8.000000000000000000e+00,-2.000000000000000000e+00,2.890014648437500000e-01,2.502441406250000000e-01,-9.165039062500000000e-01,1.178588867187500000e-01
-1.000000000000000000e+00,0.000000000000000000e+00,1.400000000000000000e+01,1.700000000000000000e+01,1.000000000000000000e+00,3.000000000000000000e+00,4.000000000000000000e+00,-2.000000000000000000e+00,2.887573242187500000e-01,2.503051757812500000e-01,-9.165649414062500000e-01,1.179809570312500000e-01
2.000000000000000000e+00,4.000000000000000000e+00,4.000000000000000000e+00,-1.200000000000000000e+01,-2.000000000000000000e+00,3.000000000000000000e+00,9.000000000000000000e+00,2.000000000000000000e+00,2.887573242187500000e-01,2.503051757812500000e-01,-9.165649414062500000e-01,1.179809570312500000e-01
3.000000000000000000e+00,4.000000000000000000e+00,-1.800000000000000000e+01,2.000000000000000000e+01,6.000000000000000000e+00,1.000000000000000000e+00,-3.000000000000000000e+00,1.000000000000000000e+00,2.887573242187500000e-01,2.503051757812500000e-01,-9.165649414062500000e-01,1.179809570312500000e-01
-1.000000000000000000e+00,-4.000000000000000000e+00,-4.100000000000000000e+01,-1.100000000000000000e+01,-5.000000000000000000e+00,-1.000000000000000000e+00,3.000000000000000000e+00,-1.000000000000000000e+00,2.887573242187500000e-01,2.503051757812500000e-01,-9.165649414062500000e-01,1.179809570312500000e-01
-4.000000000000000000e+00,-8.000000000000000000e+00,-4.100000000000000000e+01,3.000000000000000000e+00,-1.000000000000000000e+00,0.000000000000000000e+00,-3.000000000000000000e+00,-2.000000000000000000e+00,2.886352539062500000e-01,2.505493164062500000e-01,-9.165039062500000000e-01,1.179809570312500000e-01
-3.000000000000000000e+00,-7.000000000000000000e+00,4.300000000000000000e+01,-1.300000000000000000e+01,-8.000000000000000000e+00,-2.000000000000000000e+00,2.000000000000000000e+00,-4.000000000000000000e+00,2.886352539062500000e-01,2.505493164062500000e-01,-9.165039062500000000e-01,1.179809570312500000e-01
-7.000000000000000000e+00,-2.000000000000000000e+00,-1.000000000000000000e+00,-4.000000000000000000e+00,-1.000000000000000000e+00,-4.000000000000000000e+00,-1.100000000000000000e+01,-5.000000000000000000e+00,2.886352539062500000e-01,2.505493164062500000e-01,-9.165039062500000000e-01,1.179809570312500000e-01
3.000000000000000000e+00,8.000000000000000000e+00,1.800000000000000000e+01,6.000000000000000000e+00,4.000000000000000000e+00,6.000000000000000000e+00,7.000000000000000000e+00,1.000000000000000000e+00,2.886352539062500000e-01,2.505493164062500000e-01,-9.165039062500000000e-01,1.179809570312500000e-01
-5.000000000000000000e+00,-4.000000000000000000e+00,-8.000000000000000000e+00,-4.000000000000000000e+00,-3.000000000000000000e+00,-1.000000000000000000e+00,1.000000000000000000e+00,-1.000000000000000000e+00,2.886352539062500000e-01,2.505493164062500000e-01,-9.165039062500000000e-01,1.179809570312500000e-01
0.000000000000000000e+00,4.000000000000000000e+00,-2.000000000000000000e+01,-1.000000000000000000e+00,-1.000000000000000000e+00,-4.000000000000000000e+00,-8.000000000000000000e+00,0.000000000000000000e+00,2.886352539062500000e-01,2.505493164062500000e-01,-9.165039062500000000e-01,1.179809570312500000e-01
-1.000000000000000000e+00,-2.000000000000000000e+00,3.300000000000000000e+01,8.000000000000000000e+00,-2.000000000000000000e+00,-3.000000000000000000e+00,-1.000000000000000000e+00,0.000000000000000000e+00,2.886352539062500000e-01,2.505493164062500000e-01,-9.165039062500000000e-01,1.179809570312500000e-01
-3.000000000000000000e+00,-2.000000000000000000e+00,-2.600000000000000000e+01,0.000000000000000000e+00,-1.000000000000000000e+00,2.000000000000000000e+00,5.000000000000000000e+00,-2.000000000000000000e+00,2.886352539062500000e-01,2.505493164062500000e-01,-9.165039062500000000e-01,1.179809570312500000e-01
5.000000000000000000e+00,2.000000000000000000e+00,7.000000000000000000e+00,3.000000000000000000e+00,-1.000000000000000000e+00,-2.000000000000000000e+00,-5.000000000000000000e+00,-1.000000000000000000e+00,2.883911132812500000e-01,2.507934570312500000e-01,-9.165039062500000000e-01,1.179809570312500000e-01
-9.000000000000000000e+00,0.000000000000000000e+00,-1.600000000000000000e+01,-2.200000000000000000e+01,-1.000000000000000000e+00,0.000000000000000000e+00,6.000000000000000000e+00,0.000000000000000000e+00,2.883911132812500000e-01,2.507934570312500000e-01,-9.165039062500000000e-01,1.179809570312500000e-01
-5.000000000000000000e+00,-4.000000000000000000e+00,1.600000000000000000e+01,-1.900000000000000000e+01,-6.000000000000000000e+00,-2.000000000000000000e+00,-2.000000000000000000e+00,-3.000000000000000000e+00,2.883911132812500000e-01,2.507934570312500000e-01,-9.165039062500000000e-01,1.179809570312500000e-01
1.000000000000000000e+00,-3.000000000000000000e+00,-1.000000000000000000e+01,-1.000000000000000000e+00,-1.000000000000000000e+00,-8.000000000000000000e+00,-5.000000000000000000e+00,2.000000000000000000e+00,2.883911132812500000e-01,2.507934570312500000e-01,-9.165039062500000000e-01,1.179809570312500000e-01
1.000000000000000000e+00,3.000000000000000000e+00,7.000000000000000000e+00,7.000000000000000000e+00,-7.000000000000000000e+00,1.000000000000000000e+00,1.300000000000000000e+01,-1.000000000000000000e+00,2.881469726562500000e-01,2.512817382812500000e-01,-9.165039062500000000e-01,1.179199218750000000e-01
0.000000000000000000e+00,0.000000000000000000e+00,1.000000000000000000e+01,1.200000000000000000e+01,1.000000000000000000e+01,1.000000000000000000e+00,-1.800000000000000000e+01,-4.000000000000000000e+00,2.881469726562500000e-01,2.512817382812500000e-01,-9.165039062500000000e-01,1.179199218750000000e-01
5.000000000000000000e+00,4.000000000000000000e+00,6.000000000000000000e+00,1.200000000000000000e+01,3.000000000000000000e+00,1.000000000000000000e+01,2.200000000000000000e+01,4.000000000000000000e+00,2.881469726562500000e-01,2.512817382812500000e-01,-9.165039062500000000e-01,1.179199218750000000e-01
-5.000000000000000000e+00,-1.000000000000000000e+01,1.000000000000000000e+00,-1.000000000000000000e+01,0.000000000000000000e+00,-4.000000000000000000e+00,-3.000000000000000000e+00,-6.000000000000000000e+00,2.881469726562500000e-01,2.512817382812500000e-01,-9.165039062500000000e-01,1.179199218750000000e-01
3.000000000000000000e+00,4.000000000000000000e+00,1.900000000000000000e+01,1.000000000000000000e+01,5.000000000000000000e+00,1.000000000000000000e+00,-3.000000000000000000e+00,2.000000000000000000e+00,2.881469726562500000e-01,2.512817382812500000e-01,-9.165039062500000000e-01,1.179199218750000000e-01
1.000000000000000000e+00,-1.000000000000000000e+00,1.300000000000000000e+01,3.000000000000000000e+00,-1.000000000000000000e+00,0.000000000000000000e+00,-5.000000000000000000e+00,-1.000000000000000000e+00,2.881469726562500000e-01,2.512817382812500000e-01,-9.165039062500000000e-01,1.179199218750000000e-01
-2.000000000000000000e+00,-1.000000000000000000e+01,-3.000000000000000000e+01,2.000000000000000000e+00,-6.000000000000000000e+00,-2.000000000000000000e+00,0.000000000000000000e+00,2.000000000000000000e+00,2.881469726562500000e-01,2.512817382812500000e-01,-9.165039062500000000e-01,1.179199218750000000e-01
2.000000000000000000e+00,6.000000000000000000e+00,1.400000000000000000e+01,4.000000000000000000e+00,-4.000000000000000000e+00,-1.000000000000000000e+00,-3.000000000000000000e+00,-3.000000000000000000e+00,2.881469726562500000e-01,2.512817382812500000e-01,-9.165039062500000000e-01,1.179199218750000000e-01
-4.000000000000000000e+00,4.000000000000000000e+00,1.800000000000000000e+01,-1.200000000000000000e+01,-2.000000000000000000e+00,-2.000000000000000000e+00,-2.000000000000000000e+00,-1.000000000000000000e+00,2.879028320312500000e-01,2.517089843750000000e-01,-9.164428710937500000e-01,1.180419921875000000e-01
1.000000000000000000e+00,-2.000000000000000000e+00,2.200000000000000000e+01,8.000000000000000000e+00,-2.000000000000000000e+00,-3.000000000000000000e+00,-2.000000000000000000e+00,-2.000000000000000000e+00,2.879028320312500000e-01,2.517089843750000000e-01,-9.164428710937500000e-01,1.180419921875000000e-01
0.000000000000000000e+00,-1.000000000000000000e+00,-6.000000000000000000e+00,9.000000000000000000e+00,-4.000000000000000000e+00,-3.000000000000000000e+00,-3.000000000000000000e+00,0.000000000000000000e+00,2.879028320312500000e-01,2.517089843750000000e-01,-9.164428710937500000e-01,1.180419921875000000e-01
-1.000000000000000000e+00,-1.000000000000000000e+00,0.000000000000000000e+00,-1.000000000000000000e+00,2.000000000000000000e+00,6.000000000000000000e+00,1.000000000000000000e+01,2.000000000000000000e+00,2.879028320312500000e-01,2.517089843750000000e-01,-9.164428710937500000e-01,1.180419921875000000e-01
-3.000000000000000000e+00,-3.000000000000000000e+00,-7.000000000000000000e+00,-3.000000000000000000e+00,-2.000000000000000000e+00,-6.000000000000000000e+00,-4.000000000000000000e+00,1.000000000000000000e+00,2.878417968750000000e-01,2.524414062500000000e-01,-9.162597656250000000e-01,1.182250976562500000e-01
1.000000000000000000e+00,3.000000000000000000e+00,-2.100000000000000000e+01,-2.000000000000000000e+00,3.000000000000000000e+00,4.000000000000000000e+00,-5.000000000000000000e+00,-1.000000000000000000e+00,2.878417968750000000e-01,2.524414062500000000e-01,-9.162597656250000000e-01,1.182250976562500000e-01
0.000000000000000000e+00,3.000000000000000000e+00,2.300000000000000000e+01,7.000000000000000000e+00,2.000000000000000000e+00,2.000000000000000000e+00,4.000000000000000000e+00,0.000000000000000000e+00,2.878417968750000000e-01,2.524414062500000000e-01,-9.162597656250000000e-01,1.182250976562500000e-01
0.000000000000000000e+00,0.000000000000000000e+00,6.000000000000000000e+00,-5.000000000000000000e+00,-3.000000000000000000e+00,-1.000000000000000000e+00,-5.000000000000000000e+00,0.000000000000000000e+00,2.878417968750000000e-01,2.524414062500000000e-01,-9.162597656250000000e-01,1.182250976562500000e-01
-3.000000000000000000e+00,-3.000000000000000000e+00,1.000000000000000000e+01,1.500000000000000000e+01,-1.000000000000000000e+00,-6.000000000000000000e+00,-4.000000000000000000e+00,-1.000000000000000000e+00,2.875976562500000000e-01,2.528076171875000000e-01,-9.161376953125000000e-01,1.184692382812500000e-01
4.000000000000000000e+00,-4.000000000000000000e+00,-1.900000000000000000e+01,-2.400000000000000000e+01,-1.000000000000000000e+00,-2.000000000000000000e+00,5.000000000000000000e+00,1.000000000000000000e+00,2.875976562500000000e-01,2.528076171875000000e-01,-9.161376953125000000e-01,1.184692382812500000e-01
-4.000000000000000000e+00,1.000000000000000000e+00,1.100000000000000000e+01,1.000000000000000000e+01,4.000000000000000000e+00,-3.000000000000000000e+00,-2.000000000000000000e+00,-5.000000000000000000e+00,2.875976562500000000e-01,2.528076171875000000e-01,-9.161376953125000000e-01,1.184692382812500000e-01
-1.000000000000000000e+00,0.000000000000000000e+00,1.100000000000000000e+01,-1.000000000000000000e+00,0.000000000000000000e+00,1.000000000000000000e+00,-8.000000000000000000e+00,-1.000000000000000000e+00,2.875976562500000000e-01,2.528076171875000000e-01,-9.161376953125000000e-01,1.184692382812500000e-01
-2.000000000000000000e+00,-3.000000000000000000e+00,4.000000000000000000e+00,9.000000000000000000e+00,4.000000000000000000e+00,8.000000000000000000e+00,4.000000000000000000e+00,2.000000000000000000e+00,2.873535156250000000e-01,2.532348632812500000e-01,-9.161376953125000000e-01,1.184692382812500000e-01
-1.000000000000000000e+00,-1.000000000000000000e+00,-1.300000000000000000e+01,-3.200000000000000000e+01,-3.000000000000000000e+00,4.000000000000000000e+00,4.000000000000000000e+00,2.000000000000000000e+00,2.873535156250000000e-01,2.532348632812500000e-01,-9.161376953125000000e-01,1.184692382812500000e-01
0.000000000000000000e+00,2.000000000000000000e+00,-1.300000000000000000e+01,-1.000000000000000000e+00,-2.000000000000000000e+00,-2.000000000000000000e+00,-4.000000000000000000e+00,0.000000000000000000e+00,2.873535156250000000e-01,2.532348632812500000e-01,-9.161376953125000000e-01,1.184692382812500000e-01
0.000000000000000000e+00,1.000000000000000000e+00,-1.700000000000000000e+01,-2.800000000000000000e+01,-3.000000000000000000e+00,-4.000000000000000000e+00,1.000000000000000000e+00,-1.000000000000000000e+00,2.873535156250000000e-01,2.532348632812500000e-01,-9.161376953125000000e-01,1.184692382812500000e-01
0.000000000000000000e+00,-2.000000000000000000e+00,-3.100000000000000000e+01,-1.200000000000000000e+01,-6.000000000000000000e+00,-4.000000000000000000e+00,-5.000000000000000000e+00,-2.000000000000000000e+00,2.871093750000000000e-01,2.534790039062500000e-01,-9.161376953125000000e-01,1.185913085937500000e-01
1.000000000000000000e+00,5.000000000000000000e+00,5.000000000000000000e+00,2.300000000000000000e+01,4.000000000000000000e+00,-3.000000000000000000e+00,-4.000000000000000000e+00,1.000000000000000000e+00,2.871093750000000000e-01,2.534790039062500000e-01,-9.161376953125000000e-01,1.185913085937500000e-01
-2.000000000000000000e+00,-3.000000000000000000e+00,1.200000000000000000e+01,-1.200000000000000000e+01,3.000000000000000000e+00,2.000000000000000000e+00,1.000000000000000000e+00,0.000000000000000000e+00,2.871093750000000000e-01,2.534790039062500000e-01,-9.161376953125000000e-01,1.185913085937500000e-01
1.000000000000000000e+00,1.000000000000000000e+00,1.500000000000000000e+01,1.100000000000000000e+01,3.000000000000000000e+00,3.000000000000000000e+00,-1.000000000000000000e+00,0.000000000000000000e+00,2.871093750000000000e-01,2.534790039062500000e-01,-9.161376953125000000e-01,1.185913085937500000e-01
1.000000000000000000e+00,0.000000000000000000e+00,-8.000000000000000000e+00,-1.500000000000000000e+01,-4.000000000000000000e+00,-5.000000000000000000e+00,0.000000000000000000e+00,-2.000000000000000000e+00,2.870483398437500000e-01,2.536010742187500000e-01,-9.160766601562500000e-01,1.188964843750000000e-01
0.000000000000000000e+00,3.000000000000000000e+00,-1.900000000000000000e+01,-3.000000000000000000e+00,-4.000000000000000000e+00,-6.000000000000000000e+00,-5.000000000000000000e+00,0.000000000000000000e+00,2.870483398437500000e-01,2.536010742187500000e-01,-9.160766601562500000e-01,1.188964843750000000e-01
-6.000000000000000000e+00,-8.000000000000000000e+00,1.300000000000000000e+01,6.000000000000000000e+00,-1.100000000000000000e+01,-5.000000000000000000e+00,-8.000000000000000000e+00,-4.000000000000000000e+00,2.870483398437500000e-01,2.536010742187500000e-01,-9.160766601562500000e-01,1.188964843750000000e-01
-2.000000000000000000e+00,-3.000000000000000000e+00,-2.500000000000000000e+01,1.500000000000000000e+01,6.000000000000000000e+00,-2.000000000000000000e+00,-5.000000000000000000e+00,-3.000000000000000000e+00,2.870483398437500000e-01,2.536010742187500000e-01,-9.160766601562500000e-01,1.188964843750000000e-01
-3.000000000000000000e+00,-5.000000000000000000e+00,-6.000000000000000000e+00,-7.000000000000000000e+00,1.000000000000000000e+00,3.000000000000000000e+00,-6.000000000000000000e+00,-2.000000000000000000e+00,2.868041992187500000e-01,2.539062500000000000e-01,-9.160156250000000000e-01,1.192626953125000000e-01
3.000000000000000000e+00,4.000000000000000000e+00,-2.000000000000000000e+00,3.000000000000000000e+00,-2.000000000000000000e+00,0.000000000000000000e+00,8.000000000000000000e+00,2.000000000000000000e+00,2.868041992187500000e-01,2.539062500000000000e-01,-9.160156250000000000e-01,1.192626953125000000e-01
4.000000000000000000e+00,0.000000000000000000e+00,1.300000000000000000e+01,1.200000000000000000e+01,1.000000000000000000e+00,0.000000000000000000e+00,3.000000000000000000e+00,-1.000000000000000000e+00,2.868041992187500000e-01,2.539062500000000000e-01,-9.160156250000000000e-01,1.192626953125000000e-01
-1.000000000000000000e+00,-2.000000000000000000e+00,1.100000000000000000e+01,-1.100000000000000000e+01,-1.000000000000000000e+00,0.000000000000000000e+00,2.000000000000000000e+00,1.000000000000000000e+00,2.868041992187500000e-01,2.539062500000000000e-01,-9.160156250000000000e-01,1.192626953125000000e-01
3.000000000000000000e+00,0.000000000000000000e+00,7.000000000000000000e+00,2.000000000000000000e+00,6.000000000000000000e+00,5.000000000000000000e+00,7.000000000000000000e+00,2.000000000000000000e+00,2.867431640625000000e-01,2.543945312500000000e-01,-9.158935546875000000e-01,1.195068359375000000e-01
0.000000000000000000e+00,1.000000000000000000e+00,2.000000000000000000e+00,1.700000000000000000e+01,-1.000000000000000000e+00,-4.000000000000000000e+00,-1.100000000000000000e+01,-6.000000000000000000e+00,2.867431640625000000e-01,2.543945312500000000e-01,-9.158935546875000000e-01,1.195068359375000000e-01
-4.000000000000000000e+00,-4.000000000000000000e+00,-3.800000000000000000e+01,-2.500000000000000000e+01,-1.000000000000000000e+00,3.000000000000000000e+00,0.000000000000000000e+00,0.000000000000000000e+00,2.867431640625000000e-01,2.543945312500000000e-01,-9.158935546875000000e-01,1.195068359375000000e-01
-3.000000000000000000e+00,-3.000000000000000000e+00,1.100000000000000000e+01,1.200000000000000000e+01,-4.000000000000000000e+00,-1.000000000000000000e+00,-1.000000000000000000e+01,-3.000000000000000000e+00,2.867431640625000000e-01,2.543945312500000000e-01,-9.158935546875000000e-01,1.195068359375000000e-01
-1.000000000000000000e+00,-2.000000000000000000e+00,-1.700000000000000000e+01,-1.500000000000000000e+01,-4.000000000000000000e+00,-4.000000000000000000e+00,-2.000000000000000000e+00,1.000000000000000000e+00,2.866821289062500000e-01,2.543945312500000000e-01,-9.158935546875000000e-01,1.195068359375000000e-01
-2.000000000000000000e+00,-1.000000000000000000e+00,1.600000000000000000e+01,1.300000000000000000e+01,-2.000000000000000000e+00,-1.000000000000000000e+00,2.000000000000000000e+00,0.000000000000000000e+00,2.866821289062500000e-01,2.543945312500000000e-01,-9.158935546875000000e-01,1.195068359375000000e-01
1.000000000000000000e+00,4.000000000000000000e+00,2.400000000000000000e+01,1.700000000000000000e+01,2.000000000000000000e+00,1.000000000000000000e+00,1.200000000000000000e+01,-2.000000000000000000e+00,2.868041992187500000e-01,2.542114257812500000e-01,-9.158935546875000000e-01,1.194458007812500000e-01
-1.000000000000000000e+00,2.000000000000000000e+00,2.400000000000000000e+01,1.100000000000000000e+01,0.000000000000000000e+00,-4.000000000000000000e+00,-2.000000000000000000e+00,-3.000000000000000000e+00,2.868041992187500000e-01,2.542114257812500000e-01,-9.158935546875000000e-01,1.194458007812500000e-01
-3.000000000000000000e+00,-1.000000000000000000e+01,-7.000000000000000000e+00,-3.000000000000000000e+00,0.000000000000000000e+00,3.000000000000000000e+00,-6.000000000000000000e+00,-2.000000000000000000e+00,2.868041992187500000e-01,2.542114257812500000e-01,-9.158935546875000000e-01,1.194458007812500000e-01
-3.000000000000000000e+00,3.000000000000000000e+00,1.300000000000000000e+01,2.000000000000000000e+00,-9.000000000000000000e+00,0.000000000000000000e+00,1.000000000000000000e+00,-3.000000000000000000e+00,2.868041992187500000e-01,2.542114257812500000e-01,-9.158935546875000000e-01,1.194458007812500000e-01
-1.000000000000000000e+00,-4.000000000000000000e+00,-2.000000000000000000e+00,-7.000000000000000000e+00,7.000000000000000000e+00,-1.000000000000000000e+00,-1.000000000000000000e+01,-1.000000000000000000e+00,2.868041992187500000e-01,2.542724609375000000e-01,-9.158325195312500000e-01,1.196899414062500000e-01
2.000000000000000000e+00,0.000000000000000000e+00,-8.000000000000000000e+00,-1.500000000000000000e+01,-7.000000000000000000e+00,-4.000000000000000000e+00,-2.000000000000000000e+00,0.000000000000000000e+00,2.868041992187500000e-01,2.542724609375000000e-01,-9.158325195312500000e-01,1.196899414062500000e-01
2.000000000000000000e+00,6.000000000000000000e+00,2.800000000000000000e+01,1.500000000000000000e+01,-1.000000000000000000e+00,-1.000000000000000000e+00,2.000000000000000000e+00,-2.000000000000000000e+00,2.868041992187500000e-01,2.542724609375000000e-01,-9.158325195312500000e-01,1.196899414062500000e-01
-5.000000000000000000e+00,-4.000000000000000000e+00,-4.000000000000000000e+00,-9.000000000000000000e+00,0.000000000000000000e+00,-4.000000000000000000e+00,-4.000000000000000000e+00,-4.000000000000000000e+00,2.868041992187500000e-01,2.542724609375000000e-01,-9.158325195312500000e-01,1.196899414062500000e-01
-5.000000000000000000e+00,-8.000000000000000000e+00,-2.500000000000000000e+01,1.400000000000000000e+01,-2.000000000000000000e+00,-1.000000000000000000e+00,-2.000000000000000000e+00,-1.000000000000000000e+00,2.866210937500000000e-01,2.545776367187500000e-01,-9.157714843750000000e-01,1.199340820312500000e-01
1.000000000000000000e+00,4.000000000000000000e+00,1.000000000000000000e+00,-9.000000000000000000e+00,1.000000000000000000e+00,2.000000000000000000e+00,4.000000000000000000e+00,1.000000000000000000e+00,2.866210937500000000e-01,2.545776367187500000e-01,-9.157714843750000000e-01,1.199340820312500000e-01
2.000000000000000000e+00,1.000000000000000000e+00,-4.400000000000000000e+01,-7.000000000000000000e+00,0.000000000000000000e+00,6.000000000000000000e+00,-1.000000000000000000e+00,1.000000000000000000e+00,2.866210937500000000e-01,2.545776367187500000e-01,-9.157714843750000000e-01,1.199340820312500000e-01
-4.000000000000000000e+00,-6.000000000000000000e+00,-1.000000000000000000e+00,1.100000000000000000e+01,-1.000000000000000000e+00,-7.000000000000000000e+00,-1.100000000000000000e+01,-3.000000000000000000e+00,2.866210937500000000e-01,2.545776367187500000e-01,-9.157714843750000000e-01,1.199340820312500000e-01
1.000000000000000000e+00,-1.000000000000000000e+00,-4.000000000000000000e+01,-3.600000000000000000e+01,4.000000000000000000e+00,0.000000000000000000e+00,3.000000000000000000e+00,0.000000000000000000e+00,2.864379882812500000e-01,2.550048828125000000e-01,-9.157104492187500000e-01,1.199340820312500000e-01
-1.000000000000000000e+00,-4.000000000000000000e+00,-1.500000000000000000e+01,1.400000000000000000e+01,5.000000000000000000e+00,3.000000000000000000e+00,2.000000000000000000e+00,1.000000000000000000e+00,2.864379882812500000e-01,2.550048828125000000e-01,-9.157104492187500000e-01,1.199340820312500000e-01
-1.000000000000000000e+00,-3.000000000000000000e+00,2.800000000000000000e+01,-5.000000000000000000e+00,-1.200000000000000000e+01,-7.000000000000000000e+00,-7.000000000000000000e+00,-4.000000000000000000e+00,2.864379882812500000e-01,2.550048828125000000e-01,-9.157104492187500000e-01,1.199340820312500000e-01
2.000000000000000000e+00,0.000000000000000000e+00,-2.000000000000000000e+00,4.000000000000000000e+00,1.000000000000000000e+00,2.000000000000000000e+00,1.000000000000000000e+01,4.000000000000000000e+00,2.864379882812500000e-01,2.550048828125000000e-01,-9.157104492187500000e-01,1.199340820312500000e-01
-3.000000000000000000e+00,0.000000000000000000e+00,-4.300000000000000000e+01,-1.500000000000000000e+01,-1.000000000000000000e+01,-9.000000000000000000e+00,-2.300000000000000000e+01,-3.000000000000000000e+00,2.864379882812500000e-01,2.550048828125000000e-01,-9.157104492187500000e-01,1.199340820312500000e-01
-2.000000000000000000e+00,-5.000000000000000000e+00,3.400000000000000000e+01,1.000000000000000000e+00,-5.000000000000000000e+00,-4.000000000000000000e+00,-5.000000000000000000e+00,-2.000000000000000000e+00,2.864379882812500000e-01,2.550048828125000000e-01,-9.157104492187500000e-01,1.199340820312500000e-01
1.000000000000000000e+00,3.000000000000000000e+00,-1.400000000000000000e+01,-1.100000000000000000e+01,1.100000000000000000e+01,4.000000000000000000e+00,4.000000000000000000e+00,2.000000000000000000e+00,2.864379882812500000e-01,2.550048828125000000e-01,-9.157104492187500000e-01,1.199340820312500000e-01
2.000000000000000000e+00,1.000000000000000000e+00,-2.800000000000000000e+01,-6.000000000000000000e+00,5.000000000000000000e+00,7.000000000000000000e+00,4.000000000000000000e+00,0.000000000000000000e+00,2.864379882812500000e-01,2.550048828125000000e-01,-9.157104492187500000e-01,1.199340820312500000e-01
-1.000000000000000000e+00,0.000000000000000000e+00,3.800000000000000000e+01,-4.000000000000000000e+00,-2.000000000000000000e+00,2.000000000000000000e+00,9.000000000000000000e+00,3.000000000000000000e+00,2.863769531250000000e-01,2.546997070312500000e-01,-9.158325195312500000e-01,1.200561523437500000e-01
-3.000000000000000000e+00,-3.000000000000000000e+00,-1.000000000000000000e+01,1.200000000000000000e+01,-1.000000000000000000e+00,0.000000000000000000e+00,1.000000000000000000e+01,2.000000000000000000e+00,2.863769531250000000e-01,2.546997070312500000e-01,-9.158325195312500000e-01,1.200561523437500000e-01
-1.000000000000000000e+00,5.000000000000000000e+00,-1.400000000000000000e+01,-1.200000000000000000e+01,-6.000000000000000000e+00,-8.000000000000000000e+00,-2.400000000000000000e+01,-6.000000000000000000e+00,2.863769531250000000e-01,2.546997070312500000e-01,-9.158325195312500000e-01,1.200561523437500000e-01
0.000000000000000000e+00,-2.000000000000000000e+00,3.200000000000000000e+01,6.000000000000000000e+00,-4.000000000000000000e+00,2.000000000000000000e+00,-1.000000000000000000e+00,-4.000000000000000000e+00,2.863769531250000000e-01,2.546997070312500000e-01,-9.158325195312500000e-01,1.200561523437500000e-01
-2.000000000000000000e+00,0.000000000000000000e+00,2.800000000000000000e+01,1.200000000000000000e+01,3.000000000000000000e+00,6.000000000000000000e+00,6.000000000000000000e+00,2.000000000000000000e+00,2.863769531250000000e-01,2.550048828125000000e-01,-9.157104492187500000e-01,1.204223632812500000e-01
1.000000000000000000e+00,0.000000000000000000e+00,-3.400000000000000000e+01,-1.100000000000000000e+01,-5.000000000000000000e+00,-1.000000000000000000e+01,-5.000000000000000000e+00,-2.000000000000000000e+00,2.863769531250000000e-01,2.550048828125000000e-01,-9.157104492187500000e-01,1.204223632812500000e-01
-5.000000000000000000e+00,-8.000000000000000000e+00,1.500000000000000000e+01,1.100000000000000000e+01,-3.000000000000000000e+00,-1.000000000000000000e+00,5.000000000000000000e+00,-3.000000000000000000e+00,2.863769531250000000e-01,2.550048828125000000e-01,-9.157104492187500000e-01,1.204223632812500000e-01
-2.000000000000000000e+00,-1.400000000000000000e+01,-2.300000000000000000e+01,-1.400000000000000000e+01,-6.000000000000000000e+00,-2.000000000000000000e+00,-8.000000000000000000e+00,-1.000000000000000000e+00,2.863769531250000000e-01,2.550048828125000000e-01,-9.157104492187500000e-01,1.204223632812500000e-01
3.000000000000000000e+00,8.000000000000000000e+00,1.000000000000000000e+00,-5.000000000000000000e+00,1.000000000000000000e+01,1.000000000000000000e+00,1.100000000000000000e+01,1.000000000000000000e+00,2.862548828125000000e-01,2.552490234375000000e-01,-9.155883789062500000e-01,1.206665039062500000e-01
-2.000000000000000000e+00,-5.000000000000000000e+00,4.000000000000000000e+00,-6.000000000000000000e+00,-5.000000000000000000e+00,-3.000000000000000000e+00,-4.000000000000000000e+00,2.000000000000000000e+00,2.862548828125000000e-01,2.552490234375000000e-01,-9.155883789062500000e-01,1.206665039062500000e-01
0.000000000000000000e+00,1.000000000000000000e+00,-1.000000000000000000e+00,1.300000000000000000e+01,7.000000000000000000e+00,1.000000000000000000e+00,-3.000000000000000000e+00,0.000000000000000000e+00,2.862548828125000000e-01,2.552490234375000000e-01,-9.155883789062500000e-01,1.206665039062500000e-01
0.000000000000000000e+00,0.000000000000000000e+00,-2.900000000000000000e+01,-2.200000000000000000e+01,-5.000000000000000000e+00,0.000000000000000000e+00,2.000000000000000000e+00,0.000000000000000000e+00,2.862548828125000000e-01,2.552490234375000000e-01,-9.155883789062500000e-01,1.206665039062500000e-01
-3.000000000000000000e+00,-7.000000000000000000e+00,2.000000000000000000e+01,1.900000000000000000e+01,-9.000000000000000000e+00,-1.000000000000000000e+00,-2.000000000000000000e+00,-2.000000000000000000e+00,2.863769531250000000e-01,2.554931640625000000e-01,-9.155273437500000000e-01,1.206665039062500000e-01
-2.000000000000000000e+00,-3.000000000000000000e+00,-4.400000000000000000e+01,-1.300000000000000000e+01,-4.000000000000000000e+00,-2.000000000000000000e+00,-3.000000000000000000e+00,-1.000000000000000000e+00,2.863769531250000000e-01,2.554931640625000000e-01,-9.155273437500000000e-01,1.206665039062500000e-01
-1.000000000000000000e+00,-3.000000000000000000e+00,-2.400000000000000000e+01,-2.000000000000000000e+01,2.000000000000000000e+00,2.000000000000000000e+00,4.000000000000000000e+00,-1.000000000000000000e+00,2.863769531250000000e-01,2.554931640625000000e-01,-9.155273437500000000e-01,1.206665039062500000e-01
-2.000000000000000000e+00,-1.000000000000000000e+00,-4.500000000000000000e+01,-6.000000000000000000e+00,-2.000000000000000000e+00,-4.000000000000000000e+00,-8.000000000000000000e+00,0.000000000000000000e+00,2.863769531250000000e-01,2.554931640625000000e-01,-9.155273437500000000e-01,1.206665039062500000e-01
1.000000000000000000e+00,2.000000000000000000e+00,1.000000000000000000e+00,-6.000000000000000000e+00,1.000000000000000000e+00,-1.000000000000000000e+00,-4.000000000000000000e+00,-1.000000000000000000e+00,2.864990234375000000e-01,2.552490234375000000e-01,-9.155883789062500000e-01,1.205444335937500000e-01
3.000000000000000000e+00,4.000000000000000000e+00,2.700000000000000000e+01,1.000000000000000000e+01,4.000000000000000000e+00,2.000000000000000000e+00,-3.000000000000000000e+00,-1.000000000000000000e+00,2.864990234375000000e-01,2.552490234375000000e-01,-9.155883789062500000e-01,1.205444335937500000e-01
0.000000000000000000e+00,-6.000000000000000000e+00,-2.500000000000000000e+01,-1.700000000000000000e+01,-9.000000000000000000e+00,-5.000000000000000000e+00,-6.000000000000000000e+00,-3.000000000000000000e+00,2.864990234375000000e-01,2.552490234375000000e-01,-9.155883789062500000e-01,1.205444335937500000e-01
-1.000000000000000000e+00,1.000000000000000000e+00,6.000000000000000000e+00,6.000000000000000000e+00,1.000000000000000000e+00,0.000000000000000000e+00,7.000000000000000000e+00,0.000000000000000000e+00,2.864990234375000000e-01,2.552490234375000000e-01,-9.155883789062500000e-01,1.205444335937500000e-01
-1.000000000000000000e+00,2.000000000000000000e+00,1.200000000000000000e+01,-8.000000000000000000e+00,-4.000000000000000000e+00,-8.000000000000000000e+00,-6.000000000000000000e+00,-1.000000000000000000e+00,2.864990234375000000e-01,2.551879882812500000e-01,-9.155883789062500000e-01,1.205444335937500000e-01
0.000000000000000000e+00,1.000000000000000000e+00,-4.000000000000000000e+00,3.300000000000000000e+01,6.000000000000000000e+00,6.000000000000000000e+00,-1.000000000000000000e+00,-3.000000000000000000e+00,2.864990234375000000e-01,2.551879882812500000e-01,-9.155883789062500000e-01,1.205444335937500000e-01
-1.000000000000000000e+00,2.000000000000000000e+00,7.000000000000000000e+00,0.000000000000000000e+00,-4.000000000000000000e+00,3.000000000000000000e+00,5.000000000000000000e+00,-1.000000000000000000e+00,2.864990234375000000e-01,2.551879882812500000e-01,-9.155883789062500000e-01,1.205444335937500000e-01
-2.000000000000000000e+00,-4.000000000000000000e+00,-6.000000000000000000e+00,-3.000000000000000000e+00,2.000000000000000000e+00,-8.000000000000000000e+00,-4.000000000000000000e+00,0.000000000000000000e+00,2.864990234375000000e-01,2.551879882812500000e-01,-9.155883789062500000e-01,1.205444335937500000e-01
