3.000000000000000000e+00,1.000000000000000000e+00,-4.000000000000000000e+00,-1.000000000000000000e+00,2.000000000000000000e+00,0.000000000000000000e+00,-3.000000000000000000e+00,-2.000000000000000000e+00,3.423461914062500000e-01,1.655883789062500000e-01,-9.240112304687500000e-01,-3.948974609375000000e-02
-9.000000000000000000e+00,-2.000000000000000000e+00,7.000000000000000000e+00,2.000000000000000000e+00,2.000000000000000000e+00,-2.000000000000000000e+00,-3.000000000000000000e+00,-2.000000000000000000e+00,3.423461914062500000e-01,1.655883789062500000e-01,-9.240112304687500000e-01,-3.948974609375000000e-02
6.000000000000000000e+00,-1.100000000000000000e+01,-2.000000000000000000e+00,-1.000000000000000000e+00,-2.000000000000000000e+00,1.000000000000000000e+00,1.000000000000000000e+00,1.000000000000000000e+00,3.427734375000000000e-01,1.652832031250000000e-01,-9.239501953125000000e-01,-3.839111328125000000e-02
-5.000000000000000000e+00,8.000000000000000000e+00,1.000000000000000000e+01,1.200000000000000000e+01,4.000000000000000000e+00,1.000000000000000000e+00,5.000000000000000000e+00,4.000000000000000000e+00,3.427734375000000000e-01,1.652832031250000000e-01,-9.239501953125000000e-01,-3.839111328125000000e-02
2.000000000000000000e+00,3.000000000000000000e+00,2.500000000000000000e+01,4.000000000000000000e+00,-1.000000000000000000e+00,1.000000000000000000e+00,3.000000000000000000e+00,2.000000000000000000e+00,3.427734375000000000e-01,1.652832031250000000e-01,-9.239501953125000000e-01,-3.839111328125000000e-02
1.000000000000000000e+00,-6.000000000000000000e+00,-2.900000000000000000e+01,-1.000000000000000000e+01,-2.000000000000000000e+00,-1.000000000000000000e+00,-3.000000000000000000e+00,-3.000000000000000000e+00,3.427734375000000000e-01,1.652832031250000000e-01,-9.239501953125000000e-01,-3.839111328125000000e-02
2.000000000000000000e+00,7.000000000000000000e+00,-1.000000000000000000e+01,-1.000000000000000000e+00,-1.000000000000000000e+00,1.000000000000000000e+00,3.000000000000000000e+00,-1.000000000000000000e+00,3.433837890625000000e-01,1.647338867187500000e-01,-9.238891601562500000e-01,-3.765869140625000000e-02
-3.000000000000000000e+00,1.000000000000000000e+00,9.000000000000000000e+00,3.000000000000000000e+00,0.000000000000000000e+00,-1.000000000000000000e+00,-3.000000000000000000e+00,-1.000000000000000000e+00,3.433837890625000000e-01,1.647338867187500000e-01,-9.238891601562500000e-01,-3.765869140625000000e-02
8.000000000000000000e+00,7.000000000000000000e+00,-2.000000000000000000e+00,-1.000000000000000000e+00,-3.000000000000000000e+00,0.000000000000000000e+00,1.000000000000000000e+00,-3.000000000000000000e+00,3.433837890625000000e-01,1.647338867187500000e-01,-9.238891601562500000e-01,-3.765869140625000000e-02
-1.200000000000000000e+01,-8.000000000000000000e+00,2.000000000000000000e+00,4.000000000000000000e+00,0.000000000000000000e+00,0.000000000000000000e+00,1.000000000000000000e+00,-1.000000000000000000e+00,3.433837890625000000e-01,1.647338867187500000e-01,-9.238891601562500000e-01,-3.765869140625000000e-02
9.000000000000000000e+00,5.000000000000000000e+00,0.000000000000000000e+00,-2.000000000000000000e+00,2.000000000000000000e+00,-3.000000000000000000e+00,-8.000000000000000000e+00,1.000000000000000000e+00,3.443603515625000000e-01,1.643676757812500000e-01,-9.236450195312500000e-01,-3.692626953125000000e-02
-8.000000000000000000e+00,-1.300000000000000000e+01,-1.200000000000000000e+01,-7.000000000000000000e+00,-4.000000000000000000e+00,1.000000000000000000e+00,1.100000000000000000e+01,-2.000000000000000000e+00,3.443603515625000000e-01,1.643676757812500000e-01,-9.236450195312500000e-01,-3.692626953125000000e-02
0.000000000000000000e+00,-1.000000000000000000e+01,7.000000000000000000e+00,-5.000000000000000000e+00,-4.000000000000000000e+00,0.000000000000000000e+00,1.000000000000000000e+00,-2.000000000000000000e+00,3.443603515625000000e-01,1.643676757812500000e-01,-9.236450195312500000e-01,-3.692626953125000000e-02
-2.000000000000000000e+01,5.000000000000000000e+00,-8.000000000000000000e+00,-1.000000000000000000e+00,-2.000000000000000000e+00,-2.000000000000000000e+00,-2.000000000000000000e+00,-2.000000000000000000e+00,3.443603515625000000e-01,1.643676757812500000e-01,-9.236450195312500000e-01,-3.692626953125000000e-02
0.000000000000000000e+00,-9.000000000000000000e+00,1.600000000000000000e+01,4.000000000000000000e+00,-1.000000000000000000e+00,-1.000000000000000000e+00,0.000000000000000000e+00,0.000000000000000000e+00,3.453369140625000000e-01,1.640625000000000000e-01,-9.233398437500000000e-01,-3.594970703125000000e-02
1.000000000000000000e+01,1.400000000000000000e+01,5.000000000000000000e+00,5.000000000000000000e+00,1.000000000000000000e+00,2.000000000000000000e+00,-2.000000000000000000e+00,0.000000000000000000e+00,3.453369140625000000e-01,1.640625000000000000e-01,-9.233398437500000000e-01,-3.594970703125000000e-02
-1.800000000000000000e+01,-1.000000000000000000e+01,-1.600000000000000000e+01,-5.000000000000000000e+00,-4.000000000000000000e+00,-3.000000000000000000e+00,-1.000000000000000000e+00,0.000000000000000000e+00,3.453369140625000000e-01,1.640625000000000000e-01,-9.233398437500000000e-01,-3.594970703125000000e-02
0.000000000000000000e+00,-1.200000000000000000e+01,9.000000000000000000e+00,-8.000000000000000000e+00,-7.000000000000000000e+00,-6.000000000000000000e+00,-5.000000000000000000e+00,-4.000000000000000000e+00,3.453369140625000000e-01,1.640625000000000000e-01,-9.233398437500000000e-01,-3.594970703125000000e-02
-2.000000000000000000e+00,-1.000000000000000000e+00,-3.500000000000000000e+01,-9.000000000000000000e+00,-3.000000000000000000e+00,-3.000000000000000000e+00,-3.000000000000000000e+00,-4.000000000000000000e+00,3.464965820312500000e-01,1.642456054687500000e-01,-9.229125976562500000e-01,-3.491210937500000000e-02
2.000000000000000000e+00,4.000000000000000000e+00,1.000000000000000000e+01,2.000000000000000000e+00,1.000000000000000000e+00,-2.000000000000000000e+00,-2.000000000000000000e+00,1.000000000000000000e+00,3.464965820312500000e-01,1.642456054687500000e-01,-9.229125976562500000e-01,-3.491210937500000000e-02
3.000000000000000000e+00,-3.000000000000000000e+00,-1.200000000000000000e+01,-2.000000000000000000e+00,-2.000000000000000000e+00,-3.000000000000000000e+00,-1.000000000000000000e+00,0.000000000000000000e+00,3.464965820312500000e-01,1.642456054687500000e-01,-9.229125976562500000e-01,-3.491210937500000000e-02
1.000000000000000000e+00,1.400000000000000000e+01,2.200000000000000000e+01,6.000000000000000000e+00,4.000000000000000000e+00,3.000000000000000000e+00,-1.000000000000000000e+00,1.000000000000000000e+00,3.464965820312500000e-01,1.642456054687500000e-01,-9.229125976562500000e-01,-3.491210937500000000e-02
8.000000000000000000e+00,1.600000000000000000e+01,-3.000000000000000000e+00,0.000000000000000000e+00,2.000000000000000000e+00,0.000000000000000000e+00,6.000000000000000000e+00,1.000000000000000000e+00,3.475952148437500000e-01,1.643066406250000000e-01,-9.225463867187500000e-01,-3.381347656250000000e-02
-1.600000000000000000e+01,-7.000000000000000000e+00,2.900000000000000000e+01,4.000000000000000000e+00,-3.000000000000000000e+00,-4.000000000000000000e+00,-2.000000000000000000e+00,-2.000000000000000000e+00,3.475952148437500000e-01,1.643066406250000000e-01,-9.225463867187500000e-01,-3.381347656250000000e-02
-4.000000000000000000e+00,-1.700000000000000000e+01,-7.000000000000000000e+00,-4.000000000000000000e+00,-1.000000000000000000e+00,0.000000000000000000e+00,-2.000000000000000000e+00,-3.000000000000000000e+00,3.475952148437500000e-01,1.643066406250000000e-01,-9.225463867187500000e-01,-3.381347656250000000e-02
7.000000000000000000e+00,-1.000000000000000000e+00,7.000000000000000000e+00,0.000000000000000000e+00,-3.000000000000000000e+00,-1.000000000000000000e+00,-1.000000000000000000e+00,1.000000000000000000e+00,3.475952148437500000e-01,1.643066406250000000e-01,-9.225463867187500000e-01,-3.381347656250000000e-02
-1.000000000000000000e+01,-9.000000000000000000e+00,-1.200000000000000000e+01,-3.000000000000000000e+00,-2.000000000000000000e+00,-1.000000000000000000e+00,-3.000000000000000000e+00,-4.000000000000000000e+00,3.488159179687500000e-01,1.644897460937500000e-01,-9.220581054687500000e-01,-3.308105468750000000e-02
2.000000000000000000e+00,1.700000000000000000e+01,0.000000000000000000e+00,3.000000000000000000e+00,-1.000000000000000000e+00,-2.000000000000000000e+00,-6.000000000000000000e+00,1.000000000000000000e+00,3.488159179687500000e-01,1.644897460937500000e-01,-9.220581054687500000e-01,-3.308105468750000000e-02
2.000000000000000000e+00,6.000000000000000000e+00,2.000000000000000000e+01,2.000000000000000000e+00,0.000000000000000000e+00,3.000000000000000000e+00,3.000000000000000000e+00,-1.000000000000000000e+00,3.488159179687500000e-01,1.644897460937500000e-01,-9.220581054687500000e-01,-3.308105468750000000e-02
0.000000000000000000e+00,-8.000000000000000000e+00,-2.000000000000000000e+00,1.000000000000000000e+00,0.000000000000000000e+00,-2.000000000000000000e+00,-4.000000000000000000e+00,-1.000000000000000000e+00,3.488159179687500000e-01,1.644897460937500000e-01,-9.220581054687500000e-01,-3.308105468750000000e-02
-3.000000000000000000e+00,-7.000000000000000000e+00,2.000000000000000000e+00,-4.000000000000000000e+00,-3.000000000000000000e+00,-2.000000000000000000e+00,-3.000000000000000000e+00,-4.000000000000000000e+00,3.499755859375000000e-01,1.642456054687500000e-01,-9.216918945312500000e-01,-3.277587890625000000e-02
-1.000000000000000000e+00,2.000000000000000000e+00,-1.000000000000000000e+00,4.000000000000000000e+00,2.000000000000000000e+00,-1.000000000000000000e+00,-2.000000000000000000e+00,-1.000000000000000000e+00,3.499755859375000000e-01,1.642456054687500000e-01,-9.216918945312500000e-01,-3.277587890625000000e-02
-1.000000000000000000e+00,3.000000000000000000e+00,2.000000000000000000e+00,-9.000000000000000000e+00,-5.000000000000000000e+00,-3.000000000000000000e+00,-3.000000000000000000e+00,0.000000000000000000e+00,3.499755859375000000e-01,1.642456054687500000e-01,-9.216918945312500000e-01,-3.277587890625000000e-02
5.000000000000000000e+00,-4.000000000000000000e+00,-1.500000000000000000e+01,-3.000000000000000000e+00,-4.000000000000000000e+00,-3.000000000000000000e+00,-2.000000000000000000e+00,-2.000000000000000000e+00,3.499755859375000000e-01,1.642456054687500000e-01,-9.216918945312500000e-01,-3.277587890625000000e-02
-2.000000000000000000e+00,4.000000000000000000e+00,-4.000000000000000000e+00,3.000000000000000000e+00,4.000000000000000000e+00,1.000000000000000000e+00,-3.000000000000000000e+00,-1.000000000000000000e+00,3.508911132812500000e-01,1.636962890625000000e-01,-9.214477539062500000e-01,-3.222656250000000000e-02
3.000000000000000000e+00,-2.000000000000000000e+00,2.000000000000000000e+00,-1.000000000000000000e+00,-1.000000000000000000e+00,1.000000000000000000e+00,0.000000000000000000e+00,-1.000000000000000000e+00,3.508911132812500000e-01,1.636962890625000000e-01,-9.214477539062500000e-01,-3.222656250000000000e-02
1.000000000000000000e+01,-9.000000000000000000e+00,4.000000000000000000e+00,4.000000000000000000e+00,1.000000000000000000e+00,0.000000000000000000e+00,-4.000000000000000000e+00,0.000000000000000000e+00,3.508911132812500000e-01,1.636962890625000000e-01,-9.214477539062500000e-01,-3.222656250000000000e-02
-1.000000000000000000e+01,-2.000000000000000000e+00,-3.400000000000000000e+01,-1.000000000000000000e+01,-3.000000000000000000e+00,0.000000000000000000e+00,9.000000000000000000e+00,-4.000000000000000000e+00,3.508911132812500000e-01,1.636962890625000000e-01,-9.214477539062500000e-01,-3.222656250000000000e-02
2.000000000000000000e+00,-1.300000000000000000e+01,3.000000000000000000e+00,-1.000000000000000000e+01,-1.000000000000000000e+01,-8.000000000000000000e+00,-4.000000000000000000e+00,-2.000000000000000000e+00,3.515625000000000000e-01,1.634521484375000000e-01,-9.212646484375000000e-01,-3.149414062500000000e-02
-1.100000000000000000e+01,5.000000000000000000e+00,0.000000000000000000e+00,1.300000000000000000e+01,1.000000000000000000e+01,5.000000000000000000e+00,3.000000000000000000e+00,0.000000000000000000e+00,3.515625000000000000e-01,1.634521484375000000e-01,-9.212646484375000000e-01,-3.149414062500000000e-02
-1.000000000000000000e+01,-1.100000000000000000e+01,8.000000000000000000e+00,8.000000000000000000e+00,-3.000000000000000000e+00,1.000000000000000000e+00,0.000000000000000000e+00,2.000000000000000000e+00,3.515625000000000000e-01,1.634521484375000000e-01,-9.212646484375000000e-01,-3.149414062500000000e-02
0.000000000000000000e+00,-9.000000000000000000e+00,-1.900000000000000000e+01,-8.000000000000000000e+00,1.000000000000000000e+00,2.000000000000000000e+00,-1.000000000000000000e+00,1.000000000000000000e+00,3.515625000000000000e-01,1.634521484375000000e-01,-9.212646484375000000e-01,-3.149414062500000000e-02
-1.000000000000000000e+00,3.000000000000000000e+00,-2.600000000000000000e+01,-8.000000000000000000e+00,-7.000000000000000000e+00,-5.000000000000000000e+00,-2.000000000000000000e+00,0.000000000000000000e+00,3.518066406250000000e-01,1.641235351562500000e-01,-9.210815429687500000e-01,-3.070068359375000000e-02
7.000000000000000000e+00,-1.700000000000000000e+01,4.000000000000000000e+00,-1.000000000000000000e+01,-3.000000000000000000e+00,-1.000000000000000000e+00,-1.000000000000000000e+00,-3.000000000000000000e+00,3.518066406250000000e-01,1.641235351562500000e-01,-9.210815429687500000e-01,-3.070068359375000000e-02
3.000000000000000000e+00,2.100000000000000000e+01,-1.500000000000000000e+01,0.000000000000000000e+00,1.000000000000000000e+00,-4.000000000000000000e+00,-6.000000000000000000e+00,0.000000000000000000e+00,3.518066406250000000e-01,1.641235351562500000e-01,-9.210815429687500000e-01,-3.070068359375000000e-02
9.000000000000000000e+00,5.000000000000000000e+00,6.000000000000000000e+00,4.000000000000000000e+00,-4.000000000000000000e+00,0.000000000000000000e+00,5.000000000000000000e+00,1.000000000000000000e+00,3.518066406250000000e-01,1.641235351562500000e-01,-9.210815429687500000e-01,-3.070068359375000000e-02
-3.000000000000000000e+00,-1.300000000000000000e+01,-3.000000000000000000e+00,-4.000000000000000000e+00,-1.000000000000000000e+00,-1.000000000000000000e+00,-5.000000000000000000e+00,-2.000000000000000000e+00,3.518066406250000000e-01,1.645507812500000000e-01,-9.210205078125000000e-01,-3.021240234375000000e-02
2.000000000000000000e+00,1.000000000000000000e+00,2.000000000000000000e+00,-4.000000000000000000e+00,1.000000000000000000e+00,-2.000000000000000000e+00,-2.000000000000000000e+00,-2.000000000000000000e+00,3.518066406250000000e-01,1.645507812500000000e-01,-9.210205078125000000e-01,-3.021240234375000000e-02
-9.000000000000000000e+00,-2.000000000000000000e+00,-8.000000000000000000e+00,-3.000000000000000000e+00,2.000000000000000000e+00,3.000000000000000000e+00,-1.000000000000000000e+00,-3.000000000000000000e+00,3.518066406250000000e-01,1.645507812500000000e-01,-9.210205078125000000e-01,-3.021240234375000000e-02
-9.000000000000000000e+00,3.000000000000000000e+00,1.900000000000000000e+01,0.000000000000000000e+00,3.000000000000000000e+00,2.000000000000000000e+00,-1.000000000000000000e+00,-1.000000000000000000e+00,3.518066406250000000e-01,1.645507812500000000e-01,-9.210205078125000000e-01,-3.021240234375000000e-02
6.000000000000000000e+00,-2.000000000000000000e+00,7.000000000000000000e+00,5.000000000000000000e+00,2.000000000000000000e+00,1.000000000000000000e+00,5.000000000000000000e+00,2.000000000000000000e+00,3.516235351562500000e-01,1.646118164062500000e-01,-9.210815429687500000e-01,-3.002929687500000000e-02
1.000000000000000000e+00,-4.000000000000000000e+00,-1.800000000000000000e+01,-3.000000000000000000e+00,-4.000000000000000000e+00,-2.000000000000000000e+00,-1.000000000000000000e+00,0.000000000000000000e+00,3.516235351562500000e-01,1.646118164062500000e-01,-9.210815429687500000e-01,-3.002929687500000000e-02
-5.000000000000000000e+00,-3.000000000000000000e+00,0.000000000000000000e+00,-3.000000000000000000e+00,-5.000000000000000000e+00,-2.000000000000000000e+00,0.000000000000000000e+00,0.000000000000000000e+00,3.516235351562500000e-01,1.646118164062500000e-01,-9.210815429687500000e-01,-3.002929687500000000e-02
6.000000000000000000e+00,9.000000000000000000e+00,5.000000000000000000e+00,4.000000000000000000e+00,1.000000000000000000e+00,-1.000000000000000000e+00,-5.000000000000000000e+00,0.000000000000000000e+00,3.516235351562500000e-01,1.646118164062500000e-01,-9.210815429687500000e-01,-3.002929687500000000e-02
0.000000000000000000e+00,5.000000000000000000e+00,1.000000000000000000e+01,2.000000000000000000e+00,-4.000000000000000000e+00,1.000000000000000000e+00,1.000000000000000000e+00,1.000000000000000000e+00,3.510131835937500000e-01,1.648559570312500000e-01,-9.212646484375000000e-01,-2.990722656250000000e-02
-2.000000000000000000e+00,-3.000000000000000000e+00,-6.000000000000000000e+00,-1.000000000000000000e+01,-7.000000000000000000e+00,-4.000000000000000000e+00,-3.000000000000000000e+00,-5.000000000000000000e+00,3.510131835937500000e-01,1.648559570312500000e-01,-9.212646484375000000e-01,-2.990722656250000000e-02
-1.000000000000000000e+00,-2.200000000000000000e+01,-1.100000000000000000e+01,-2.000000000000000000e+00,8.000000000000000000e+00,3.000000000000000000e+00,5.000000000000000000e+00,-1.000000000000000000e+00,3.510131835937500000e-01,1.648559570312500000e-01,-9.212646484375000000e-01,-2.990722656250000000e-02
-7.000000000000000000e+00,-2.000000000000000000e+00,6.000000000000000000e+00,1.000000000000000000e+00,-2.000000000000000000e+00,-3.000000000000000000e+00,-4.000000000000000000e+00,2.000000000000000000e+00,3.510131835937500000e-01,1.648559570312500000e-01,-9.212646484375000000e-01,-2.990722656250000000e-02
-2.000000000000000000e+00,7.000000000000000000e+00,-4.000000000000000000e+00,2.000000000000000000e+00,3.000000000000000000e+00,0.000000000000000000e+00,0.000000000000000000e+00,0.000000000000000000e+00,3.501586914062500000e-01,1.654663085937500000e-01,-9.215087890625000000e-01,-2.984619140625000000e-02
0.000000000000000000e+00,4.000000000000000000e+00,-1.000000000000000000e+00,5.000000000000000000e+00,-2.000000000000000000e+00,1.000000000000000000e+00,1.000000000000000000e+00,1.000000000000000000e+00,3.501586914062500000e-01,1.654663085937500000e-01,-9.215087890625000000e-01,-2.984619140625000000e-02
1.100000000000000000e+01,1.500000000000000000e+01,-7.000000000000000000e+00,-6.000000000000000000e+00,-2.000000000000000000e+00,-3.000000000000000000e+00,-2.000000000000000000e+00,0.000000000000000000e+00,3.501586914062500000e-01,1.654663085937500000e-01,-9.215087890625000000e-01,-2.984619140625000000e-02
6.000000000000000000e+00,-1.500000000000000000e+01,3.100000000000000000e+01,0.000000000000000000e+00,-5.000000000000000000e+00,-4.000000000000000000e+00,-7.000000000000000000e+00,-3.000000000000000000e+00,3.501586914062500000e-01,1.654663085937500000e-01,-9.215087890625000000e-01,-2.984619140625000000e-02
7.000000000000000000e+00,-1.000000000000000000e+00,-1.300000000000000000e+01,6.000000000000000000e+00,6.000000000000000000e+00,3.000000000000000000e+00,0.000000000000000000e+00,-1.000000000000000000e+00,3.492431640625000000e-01,1.661987304687500000e-01,-9.216918945312500000e-01,-2.990722656250000000e-02
-2.900000000000000000e+01,-8.000000000000000000e+00,-2.000000000000000000e+00,-3.000000000000000000e+00,1.000000000000000000e+00,1.000000000000000000e+00,3.000000000000000000e+00,-2.000000000000000000e+00,3.492431640625000000e-01,1.661987304687500000e-01,-9.216918945312500000e-01,-2.990722656250000000e-02
3.000000000000000000e+00,2.000000000000000000e+00,-3.000000000000000000e+00,0.000000000000000000e+00,-4.000000000000000000e+00,-4.000000000000000000e+00,-3.000000000000000000e+00,-1.000000000000000000e+00,3.492431640625000000e-01,1.661987304687500000e-01,-9.216918945312500000e-01,-2.990722656250000000e-02
5.000000000000000000e+00,5.000000000000000000e+00,0.000000000000000000e+00,2.000000000000000000e+00,2.000000000000000000e+00,0.000000000000000000e+00,-4.000000000000000000e+00,2.000000000000000000e+00,3.492431640625000000e-01,1.661987304687500000e-01,-9.216918945312500000e-01,-2.990722656250000000e-02
-5.000000000000000000e+00,7.000000000000000000e+00,1.200000000000000000e+01,-3.000000000000000000e+00,-6.000000000000000000e+00,-3.000000000000000000e+00,4.000000000000000000e+00,-1.000000000000000000e+00,3.482666015625000000e-01,1.662597656250000000e-01,-9.220581054687500000e-01,-2.984619140625000000e-02
1.500000000000000000e+01,1.000000000000000000e+01,-3.400000000000000000e+01,-1.000000000000000000e+00,1.000000000000000000e+00,-1.000000000000000000e+00,-1.000000000000000000e+00,3.000000000000000000e+00,3.482666015625000000e-01,1.662597656250000000e-01,-9.220581054687500000e-01,-2.984619140625000000e-02
-2.500000000000000000e+01,-2.100000000000000000e+01,1.000000000000000000e+00,-8.000000000000000000e+00,-6.000000000000000000e+00,-8.000000000000000000e+00,-8.000000000000000000e+00,-7.000000000000000000e+00,3.482666015625000000e-01,1.662597656250000000e-01,-9.220581054687500000e-01,-2.984619140625000000e-02
-5.000000000000000000e+00,-3.000000000000000000e+00,-5.000000000000000000e+00,-1.000000000000000000e+00,-1.000000000000000000e+00,-2.000000000000000000e+00,-2.000000000000000000e+00,-1.000000000000000000e+00,3.482666015625000000e-01,1.662597656250000000e-01,-9.220581054687500000e-01,-2.984619140625000000e-02
1.000000000000000000e+00,-2.000000000000000000e+00,-2.000000000000000000e+00,-4.000000000000000000e+00,-5.000000000000000000e+00,-2.000000000000000000e+00,-4.000000000000000000e+00,-1.000000000000000000e+00,3.472900390625000000e-01,1.659545898437500000e-01,-9.224853515625000000e-01,-2.947998046875000000e-02
0.000000000000000000e+00,2.000000000000000000e+00,1.100000000000000000e+01,3.000000000000000000e+00,2.000000000000000000e+00,2.000000000000000000e+00,0.000000000000000000e+00,1.000000000000000000e+00,3.472900390625000000e-01,1.659545898437500000e-01,-9.224853515625000000e-01,-2.947998046875000000e-02
8.000000000000000000e+00,1.300000000000000000e+01,2.000000000000000000e+00,-9.000000000000000000e+00,-2.000000000000000000e+00,-1.000000000000000000e+00,1.000000000000000000e+00,1.000000000000000000e+00,3.472900390625000000e-01,1.659545898437500000e-01,-9.224853515625000000e-01,-2.947998046875000000e-02
6.000000000000000000e+00,6.000000000000000000e+00,7.000000000000000000e+00,1.600000000000000000e+01,1.000000000000000000e+00,-1.000000000000000000e+00,2.000000000000000000e+00,0.000000000000000000e+00,3.472900390625000000e-01,1.659545898437500000e-01,-9.224853515625000000e-01,-2.947998046875000000e-02
-1.300000000000000000e+01,5.000000000000000000e+00,8.000000000000000000e+00,-1.000000000000000000e+00,4.000000000000000000e+00,0.000000000000000000e+00,-4.000000000000000000e+00,-4.000000000000000000e+00,3.464965820312500000e-01,1.658935546875000000e-01,-9.228515625000000000e-01,-2.899169921875000000e-02
-5.000000000000000000e+00,-2.700000000000000000e+01,1.000000000000000000e+00,-4.000000000000000000e+00,-5.000000000000000000e+00,-4.000000000000000000e+00,-2.000000000000000000e+00,-1.000000000000000000e+00,3.464965820312500000e-01,1.658935546875000000e-01,-9.228515625000000000e-01,-2.899169921875000000e-02
-2.000000000000000000e+00,-4.000000000000000000e+00,-2.000000000000000000e+00,0.000000000000000000e+00,-3.000000000000000000e+00,-2.000000000000000000e+00,-1.000000000000000000e+00,-1.000000000000000000e+00,3.464965820312500000e-01,1.658935546875000000e-01,-9.228515625000000000e-01,-2.899169921875000000e-02
0.000000000000000000e+00,6.000000000000000000e+00,1.300000000000000000e+01,3.000000000000000000e+00,0.000000000000000000e+00,-1.000000000000000000e+00,-6.000000000000000000e+00,-1.000000000000000000e+00,3.464965820312500000e-01,1.658935546875000000e-01,-9.228515625000000000e-01,-2.899169921875000000e-02
6.000000000000000000e+00,1.200000000000000000e+01,-1.800000000000000000e+01,-1.000000000000000000e+00,1.000000000000000000e+00,0.000000000000000000e+00,6.000000000000000000e+00,0.000000000000000000e+00,3.460693359375000000e-01,1.660156250000000000e-01,-9.229736328125000000e-01,-2.850341796875000000e-02
5.000000000000000000e+00,-2.000000000000000000e+00,-5.000000000000000000e+00,-2.000000000000000000e+00,-5.000000000000000000e+00,-4.000000000000000000e+00,-3.000000000000000000e+00,-1.000000000000000000e+00,3.460693359375000000e-01,1.660156250000000000e-01,-9.229736328125000000e-01,-2.850341796875000000e-02
-1.000000000000000000e+00,-5.000000000000000000e+00,1.000000000000000000e+00,6.000000000000000000e+00,5.000000000000000000e+00,3.000000000000000000e+00,6.000000000000000000e+00,0.000000000000000000e+00,3.460693359375000000e-01,1.660156250000000000e-01,-9.229736328125000000e-01,-2.850341796875000000e-02
-7.000000000000000000e+00,1.000000000000000000e+00,-9.000000000000000000e+00,-6.000000000000000000e+00,0.000000000000000000e+00,0.000000000000000000e+00,-1.000000000000000000e+00,-1.000000000000000000e+00,3.460693359375000000e-01,1.660156250000000000e-01,-9.229736328125000000e-01,-2.850341796875000000e-02
1.000000000000000000e+01,-2.000000000000000000e+00,7.000000000000000000e+00,2.000000000000000000e+00,-1.000000000000000000e+00,-1.000000000000000000e+00,-4.000000000000000000e+00,-2.000000000000000000e+00,3.461303710937500000e-01,1.662597656250000000e-01,-9.229125976562500000e-01,-2.825927734375000000e-02
-1.800000000000000000e+01,5.000000000000000000e+00,-1.000000000000000000e+00,-4.000000000000000000e+00,1.000000000000000000e+00,2.000000000000000000e+00,0.000000000000000000e+00,-3.000000000000000000e+00,3.461303710937500000e-01,1.662597656250000000e-01,-9.229125976562500000e-01,-2.825927734375000000e-02
4.000000000000000000e+00,6.000000000000000000e+00,-5.000000000000000000e+00,1.000000000000000000e+00,0.000000000000000000e+00,-2.000000000000000000e+00,-5.000000000000000000e+00,-2.000000000000000000e+00,3.461303710937500000e-01,1.662597656250000000e-01,-9.229125976562500000e-01,-2.825927734375000000e-02
-8.000000000000000000e+00,-1.000000000000000000e+01,-2.000000000000000000e+00,-3.000000000000000000e+00,-1.000000000000000000e+00,-3.000000000000000000e+00,1.000000000000000000e+00,-1.000000000000000000e+00,3.461303710937500000e-01,1.662597656250000000e-01,-9.229125976562500000e-01,-2.825927734375000000e-02
-4.000000000000000000e+00,-6.000000000000000000e+00,-7.000000000000000000e+00,-9.000000000000000000e+00,-8.000000000000000000e+00,-6.000000000000000000e+00,-3.000000000000000000e+00,0.000000000000000000e+00,3.463134765625000000e-01,1.665649414062500000e-01,-9.228515625000000000e-01,-2.783203125000000000e-02
5.000000000000000000e+00,3.000000000000000000e+00,4.000000000000000000e+00,0.000000000000000000e+00,-1.000000000000000000e+00,0.000000000000000000e+00,3.000000000000000000e+00,-1.000000000000000000e+00,3.463134765625000000e-01,1.665649414062500000e-01,-9.228515625000000000e-01,-2.783203125000000000e-02
3.000000000000000000e+00,3.000000000000000000e+00,4.000000000000000000e+00,6.000000000000000000e+00,-1.000000000000000000e+00,0.000000000000000000e+00,0.000000000000000000e+00,1.000000000000000000e+00,3.463134765625000000e-01,1.665649414062500000e-01,-9.228515625000000000e-01,-2.783203125000000000e-02
7.000000000000000000e+00,6.000000000000000000e+00,-1.400000000000000000e+01,-1.200000000000000000e+01,4.000000000000000000e+00,1.000000000000000000e+00,1.000000000000000000e+00,-1.000000000000000000e+00,3.463134765625000000e-01,1.665649414062500000e-01,-9.228515625000000000e-01,-2.783203125000000000e-02
1.000000000000000000e+00,-7.000000000000000000e+00,8.000000000000000000e+00,4.000000000000000000e+00,1.000000000000000000e+00,-1.000000000000000000e+00,2.000000000000000000e+00,1.000000000000000000e+00,3.463745117187500000e-01,1.676635742187500000e-01,-9.226074218750000000e-01,-2.703857421875000000e-02
-1.000000000000000000e+00,8.000000000000000000e+00,1.800000000000000000e+01,0.000000000000000000e+00,1.000000000000000000e+00,-1.000000000000000000e+00,-2.000000000000000000e+00,-2.000000000000000000e+00,3.463745117187500000e-01,1.676635742187500000e-01,-9.226074218750000000e-01,-2.703857421875000000e-02
6.000000000000000000e+00,9.000000000000000000e+00,-7.000000000000000000e+00,-1.100000000000000000e+01,-8.000000000000000000e+00,1.000000000000000000e+00,3.000000000000000000e+00,-2.000000000000000000e+00,3.463745117187500000e-01,1.676635742187500000e-01,-9.226074218750000000e-01,-2.703857421875000000e-02
-4.000000000000000000e+00,-2.800000000000000000e+01,-1.400000000000000000e+01,-1.000000000000000000e+00,-7.000000000000000000e+00,-7.000000000000000000e+00,-4.000000000000000000e+00,-5.000000000000000000e+00,3.463745117187500000e-01,1.676635742187500000e-01,-9.226074218750000000e-01,-2.703857421875000000e-02
-5.000000000000000000e+00,-1.200000000000000000e+01,6.000000000000000000e+00,3.000000000000000000e+00,-4.000000000000000000e+00,-2.000000000000000000e+00,-1.000000000000000000e+00,-1.000000000000000000e+00,3.461303710937500000e-01,1.696777343750000000e-01,-9.223632812500000000e-01,-2.618408203125000000e-02
6.000000000000000000e+00,5.000000000000000000e+00,-4.000000000000000000e+00,-2.000000000000000000e+00,4.000000000000000000e+00,2.000000000000000000e+00,0.000000000000000000e+00,0.000000000000000000e+00,3.461303710937500000e-01,1.696777343750000000e-01,-9.223632812500000000e-01,-2.618408203125000000e-02
-2.000000000000000000e+00,1.600000000000000000e+01,2.000000000000000000e+00,3.000000000000000000e+00,6.000000000000000000e+00,2.000000000000000000e+00,-1.000000000000000000e+00,-1.000000000000000000e+00,3.461303710937500000e-01,1.696777343750000000e-01,-9.223632812500000000e-01,-2.618408203125000000e-02
1.000000000000000000e+01,-2.000000000000000000e+00,5.000000000000000000e+00,-1.000000000000000000e+00,-6.000000000000000000e+00,0.000000000000000000e+00,2.000000000000000000e+00,-1.000000000000000000e+00,3.461303710937500000e-01,1.696777343750000000e-01,-9.223632812500000000e-01,-2.618408203125000000e-02
-1.000000000000000000e+00,1.000000000000000000e+00,9.000000000000000000e+00,-5.000000000000000000e+00,3.000000000000000000e+00,2.000000000000000000e+00,-1.000000000000000000e+00,-2.000000000000000000e+00,3.457031250000000000e-01,1.713867187500000000e-01,-9.222412109375000000e-01,-2.563476562500000000e-02
-5.000000000000000000e+00,-7.000000000000000000e+00,-4.000000000000000000e+00,4.000000000000000000e+00,-2.000000000000000000e+00,-2.000000000000000000e+00,-6.000000000000000000e+00,-2.000000000000000000e+00,3.457031250000000000e-01,1.713867187500000000e-01,-9.222412109375000000e-01,-2.563476562500000000e-02
-2.000000000000000000e+00,2.000000000000000000e+00,1.800000000000000000e+01,2.000000000000000000e+00,-4.000000000000000000e+00,-2.000000000000000000e+00,8.000000000000000000e+00,-1.000000000000000000e+00,3.457031250000000000e-01,1.713867187500000000e-01,-9.222412109375000000e-01,-2.563476562500000000e-02
-5.000000000000000000e+00,3.000000000000000000e+00,-2.400000000000000000e+01,-6.000000000000000000e+00,-3.000000000000000000e+00,-1.000000000000000000e+00,-1.000000000000000000e+00,1.000000000000000000e+00,3.457031250000000000e-01,1.713867187500000000e-01,-9.222412109375000000e-01,-2.563476562500000000e-02
-3.000000000000000000e+00,-2.000000000000000000e+00,4.000000000000000000e+00,3.000000000000000000e+00,3.000000000000000000e+00,-3.000000000000000000e+00,-3.000000000000000000e+00,-1.000000000000000000e+00,3.452758789062500000e-01,1.725463867187500000e-01,-9.221801757812500000e-01,-2.545166015625000000e-02
0.000000000000000000e+00,-7.000000000000000000e+00,-1.200000000000000000e+01,-5.000000000000000000e+00,-4.000000000000000000e+00,-2.000000000000000000e+00,1.000000000000000000e+00,0.000000000000000000e+00,3.452758789062500000e-01,1.725463867187500000e-01,-9.221801757812500000e-01,-2.545166015625000000e-02
3.000000000000000000e+00,-2.000000000000000000e+00,-4.000000000000000000e+00,1.000000000000000000e+00,1.000000000000000000e+00,0.000000000000000000e+00,-3.000000000000000000e+00,-2.000000000000000000e+00,3.452758789062500000e-01,1.725463867187500000e-01,-9.221801757812500000e-01,-2.545166015625000000e-02
-5.000000000000000000e+00,5.000000000000000000e+00,9.000000000000000000e+00,2.000000000000000000e+00,1.000000000000000000e+00,-1.000000000000000000e+00,2.000000000000000000e+00,-1.000000000000000000e+00,3.452758789062500000e-01,1.725463867187500000e-01,-9.221801757812500000e-01,-2.545166015625000000e-02
-2.000000000000000000e+00,7.000000000000000000e+00,-3.000000000000000000e+00,-3.000000000000000000e+00,-2.000000000000000000e+00,-2.000000000000000000e+00,-1.000000000000000000e+00,0.000000000000000000e+00,3.447875976562500000e-01,1.729125976562500000e-01,-9.222412109375000000e-01,-2.557373046875000000e-02
1.000000000000000000e+01,4.000000000000000000e+00,3.000000000000000000e+00,0.000000000000000000e+00,1.000000000000000000e+00,-2.000000000000000000e+00,1.000000000000000000e+00,1.000000000000000000e+00,3.447875976562500000e-01,1.729125976562500000e-01,-9.222412109375000000e-01,-2.557373046875000000e-02
-1.000000000000000000e+00,-6.000000000000000000e+00,-1.400000000000000000e+01,-4.000000000000000000e+00,0.000000000000000000e+00,-1.000000000000000000e+00,-1.000000000000000000e+00,-3.000000000000000000e+00,3.447875976562500000e-01,1.729125976562500000e-01,-9.222412109375000000e-01,-2.557373046875000000e-02
-7.000000000000000000e+00,-9.000000000000000000e+00,-5.000000000000000000e+00,4.000000000000000000e+00,1.000000000000000000e+00,0.000000000000000000e+00,2.000000000000000000e+00,-2.000000000000000000e+00,3.447875976562500000e-01,1.729125976562500000e-01,-9.222412109375000000e-01,-2.557373046875000000e-02
2.000000000000000000e+00,4.000000000000000000e+00,-5.000000000000000000e+00,-6.000000000000000000e+00,-3.000000000000000000e+00,-2.000000000000000000e+00,-6.000000000000000000e+00,-2.000000000000000000e+00,3.441162109375000000e-01,1.727905273437500000e-01,-9.225463867187500000e-01,-2.545166015625000000e-02
-8.000000000000000000e+00,-1.000000000000000000e+00,1.000000000000000000e+00,-1.000000000000000000e+00,-2.000000000000000000e+00,-1.000000000000000000e+00,-1.000000000000000000e+00,-2.000000000000000000e+00,3.441162109375000000e-01,1.727905273437500000e-01,-9.225463867187500000e-01,-2.545166015625000000e-02
5.000000000000000000e+00,1.500000000000000000e+01,-1.700000000000000000e+01,4.000000000000000000e+00,2.000000000000000000e+00,0.000000000000000000e+00,0.000000000000000000e+00,4.000000000000000000e+00,3.441162109375000000e-01,1.727905273437500000e-01,-9.225463867187500000e-01,-2.545166015625000000e-02
-6.000000000000000000e+00,-5.000000000000000000e+00,4.700000000000000000e+01,-6.000000000000000000e+00,-4.000000000000000000e+00,-1.000000000000000000e+00,-2.000000000000000000e+00,-4.000000000000000000e+00,3.441162109375000000e-01,1.727905273437500000e-01,-9.225463867187500000e-01,-2.545166015625000000e-02
6.000000000000000000e+00,-2.000000000000000000e+01,-2.900000000000000000e+01,1.000000000000000000e+00,0.000000000000000000e+00,0.000000000000000000e+00,-2.000000000000000000e+00,-2.000000000000000000e+00,3.433837890625000000e-01,1.727905273437500000e-01,-9.228515625000000000e-01,-2.514648437500000000e-02
-1.000000000000000000e+00,-2.000000000000000000e+00,1.000000000000000000e+00,-3.000000000000000000e+00,-1.000000000000000000e+00,-2.000000000000000000e+00,1.000000000000000000e+00,0.000000000000000000e+00,3.433837890625000000e-01,1.727905273437500000e-01,-9.228515625000000000e-01,-2.514648437500000000e-02
-6.000000000000000000e+00,-5.000000000000000000e+00,2.000000000000000000e+00,6.000000000000000000e+00,0.000000000000000000e+00,-1.000000000000000000e+00,0.000000000000000000e+00,-1.000000000000000000e+00,3.433837890625000000e-01,1.727905273437500000e-01,-9.228515625000000000e-01,-2.514648437500000000e-02
2.000000000000000000e+00,1.700000000000000000e+01,-1.000000000000000000e+01,1.000000000000000000e+00,3.000000000000000000e+00,-1.000000000000000000e+00,0.000000000000000000e+00,-1.000000000000000000e+00,3.433837890625000000e-01,1.727905273437500000e-01,-9.228515625000000000e-01,-2.514648437500000000e-02
-4.000000000000000000e+00,8.000000000000000000e+00,9.000000000000000000e+00,-3.000000000000000000e+00,-3.000000000000000000e+00,0.000000000000000000e+00,0.000000000000000000e+00,-1.000000000000000000e+00,3.425903320312500000e-01,1.724853515625000000e-01,-9.231567382812500000e-01,-2.514648437500000000e-02
-1.000000000000000000e+00,2.000000000000000000e+00,9.000000000000000000e+00,9.000000000000000000e+00,-4.000000000000000000e+00,-1.000000000000000000e+00,1.000000000000000000e+00,-2.000000000000000000e+00,3.425903320312500000e-01,1.724853515625000000e-01,-9.231567382812500000e-01,-2.514648437500000000e-02
-2.000000000000000000e+00,-2.400000000000000000e+01,-4.600000000000000000e+01,-2.900000000000000000e+01,-6.000000000000000000e+00,-6.000000000000000000e+00,-7.000000000000000000e+00,-5.000000000000000000e+00,3.425903320312500000e-01,1.724853515625000000e-01,-9.231567382812500000e-01,-2.514648437500000000e-02
5.000000000000000000e+00,-2.000000000000000000e+00,0.000000000000000000e+00,-1.000000000000000000e+00,-2.000000000000000000e+00,-1.000000000000000000e+00,2.000000000000000000e+00,1.000000000000000000e+00,3.425903320312500000e-01,1.724853515625000000e-01,-9.231567382812500000e-01,-2.514648437500000000e-02
-2.900000000000000000e+01,-1.000000000000000000e+00,1.000000000000000000e+00,6.000000000000000000e+00,4.000000000000000000e+00,2.000000000000000000e+00,0.000000000000000000e+00,-2.000000000000000000e+00,3.420410156250000000e-01,1.716308593750000000e-01,-9.235229492187500000e-01,-2.563476562500000000e-02
7.000000000000000000e+00,1.000000000000000000e+00,-1.000000000000000000e+00,-3.000000000000000000e+00,-2.000000000000000000e+00,-2.000000000000000000e+00,2.000000000000000000e+00,0.000000000000000000e+00,3.420410156250000000e-01,1.716308593750000000e-01,-9.235229492187500000e-01,-2.563476562500000000e-02
1.000000000000000000e+00,-2.000000000000000000e+00,1.400000000000000000e+01,4.000000000000000000e+00,0.000000000000000000e+00,0.000000000000000000e+00,0.000000000000000000e+00,1.000000000000000000e+00,3.420410156250000000e-01,1.716308593750000000e-01,-9.235229492187500000e-01,-2.563476562500000000e-02
0.000000000000000000e+00,-1.000000000000000000e+00,-4.000000000000000000e+00,0.000000000000000000e+00,-2.000000000000000000e+00,0.000000000000000000e+00,-2.000000000000000000e+00,1.000000000000000000e+00,3.420410156250000000e-01,1.716308593750000000e-01,-9.235229492187500000e-01,-2.563476562500000000e-02
4.000000000000000000e+00,4.000000000000000000e+00,-7.000000000000000000e+00,-4.000000000000000000e+00,3.000000000000000000e+00,0.000000000000000000e+00,-7.000000000000000000e+00,1.000000000000000000e+00,3.417358398437500000e-01,1.705322265625000000e-01,-9.238281250000000000e-01,-2.624511718750000000e-02
3.000000000000000000e+00,1.100000000000000000e+01,6.000000000000000000e+00,-1.000000000000000000e+00,-1.000000000000000000e+00,0.000000000000000000e+00,9.000000000000000000e+00,1.000000000000000000e+00,3.417358398437500000e-01,1.705322265625000000e-01,-9.238281250000000000e-01,-2.624511718750000000e-02
6.000000000000000000e+00,1.000000000000000000e+00,5.000000000000000000e+00,1.000000000000000000e+00,0.000000000000000000e+00,-2.000000000000000000e+00,-2.000000000000000000e+00,1.000000000000000000e+00,3.417358398437500000e-01,1.705322265625000000e-01,-9.238281250000000000e-01,-2.624511718750000000e-02
-1.000000000000000000e+01,-6.000000000000000000e+00,-2.000000000000000000e+00,-1.000000000000000000e+01,-9.000000000000000000e+00,-6.000000000000000000e+00,-4.000000000000000000e+00,-6.000000000000000000e+00,3.417358398437500000e-01,1.705322265625000000e-01,-9.238281250000000000e-01,-2.624511718750000000e-02
-4.000000000000000000e+00,-2.700000000000000000e+01,1.700000000000000000e+01,7.000000000000000000e+00,9.000000000000000000e+00,4.000000000000000000e+00,5.000000000000000000e+00,-3.000000000000000000e+00,3.414916992187500000e-01,1.696166992187500000e-01,-9.240722656250000000e-01,-2.691650390625000000e-02
-2.000000000000000000e+00,-5.000000000000000000e+00,-7.000000000000000000e+00,-4.000000000000000000e+00,-1.000000000000000000e+00,-2.000000000000000000e+00,-7.000000000000000000e+00,-2.000000000000000000e+00,3.414916992187500000e-01,1.696166992187500000e-01,-9.240722656250000000e-01,-2.691650390625000000e-02
5.000000000000000000e+00,9.000000000000000000e+00,3.000000000000000000e+00,2.000000000000000000e+00,1.000000000000000000e+00,-1.000000000000000000e+00,0.000000000000000000e+00,1.000000000000000000e+00,3.414916992187500000e-01,1.696166992187500000e-01,-9.240722656250000000e-01,-2.691650390625000000e-02
1.000000000000000000e+00,1.400000000000000000e+01,0.000000000000000000e+00,2.000000000000000000e+00,1.000000000000000000e+00,1.000000000000000000e+00,2.000000000000000000e+00,4.000000000000000000e+00,3.414916992187500000e-01,1.696166992187500000e-01,-9.240722656250000000e-01,-2.691650390625000000e-02
3.000000000000000000e+00,7.000000000000000000e+00,-2.000000000000000000e+00,-5.000000000000000000e+00,-5.000000000000000000e+00,-3.000000000000000000e+00,-2.000000000000000000e+00,0.000000000000000000e+00,3.415527343750000000e-01,1.695556640625000000e-01,-9.240722656250000000e-01,-2.734375000000000000e-02
-1.000000000000000000e+00,-5.000000000000000000e+00,-2.000000000000000000e+00,-4.000000000000000000e+00,-1.000000000000000000e+00,-2.000000000000000000e+00,-3.000000000000000000e+00,-3.000000000000000000e+00,3.415527343750000000e-01,1.695556640625000000e-01,-9.240722656250000000e-01,-2.734375000000000000e-02
-8.000000000000000000e+00,-3.000000000000000000e+00,5.000000000000000000e+00,-1.000000000000000000e+00,-3.000000000000000000e+00,1.000000000000000000e+00,0.000000000000000000e+00,-2.000000000000000000e+00,3.415527343750000000e-01,1.695556640625000000e-01,-9.240722656250000000e-01,-2.734375000000000000e-02
7.000000000000000000e+00,1.200000000000000000e+01,-5.000000000000000000e+00,6.000000000000000000e+00,1.000000000000000000e+00,0.000000000000000000e+00,-3.000000000000000000e+00,-1.000000000000000000e+00,3.415527343750000000e-01,1.695556640625000000e-01,-9.240722656250000000e-01,-2.734375000000000000e-02
-2.000000000000000000e+00,-1.000000000000000000e+00,-3.000000000000000000e+00,1.000000000000000000e+00,-6.000000000000000000e+00,-4.000000000000000000e+00,-2.000000000000000000e+00,-2.000000000000000000e+00,3.417968750000000000e-01,1.693725585937500000e-01,-9.239501953125000000e-01,-2.807617187500000000e-02
8.000000000000000000e+00,0.000000000000000000e+00,-3.000000000000000000e+00,3.000000000000000000e+00,1.000000000000000000e+01,1.000000000000000000e+00,-1.000000000000000000e+00,-3.000000000000000000e+00,3.417968750000000000e-01,1.693725585937500000e-01,-9.239501953125000000e-01,-2.807617187500000000e-02
-2.800000000000000000e+01,-3.800000000000000000e+01,8.000000000000000000e+00,-3.000000000000000000e+00,-5.000000000000000000e+00,-2.000000000000000000e+00,-2.000000000000000000e+00,-4.000000000000000000e+00,3.417968750000000000e-01,1.693725585937500000e-01,-9.239501953125000000e-01,-2.807617187500000000e-02
8.000000000000000000e+00,4.000000000000000000e+00,-1.000000000000000000e+01,-2.000000000000000000e+00,-1.000000000000000000e+00,-3.000000000000000000e+00,-2.000000000000000000e+00,0.000000000000000000e+00,3.417968750000000000e-01,1.693725585937500000e-01,-9.239501953125000000e-01,-2.807617187500000000e-02
3.000000000000000000e+00,1.000000000000000000e+00,-7.000000000000000000e+00,-3.000000000000000000e+00,-6.000000000000000000e+00,-4.000000000000000000e+00,-1.000000000000000000e+00,0.000000000000000000e+00,3.420410156250000000e-01,1.693115234375000000e-01,-9.238891601562500000e-01,-2.874755859375000000e-02
-1.000000000000000000e+00,2.000000000000000000e+00,-3.000000000000000000e+00,-4.000000000000000000e+00,-3.000000000000000000e+00,-1.000000000000000000e+00,0.000000000000000000e+00,-1.000000000000000000e+00,3.420410156250000000e-01,1.693115234375000000e-01,-9.238891601562500000e-01,-2.874755859375000000e-02
1.000000000000000000e+00,3.000000000000000000e+00,0.000000000000000000e+00,3.000000000000000000e+00,0.000000000000000000e+00,0.000000000000000000e+00,1.000000000000000000e+00,-1.000000000000000000e+00,3.420410156250000000e-01,1.693115234375000000e-01,-9.238891601562500000e-01,-2.874755859375000000e-02
2.000000000000000000e+00,3.000000000000000000e+00,0.000000000000000000e+00,2.000000000000000000e+00,4.000000000000000000e+00,2.000000000000000000e+00,0.000000000000000000e+00,-1.000000000000000000e+00,3.420410156250000000e-01,1.693115234375000000e-01,-9.238891601562500000e-01,-2.874755859375000000e-02
2.000000000000000000e+00,7.000000000000000000e+00,2.000000000000000000e+00,-4.000000000000000000e+00,-2.000000000000000000e+00,0.000000000000000000e+00,0.000000000000000000e+00,-1.000000000000000000e+00,3.425903320312500000e-01,1.690063476562500000e-01,-9.237060546875000000e-01,-2.935791015625000000e-02
-4.000000000000000000e+00,-1.000000000000000000e+01,-4.000000000000000000e+00,2.000000000000000000e+00,-2.000000000000000000e+00,1.000000000000000000e+00,-1.000000000000000000e+00,0.000000000000000000e+00,3.425903320312500000e-01,1.690063476562500000e-01,-9.237060546875000000e-01,-2.935791015625000000e-02
6.000000000000000000e+00,7.000000000000000000e+00,1.400000000000000000e+01,4.000000000000000000e+00,2.000000000000000000e+00,0.000000000000000000e+00,-1.000000000000000000e+00,1.000000000000000000e+00,3.425903320312500000e-01,1.690063476562500000e-01,-9.237060546875000000e-01,-2.935791015625000000e-02
-1.900000000000000000e+01,-5.000000000000000000e+00,5.000000000000000000e+00,-3.000000000000000000e+00,-1.000000000000000000e+00,-1.000000000000000000e+00,-6.000000000000000000e+00,-3.000000000000000000e+00,3.425903320312500000e-01,1.690063476562500000e-01,-9.237060546875000000e-01,-2.935791015625000000e-02
1.000000000000000000e+00,-2.000000000000000000e+00,-1.200000000000000000e+01,3.000000000000000000e+00,-6.000000000000000000e+00,-1.000000000000000000e+00,1.200000000000000000e+01,-1.000000000000000000e+00,3.432006835937500000e-01,1.688232421875000000e-01,-9.235229492187500000e-01,-2.972412109375000000e-02
-2.000000000000000000e+00,-7.000000000000000000e+00,-8.000000000000000000e+00,-1.000000000000000000e+00,4.000000000000000000e+00,-1.000000000000000000e+00,-2.000000000000000000e+00,-1.000000000000000000e+00,3.432006835937500000e-01,1.688232421875000000e-01,-9.235229492187500000e-01,-2.972412109375000000e-02
-2.000000000000000000e+00,-7.000000000000000000e+00,0.000000000000000000e+00,-4.000000000000000000e+00,-5.000000000000000000e+00,-5.000000000000000000e+00,-4.000000000000000000e+00,-2.000000000000000000e+00,3.432006835937500000e-01,1.688232421875000000e-01,-9.235229492187500000e-01,-2.972412109375000000e-02
1.000000000000000000e+00,2.000000000000000000e+00,5.000000000000000000e+00,2.000000000000000000e+00,3.000000000000000000e+00,-1.000000000000000000e+00,-3.000000000000000000e+00,0.000000000000000000e+00,3.432006835937500000e-01,1.688232421875000000e-01,-9.235229492187500000e-01,-2.972412109375000000e-02
0.000000000000000000e+00,8.000000000000000000e+00,3.000000000000000000e+00,-4.000000000000000000e+00,-3.000000000000000000e+00,-1.000000000000000000e+00,-1.000000000000000000e+00,1.000000000000000000e+00,3.438720703125000000e-01,1.686401367187500000e-01,-9.232788085937500000e-01,-2.972412109375000000e-02
-2.000000000000000000e+00,-2.000000000000000000e+00,-1.000000000000000000e+00,-1.000000000000000000e+00,-5.000000000000000000e+00,0.000000000000000000e+00,1.000000000000000000e+00,0.000000000000000000e+00,3.438720703125000000e-01,1.686401367187500000e-01,-9.232788085937500000e-01,-2.972412109375000000e-02
5.000000000000000000e+00,1.300000000000000000e+01,2.300000000000000000e+01,9.000000000000000000e+00,3.000000000000000000e+00,0.000000000000000000e+00,1.000000000000000000e+00,0.000000000000000000e+00,3.438720703125000000e-01,1.686401367187500000e-01,-9.232788085937500000e-01,-2.972412109375000000e-02
1.600000000000000000e+01,-4.000000000000000000e+00,-4.700000000000000000e+01,-1.000000000000000000e+01,3.000000000000000000e+00,2.000000000000000000e+00,0.000000000000000000e+00,1.000000000000000000e+00,3.438720703125000000e-01,1.686401367187500000e-01,-9.232788085937500000e-01,-2.972412109375000000e-02
-2.200000000000000000e+01,-8.000000000000000000e+00,6.000000000000000000e+00,-5.000000000000000000e+00,-1.000000000000000000e+00,-3.000000000000000000e+00,-3.000000000000000000e+00,-2.000000000000000000e+00,3.443603515625000000e-01,1.682739257812500000e-01,-9.231567382812500000e-01,-2.954101562500000000e-02
-1.100000000000000000e+01,-1.900000000000000000e+01,-2.700000000000000000e+01,-6.000000000000000000e+00,-2.000000000000000000e+00,-3.000000000000000000e+00,-3.000000000000000000e+00,-2.000000000000000000e+00,3.443603515625000000e-01,1.682739257812500000e-01,-9.231567382812500000e-01,-2.954101562500000000e-02
4.000000000000000000e+00,1.000000000000000000e+00,2.000000000000000000e+00,-1.000000000000000000e+00,-1.000000000000000000e+00,-2.000000000000000000e+00,-4.000000000000000000e+00,-1.000000000000000000e+00,3.443603515625000000e-01,1.682739257812500000e-01,-9.231567382812500000e-01,-2.954101562500000000e-02
-5.000000000000000000e+00,-8.000000000000000000e+00,-3.000000000000000000e+00,-7.000000000000000000e+00,-6.000000000000000000e+00,-2.000000000000000000e+00,-2.000000000000000000e+00,-3.000000000000000000e+00,3.443603515625000000e-01,1.682739257812500000e-01,-9.231567382812500000e-01,-2.954101562500000000e-02
1.300000000000000000e+01,7.000000000000000000e+00,8.000000000000000000e+00,-2.000000000000000000e+00,-2.000000000000000000e+00,-2.000000000000000000e+00,-2.000000000000000000e+00,2.000000000000000000e+00,3.445434570312500000e-01,1.684570312500000000e-01,-9.230957031250000000e-01,-2.911376953125000000e-02
-1.000000000000000000e+00,5.000000000000000000e+00,6.000000000000000000e+00,-3.000000000000000000e+00,-5.000000000000000000e+00,-3.000000000000000000e+00,-1.000000000000000000e+00,1.000000000000000000e+00,3.445434570312500000e-01,1.684570312500000000e-01,-9.230957031250000000e-01,-2.911376953125000000e-02
-2.000000000000000000e+00,6.000000000000000000e+00,-3.000000000000000000e+00,4.000000000000000000e+00,4.000000000000000000e+00,2.000000000000000000e+00,1.000000000000000000e+00,1.000000000000000000e+00,3.445434570312500000e-01,1.684570312500000000e-01,-9.230957031250000000e-01,-2.911376953125000000e-02
2.000000000000000000e+00,-2.000000000000000000e+00,-1.100000000000000000e+01,5.000000000000000000e+00,0.000000000000000000e+00,1.000000000000000000e+00,3.000000000000000000e+00,1.000000000000000000e+00,3.445434570312500000e-01,1.684570312500000000e-01,-9.230957031250000000e-01,-2.911376953125000000e-02
1.200000000000000000e+01,-2.000000000000000000e+00,6.000000000000000000e+00,-4.000000000000000000e+00,0.000000000000000000e+00,-1.000000000000000000e+00,2.000000000000000000e+00,-1.000000000000000000e+00,3.446044921875000000e-01,1.683959960937500000e-01,-9.230957031250000000e-01,-2.886962890625000000e-02
-1.200000000000000000e+01,5.000000000000000000e+00,1.100000000000000000e+01,-1.000000000000000000e+00,0.000000000000000000e+00,-2.000000000000000000e+00,-2.000000000000000000e+00,-2.000000000000000000e+00,3.446044921875000000e-01,1.683959960937500000e-01,-9.230957031250000000e-01,-2.886962890625000000e-02
-1.500000000000000000e+01,-2.500000000000000000e+01,-3.500000000000000000e+01,-1.200000000000000000e+01,-7.000000000000000000e+00,-4.000000000000000000e+00,-6.000000000000000000e+00,-4.000000000000000000e+00,3.446044921875000000e-01,1.683959960937500000e-01,-9.230957031250000000e-01,-2.886962890625000000e-02
3.000000000000000000e+00,-3.000000000000000000e+00,1.400000000000000000e+01,3.000000000000000000e+00,-2.000000000000000000e+00,0.000000000000000000e+00,-2.000000000000000000e+00,-1.000000000000000000e+00,3.446044921875000000e-01,1.683959960937500000e-01,-9.230957031250000000e-01,-2.886962890625000000e-02
1.000000000000000000e+00,7.000000000000000000e+00,3.000000000000000000e+00,5.000000000000000000e+00,0.000000000000000000e+00,-1.000000000000000000e+00,-4.000000000000000000e+00,-1.000000000000000000e+00,3.446044921875000000e-01,1.683349609375000000e-01,-9.230957031250000000e-01,-2.850341796875000000e-02
1.400000000000000000e+01,1.200000000000000000e+01,-2.000000000000000000e+00,4.000000000000000000e+00,8.000000000000000000e+00,4.000000000000000000e+00,-1.000000000000000000e+00,1.000000000000000000e+00,3.446044921875000000e-01,1.683349609375000000e-01,-9.230957031250000000e-01,-2.850341796875000000e-02
0.000000000000000000e+00,3.000000000000000000e+00,0.000000000000000000e+00,-4.000000000000000000e+00,-2.000000000000000000e+00,1.000000000000000000e+00,3.000000000000000000e+00,2.000000000000000000e+00,3.446044921875000000e-01,1.683349609375000000e-01,-9.230957031250000000e-01,-2.850341796875000000e-02
-9.000000000000000000e+00,-7.000000000000000000e+00,8.000000000000000000e+00,2.000000000000000000e+00,-2.000000000000000000e+00,-3.000000000000000000e+00,-2.000000000000000000e+00,-1.000000000000000000e+00,3.446044921875000000e-01,1.683349609375000000e-01,-9.230957031250000000e-01,-2.850341796875000000e-02
3.000000000000000000e+00,-9.000000000000000000e+00,-5.000000000000000000e+00,-9.000000000000000000e+00,-3.000000000000000000e+00,-3.000000000000000000e+00,-6.000000000000000000e+00,-1.000000000000000000e+00,3.444824218750000000e-01,1.682128906250000000e-01,-9.231567382812500000e-01,-2.832031250000000000e-02
-5.000000000000000000e+00,-2.000000000000000000e+00,6.000000000000000000e+00,1.000000000000000000e+00,-3.000000000000000000e+00,-3.000000000000000000e+00,-4.000000000000000000e+00,-2.000000000000000000e+00,3.444824218750000000e-01,1.682128906250000000e-01,-9.231567382812500000e-01,-2.832031250000000000e-02
2.000000000000000000e+00,8.000000000000000000e+00,5.000000000000000000e+00,1.000000000000000000e+00,-1.000000000000000000e+00,-2.000000000000000000e+00,-3.000000000000000000e+00,-2.000000000000000000e+00,3.444824218750000000e-01,1.682128906250000000e-01,-9.231567382812500000e-01,-2.832031250000000000e-02
4.000000000000000000e+00,1.000000000000000000e+01,1.500000000000000000e+01,6.000000000000000000e+00,-2.000000000000000000e+00,1.000000000000000000e+00,3.000000000000000000e+00,2.000000000000000000e+00,3.444824218750000000e-01,1.682128906250000000e-01,-9.231567382812500000e-01,-2.832031250000000000e-02
3.000000000000000000e+00,-7.000000000000000000e+00,-5.000000000000000000e+01,-1.700000000000000000e+01,-1.000000000000000000e+00,1.000000000000000000e+00,-1.000000000000000000e+00,-4.000000000000000000e+00,3.441772460937500000e-01,1.683959960937500000e-01,-9.232788085937500000e-01,-2.801513671875000000e-02
7.000000000000000000e+00,-7.000000000000000000e+00,2.200000000000000000e+01,4.000000000000000000e+00,1.000000000000000000e+00,0.000000000000000000e+00,0.000000000000000000e+00,-2.000000000000000000e+00,3.441772460937500000e-01,1.683959960937500000e-01,-9.232788085937500000e-01,-2.801513671875000000e-02
-8.000000000000000000e+00,-1.000000000000000000e+01,-8.000000000000000000e+00,-1.000000000000000000e+00,-1.000000000000000000e+00,-1.000000000000000000e+00,0.000000000000000000e+00,-1.000000000000000000e+00,3.441772460937500000e-01,1.683959960937500000e-01,-9.232788085937500000e-01,-2.801513671875000000e-02
-5.000000000000000000e+00,8.000000000000000000e+00,7.000000000000000000e+00,-2.000000000000000000e+00,-3.000000000000000000e+00,-3.000000000000000000e+00,-1.000000000000000000e+00,-1.000000000000000000e+00,3.441772460937500000e-01,1.683959960937500000e-01,-9.232788085937500000e-01,-2.801513671875000000e-02
8.000000000000000000e+00,6.000000000000000000e+00,-8.000000000000000000e+00,4.000000000000000000e+00,1.000000000000000000e+00,2.000000000000000000e+00,3.000000000000000000e+00,1.000000000000000000e+00,3.439941406250000000e-01,1.685791015625000000e-01,-9.233398437500000000e-01,-2.777099609375000000e-02
-2.100000000000000000e+01,-5.000000000000000000e+00,-2.000000000000000000e+01,-1.300000000000000000e+01,-8.000000000000000000e+00,-3.000000000000000000e+00,-1.000000000000000000e+00,-2.000000000000000000e+00,3.439941406250000000e-01,1.685791015625000000e-01,-9.233398437500000000e-01,-2.777099609375000000e-02
3.000000000000000000e+00,-1.000000000000000000e+00,1.200000000000000000e+01,-2.000000000000000000e+00,-2.000000000000000000e+00,1.000000000000000000e+00,-1.000000000000000000e+00,0.000000000000000000e+00,3.439941406250000000e-01,1.685791015625000000e-01,-9.233398437500000000e-01,-2.777099609375000000e-02
1.000000000000000000e+00,3.000000000000000000e+00,1.000000000000000000e+00,3.000000000000000000e+00,5.000000000000000000e+00,1.000000000000000000e+00,3.000000000000000000e+00,1.000000000000000000e+00,3.439941406250000000e-01,1.685791015625000000e-01,-9.233398437500000000e-01,-2.777099609375000000e-02
-2.100000000000000000e+01,-1.200000000000000000e+01,9.000000000000000000e+00,-2.000000000000000000e+00,-1.000000000000000000e+00,-2.000000000000000000e+00,-4.000000000000000000e+00,-2.000000000000000000e+00,3.438720703125000000e-01,1.684570312500000000e-01,-9.234008789062500000e-01,-2.770996093750000000e-02
3.000000000000000000e+00,0.000000000000000000e+00,-5.000000000000000000e+00,0.000000000000000000e+00,-2.000000000000000000e+00,-1.000000000000000000e+00,3.000000000000000000e+00,-2.000000000000000000e+00,3.438720703125000000e-01,1.684570312500000000e-01,-9.234008789062500000e-01,-2.770996093750000000e-02
1.000000000000000000e+01,1.000000000000000000e+01,-2.000000000000000000e+00,-1.000000000000000000e+00,-1.000000000000000000e+00,-1.000000000000000000e+00,-2.000000000000000000e+00,-2.000000000000000000e+00,3.438720703125000000e-01,1.684570312500000000e-01,-9.234008789062500000e-01,-2.770996093750000000e-02
-2.000000000000000000e+00,-7.000000000000000000e+00,-1.800000000000000000e+01,-5.000000000000000000e+00,-2.000000000000000000e+00,-2.000000000000000000e+00,-1.000000000000000000e+00,-3.000000000000000000e+00,3.438720703125000000e-01,1.684570312500000000e-01,-9.234008789062500000e-01,-2.770996093750000000e-02
-4.000000000000000000e+00,-8.000000000000000000e+00,1.100000000000000000e+01,3.000000000000000000e+00,1.000000000000000000e+00,-2.000000000000000000e+00,0.000000000000000000e+00,-2.000000000000000000e+00,3.439331054687500000e-01,1.683349609375000000e-01,-9.234008789062500000e-01,-2.777099609375000000e-02
3.000000000000000000e+00,-5.000000000000000000e+00,-2.000000000000000000e+00,-2.000000000000000000e+00,-5.000000000000000000e+00,-2.000000000000000000e+00,-6.000000000000000000e+00,-1.000000000000000000e+00,3.439331054687500000e-01,1.683349609375000000e-01,-9.234008789062500000e-01,-2.777099609375000000e-02
-1.000000000000000000e+00,1.400000000000000000e+01,3.000000000000000000e+00,1.000000000000000000e+00,0.000000000000000000e+00,-1.000000000000000000e+00,-2.000000000000000000e+00,0.000000000000000000e+00,3.439331054687500000e-01,1.683349609375000000e-01,-9.234008789062500000e-01,-2.777099609375000000e-02
8.000000000000000000e+00,-7.000000000000000000e+00,-1.600000000000000000e+01,-6.000000000000000000e+00,-3.000000000000000000e+00,-1.000000000000000000e+00,-1.000000000000000000e+00,0.000000000000000000e+00,3.439331054687500000e-01,1.683349609375000000e-01,-9.234008789062500000e-01,-2.777099609375000000e-02
-1.600000000000000000e+01,1.000000000000000000e+00,1.900000000000000000e+01,1.000000000000000000e+01,1.000000000000000000e+00,-2.000000000000000000e+00,-2.000000000000000000e+00,-2.000000000000000000e+00,3.440551757812500000e-01,1.682128906250000000e-01,-9.233398437500000000e-01,-2.789306640625000000e-02
1.000000000000000000e+00,-4.000000000000000000e+00,2.000000000000000000e+00,0.000000000000000000e+00,-3.000000000000000000e+00,-4.000000000000000000e+00,-3.000000000000000000e+00,0.000000000000000000e+00,3.440551757812500000e-01,1.682128906250000000e-01,-9.233398437500000000e-01,-2.789306640625000000e-02
-2.000000000000000000e+00,5.000000000000000000e+00,-3.000000000000000000e+00,-1.000000000000000000e+00,1.000000000000000000e+00,-2.000000000000000000e+00,-1.000000000000000000e+00,-1.000000000000000000e+00,3.440551757812500000e-01,1.682128906250000000e-01,-9.233398437500000000e-01,-2.789306640625000000e-02
0.000000000000000000e+00,-1.100000000000000000e+01,0.000000000000000000e+00,-4.000000000000000000e+00,-2.000000000000000000e+00,-1.000000000000000000e+00,-2.000000000000000000e+00,-3.000000000000000000e+00,3.440551757812500000e-01,1.682128906250000000e-01,-9.233398437500000000e-01,-2.789306640625000000e-02
3.000000000000000000e+00,9.000000000000000000e+00,2.900000000000000000e+01,7.000000000000000000e+00,2.000000000000000000e+00,2.000000000000000000e+00,4.000000000000000000e+00,0.000000000000000000e+00,3.441772460937500000e-01,1.683349609375000000e-01,-9.232788085937500000e-01,-2.795410156250000000e-02
1.000000000000000000e+00,0.000000000000000000e+00,-2.500000000000000000e+01,-4.000000000000000000e+00,0.000000000000000000e+00,-2.000000000000000000e+00,-1.000000000000000000e+00,-1.000000000000000000e+00,3.441772460937500000e-01,1.683349609375000000e-01,-9.232788085937500000e-01,-2.795410156250000000e-02
1.000000000000000000e+01,0.000000000000000000e+00,-5.000000000000000000e+00,2.000000000000000000e+00,-3.000000000000000000e+00,-1.000000000000000000e+00,0.000000000000000000e+00,0.000000000000000000e+00,3.441772460937500000e-01,1.683349609375000000e-01,-9.232788085937500000e-01,-2.795410156250000000e-02
-1.700000000000000000e+01,-2.000000000000000000e+00,6.000000000000000000e+00,-5.000000000000000000e+00,-1.000000000000000000e+00,-3.000000000000000000e+00,-1.000000000000000000e+00,-1.000000000000000000e+00,3.441772460937500000e-01,1.683349609375000000e-01,-9.232788085937500000e-01,-2.795410156250000000e-02
2.000000000000000000e+00,-8.000000000000000000e+00,8.000000000000000000e+00,-4.000000000000000000e+00,0.000000000000000000e+00,0.000000000000000000e+00,-3.000000000000000000e+00,-1.000000000000000000e+00,3.441772460937500000e-01,1.687622070312500000e-01,-9.232177734375000000e-01,-2.801513671875000000e-02
4.000000000000000000e+00,1.200000000000000000e+01,2.600000000000000000e+01,2.000000000000000000e+00,0.000000000000000000e+00,0.000000000000000000e+00,0.000000000000000000e+00,3.000000000000000000e+00,3.441772460937500000e-01,1.687622070312500000e-01,-9.232177734375000000e-01,-2.801513671875000000e-02
-2.000000000000000000e+00,-8.000000000000000000e+00,-1.200000000000000000e+01,-4.000000000000000000e+00,-2.000000000000000000e+00,-1.000000000000000000e+00,-2.000000000000000000e+00,0.000000000000000000e+00,3.441772460937500000e-01,1.687622070312500000e-01,-9.232177734375000000e-01,-2.801513671875000000e-02
6.000000000000000000e+00,4.000000000000000000e+00,6.000000000000000000e+00,1.300000000000000000e+01,3.000000000000000000e+00,-1.000000000000000000e+00,-3.000000000000000000e+00,-1.000000000000000000e+00,3.441772460937500000e-01,1.687622070312500000e-01,-9.232177734375000000e-01,-2.801513671875000000e-02
-1.200000000000000000e+01,8.000000000000000000e+00,-2.900000000000000000e+01,-8.000000000000000000e+00,-2.000000000000000000e+00,-1.000000000000000000e+00,-2.000000000000000000e+00,0.000000000000000000e+00,3.441162109375000000e-01,1.689453125000000000e-01,-9.231567382812500000e-01,-2.838134765625000000e-02
1.000000000000000000e+00,-2.000000000000000000e+00,2.600000000000000000e+01,-3.000000000000000000e+00,-3.000000000000000000e+00,-2.000000000000000000e+00,-8.000000000000000000e+00,-2.000000000000000000e+00,3.441162109375000000e-01,1.689453125000000000e-01,-9.231567382812500000e-01,-2.838134765625000000e-02
-7.000000000000000000e+00,-1.900000000000000000e+01,-7.000000000000000000e+00,-1.100000000000000000e+01,-6.000000000000000000e+00,-4.000000000000000000e+00,5.000000000000000000e+00,-3.000000000000000000e+00,3.441162109375000000e-01,1.689453125000000000e-01,-9.231567382812500000e-01,-2.838134765625000000e-02
-2.000000000000000000e+00,2.000000000000000000e+00,1.000000000000000000e+00,0.000000000000000000e+00,-2.000000000000000000e+00,-1.000000000000000000e+00,-1.000000000000000000e+00,-1.000000000000000000e+00,3.441162109375000000e-01,1.689453125000000000e-01,-9.231567382812500000e-01,-2.838134765625000000e-02
8.000000000000000000e+00,7.000000000000000000e+00,0.000000000000000000e+00,0.000000000000000000e+00,-1.000000000000000000e+00,-1.000000000000000000e+00,-2.000000000000000000e+00,-1.000000000000000000e+00,3.440551757812500000e-01,1.688232421875000000e-01,-9.232177734375000000e-01,-2.893066406250000000e-02
4.000000000000000000e+00,8.000000000000000000e+00,-4.000000000000000000e+00,2.000000000000000000e+00,2.000000000000000000e+00,1.000000000000000000e+00,0.000000000000000000e+00,0.000000000000000000e+00,3.440551757812500000e-01,1.688232421875000000e-01,-9.232177734375000000e-01,-2.893066406250000000e-02
-6.000000000000000000e+00,-2.000000000000000000e+00,0.000000000000000000e+00,3.000000000000000000e+00,0.000000000000000000e+00,0.000000000000000000e+00,0.000000000000000000e+00,1.000000000000000000e+00,3.440551757812500000e-01,1.688232421875000000e-01,-9.232177734375000000e-01,-2.893066406250000000e-02
-2.000000000000000000e+00,-1.000000000000000000e+00,2.000000000000000000e+00,-7.000000000000000000e+00,-5.000000000000000000e+00,-3.000000000000000000e+00,-2.000000000000000000e+00,0.000000000000000000e+00,3.440551757812500000e-01,1.688232421875000000e-01,-9.232177734375000000e-01,-2.893066406250000000e-02
-5.000000000000000000e+00,-4.000000000000000000e+00,-1.700000000000000000e+01,-3.000000000000000000e+00,-3.000000000000000000e+00,-2.000000000000000000e+00,1.000000000000000000e+00,1.000000000000000000e+00,3.441162109375000000e-01,1.686401367187500000e-01,-9.232177734375000000e-01,-2.929687500000000000e-02
-2.000000000000000000e+00,-5.000000000000000000e+00,-2.900000000000000000e+01,-4.000000000000000000e+00,-2.000000000000000000e+00,-1.000000000000000000e+00,-1.000000000000000000e+00,-2.000000000000000000e+00,3.441162109375000000e-01,1.686401367187500000e-01,-9.232177734375000000e-01,-2.929687500000000000e-02
-1.300000000000000000e+01,-1.100000000000000000e+01,5.000000000000000000e+00,0.000000000000000000e+00,2.000000000000000000e+00,0.000000000000000000e+00,-6.000000000000000000e+00,-3.000000000000000000e+00,3.441162109375000000e-01,1.686401367187500000e-01,-9.232177734375000000e-01,-2.929687500000000000e-02
4.000000000000000000e+00,0.000000000000000000e+00,-2.000000000000000000e+00,-3.000000000000000000e+00,-1.000000000000000000e+00,0.000000000000000000e+00,5.000000000000000000e+00,1.000000000000000000e+00,3.441162109375000000e-01,1.686401367187500000e-01,-9.232177734375000000e-01,-2.929687500000000000e-02
6.000000000000000000e+00,1.000000000000000000e+00,-5.000000000000000000e+00,1.000000000000000000e+00,3.000000000000000000e+00,0.000000000000000000e+00,0.000000000000000000e+00,2.000000000000000000e+00,3.442993164062500000e-01,1.682739257812500000e-01,-9.232177734375000000e-01,-2.941894531250000000e-02
4.000000000000000000e+00,-8.000000000000000000e+00,-3.000000000000000000e+00,4.000000000000000000e+00,-2.000000000000000000e+00,-1.000000000000000000e+00,1.000000000000000000e+00,-1.000000000000000000e+00,3.442993164062500000e-01,1.682739257812500000e-01,-9.232177734375000000e-01,-2.941894531250000000e-02
-4.000000000000000000e+00,6.000000000000000000e+00,4.000000000000000000e+00,-2.000000000000000000e+00,0.000000000000000000e+00,-2.000000000000000000e+00,-1.000000000000000000e+00,0.000000000000000000e+00,3.442993164062500000e-01,1.682739257812500000e-01,-9.232177734375000000e-01,-2.941894531250000000e-02
-2.000000000000000000e+00,-8.000000000000000000e+00,-3.000000000000000000e+00,-3.000000000000000000e+00,-4.000000000000000000e+00,-1.000000000000000000e+00,0.000000000000000000e+00,0.000000000000000000e+00,3.442993164062500000e-01,1.682739257812500000e-01,-9.232177734375000000e-01,-2.941894531250000000e-02
6.000000000000000000e+00,4.000000000000000000e+00,3.000000000000000000e+00,0.000000000000000000e+00,1.000000000000000000e+00,2.000000000000000000e+00,0.000000000000000000e+00,-2.000000000000000000e+00,3.443603515625000000e-01,1.682739257812500000e-01,-9.231567382812500000e-01,-2.941894531250000000e-02
-2.000000000000000000e+00,-2.000000000000000000e+00,-1.000000000000000000e+01,-8.000000000000000000e+00,-3.000000000000000000e+00,-3.000000000000000000e+00,3.000000000000000000e+00,2.000000000000000000e+00,3.443603515625000000e-01,1.682739257812500000e-01,-9.231567382812500000e-01,-2.941894531250000000e-02
1.100000000000000000e+01,7.000000000000000000e+00,-1.900000000000000000e+01,4.000000000000000000e+00,0.000000000000000000e+00,-1.000000000000000000e+00,-1.000000000000000000e+00,0.000000000000000000e+00,3.443603515625000000e-01,1.682739257812500000e-01,-9.231567382812500000e-01,-2.941894531250000000e-02
-3.000000000000000000e+01,-1.100000000000000000e+01,-9.000000000000000000e+00,-2.000000000000000000e+00,2.000000000000000000e+00,0.000000000000000000e+00,-3.000000000000000000e+00,-2.000000000000000000e+00,3.443603515625000000e-01,1.682739257812500000e-01,-9.231567382812500000e-01,-2.941894531250000000e-02
1.200000000000000000e+01,9.000000000000000000e+00,4.500000000000000000e+01,1.000000000000000000e+00,-4.000000000000000000e+00,-6.000000000000000000e+00,0.000000000000000000e+00,1.000000000000000000e+00,3.443603515625000000e-01,1.682739257812500000e-01,-9.231567382812500000e-01,-2.941894531250000000e-02
-1.600000000000000000e+01,-1.400000000000000000e+01,-3.400000000000000000e+01,-8.000000000000000000e+00,-3.000000000000000000e+00,-2.000000000000000000e+00,0.000000000000000000e+00,-5.000000000000000000e+00,3.443603515625000000e-01,1.682739257812500000e-01,-9.231567382812500000e-01,-2.941894531250000000e-02
5.000000000000000000e+00,1.100000000000000000e+01,9.000000000000000000e+00,3.000000000000000000e+00,-3.000000000000000000e+00,-1.000000000000000000e+00,-3.000000000000000000e+00,-3.000000000000000000e+00,3.443603515625000000e-01,1.682739257812500000e-01,-9.231567382812500000e-01,-2.941894531250000000e-02
-2.000000000000000000e+00,-4.000000000000000000e+00,-1.000000000000000000e+01,5.000000000000000000e+00,4.000000000000000000e+00,1.000000000000000000e+00,3.000000000000000000e+00,-1.000000000000000000e+00,3.443603515625000000e-01,1.682739257812500000e-01,-9.231567382812500000e-01,-2.941894531250000000e-02
2.000000000000000000e+00,-2.000000000000000000e+00,-5.000000000000000000e+00,3.000000000000000000e+00,0.000000000000000000e+00,1.000000000000000000e+00,-2.000000000000000000e+00,-1.000000000000000000e+00,3.446044921875000000e-01,1.682128906250000000e-01,-9.230957031250000000e-01,-2.966308593750000000e-02
4.000000000000000000e+00,-2.000000000000000000e+00,6.000000000000000000e+00,-1.000000000000000000e+00,-2.000000000000000000e+00,-1.000000000000000000e+00,-2.000000000000000000e+00,-2.000000000000000000e+00,3.446044921875000000e-01,1.682128906250000000e-01,-9.230957031250000000e-01,-2.966308593750000000e-02
-6.000000000000000000e+00,-1.000000000000000000e+00,-2.000000000000000000e+00,-4.000000000000000000e+00,-5.000000000000000000e+00,-3.000000000000000000e+00,0.000000000000000000e+00,0.000000000000000000e+00,3.446044921875000000e-01,1.682128906250000000e-01,-9.230957031250000000e-01,-2.966308593750000000e-02
1.700000000000000000e+01,1.500000000000000000e+01,-2.000000000000000000e+00,-4.000000000000000000e+00,4.000000000000000000e+00,-2.000000000000000000e+00,-2.000000000000000000e+00,-1.000000000000000000e+00,3.446044921875000000e-01,1.682128906250000000e-01,-9.230957031250000000e-01,-2.966308593750000000e-02
-3.500000000000000000e+01,-1.800000000000000000e+01,-1.100000000000000000e+01,-6.000000000000000000e+00,-2.000000000000000000e+00,-1.000000000000000000e+00,-5.000000000000000000e+00,-3.000000000000000000e+00,3.447265625000000000e-01,1.679077148437500000e-01,-9.230957031250000000e-01,-3.015136718750000000e-02
0.000000000000000000e+00,7.000000000000000000e+00,7.000000000000000000e+00,3.000000000000000000e+00,-3.000000000000000000e+00,0.000000000000000000e+00,4.000000000000000000e+00,-2.000000000000000000e+00,3.447265625000000000e-01,1.679077148437500000e-01,-9.230957031250000000e-01,-3.015136718750000000e-02
2.000000000000000000e+00,-8.000000000000000000e+00,-7.000000000000000000e+00,3.000000000000000000e+00,4.000000000000000000e+00,1.000000000000000000e+00,-2.000000000000000000e+00,-1.000000000000000000e+00,3.447265625000000000e-01,1.679077148437500000e-01,-9.230957031250000000e-01,-3.015136718750000000e-02
9.000000000000000000e+00,9.000000000000000000e+00,5.000000000000000000e+00,-6.000000000000000000e+00,1.000000000000000000e+00,1.000000000000000000e+00,-1.000000000000000000e+00,0.000000000000000000e+00,3.447265625000000000e-01,1.679077148437500000e-01,-9.230957031250000000e-01,-3.015136718750000000e-02
1.000000000000000000e+01,8.000000000000000000e+00,1.900000000000000000e+01,4.000000000000000000e+00,-3.000000000000000000e+00,-2.000000000000000000e+00,0.000000000000000000e+00,0.000000000000000000e+00,3.448486328125000000e-01,1.675415039062500000e-01,-9.230957031250000000e-01,-3.039550781250000000e-02
-5.000000000000000000e+00,-1.400000000000000000e+01,-4.300000000000000000e+01,-8.000000000000000000e+00,2.000000000000000000e+00,0.000000000000000000e+00,-2.000000000000000000e+00,0.000000000000000000e+00,3.448486328125000000e-01,1.675415039062500000e-01,-9.230957031250000000e-01,-3.039550781250000000e-02
-4.000000000000000000e+00,-6.000000000000000000e+00,2.000000000000000000e+00,2.000000000000000000e+00,-2.000000000000000000e+00,-1.000000000000000000e+00,-4.000000000000000000e+00,-3.000000000000000000e+00,3.448486328125000000e-01,1.675415039062500000e-01,-9.230957031250000000e-01,-3.039550781250000000e-02
-3.000000000000000000e+00,-4.000000000000000000e+00,0.000000000000000000e+00,0.000000000000000000e+00,0.000000000000000000e+00,0.000000000000000000e+00,-1.000000000000000000e+00,0.000000000000000000e+00,3.448486328125000000e-01,1.675415039062500000e-01,-9.230957031250000000e-01,-3.039550781250000000e-02
8.000000000000000000e+00,4.000000000000000000e+00,-1.000000000000000000e+00,-3.000000000000000000e+00,-3.000000000000000000e+00,-2.000000000000000000e+00,0.000000000000000000e+00,1.000000000000000000e+00,3.449096679687500000e-01,1.675415039062500000e-01,-9.230957031250000000e-01,-3.039550781250000000e-02
-2.000000000000000000e+00,0.000000000000000000e+00,-2.500000000000000000e+01,1.000000000000000000e+00,-3.000000000000000000e+00,-2.000000000000000000e+00,-3.000000000000000000e+00,-3.000000000000000000e+00,3.449096679687500000e-01,1.675415039062500000e-01,-9.230957031250000000e-01,-3.039550781250000000e-02
3.000000000000000000e+00,4.000000000000000000e+00,-1.000000000000000000e+00,-3.000000000000000000e+00,0.000000000000000000e+00,0.000000000000000000e+00,0.000000000000000000e+00,-2.000000000000000000e+00,3.449096679687500000e-01,1.675415039062500000e-01,-9.230957031250000000e-01,-3.039550781250000000e-02
-6.000000000000000000e+00,-8.000000000000000000e+00,0.000000000000000000e+00,-1.000000000000000000e+00,-5.000000000000000000e+00,-2.000000000000000000e+00,-5.000000000000000000e+00,-4.000000000000000000e+00,3.449096679687500000e-01,1.675415039062500000e-01,-9.230957031250000000e-01,-3.039550781250000000e-02
-2.000000000000000000e+00,2.000000000000000000e+00,-3.000000000000000000e+00,-1.000000000000000000e+00,-2.000000000000000000e+00,-1.000000000000000000e+00,-2.000000000000000000e+00,0.000000000000000000e+00,3.450927734375000000e-01,1.680908203125000000e-01,-9.229125976562500000e-01,-2.984619140625000000e-02
4.000000000000000000e+00,7.000000000000000000e+00,1.700000000000000000e+01,-4.000000000000000000e+00,-2.000000000000000000e+00,1.000000000000000000e+00,-1.000000000000000000e+00,1.000000000000000000e+00,3.450927734375000000e-01,1.680908203125000000e-01,-9.229125976562500000e-01,-2.984619140625000000e-02
6.000000000000000000e+00,-1.400000000000000000e+01,-2.000000000000000000e+01,4.000000000000000000e+00,0.000000000000000000e+00,1.000000000000000000e+00,2.000000000000000000e+00,1.000000000000000000e+00,3.450927734375000000e-01,1.680908203125000000e-01,-9.229125976562500000e-01,-2.984619140625000000e-02
-3.000000000000000000e+01,-4.000000000000000000e+00,2.000000000000000000e+00,4.000000000000000000e+00,7.000000000000000000e+00,-2.000000000000000000e+00,-2.000000000000000000e+00,-3.000000000000000000e+00,3.450927734375000000e-01,1.680908203125000000e-01,-9.229125976562500000e-01,-2.984619140625000000e-02
