4.000000000000000000e+00,-4.000000000000000000e+00,3.000000000000000000e+01,5.600000000000000000e+01,1.000000000000000000e+01,2.000000000000000000e+00,3.000000000000000000e+00,-1.000000000000000000e+00,-4.309082031250000000e-01,6.347656250000000000e-03,8.567504882812500000e-01,2.832031250000000000e-01
4.000000000000000000e+00,-5.000000000000000000e+00,-4.100000000000000000e+01,-2.500000000000000000e+01,-1.600000000000000000e+01,-7.000000000000000000e+00,-1.000000000000000000e+00,-1.000000000000000000e+00,-4.309082031250000000e-01,6.347656250000000000e-03,8.567504882812500000e-01,2.832031250000000000e-01
-6.000000000000000000e+00,2.000000000000000000e+00,8.000000000000000000e+00,0.000000000000000000e+00,-2.000000000000000000e+00,4.000000000000000000e+00,5.000000000000000000e+00,0.000000000000000000e+00,-4.307861328125000000e-01,6.225585937500000000e-03,8.565673828125000000e-01,2.838745117187500000e-01
2.000000000000000000e+00,0.000000000000000000e+00,1.600000000000000000e+01,-4.000000000000000000e+00,-3.000000000000000000e+00,-3.000000000000000000e+00,-2.000000000000000000e+00,-2.000000000000000000e+00,-4.307861328125000000e-01,6.225585937500000000e-03,8.565673828125000000e-01,2.838745117187500000e-01
-4.000000000000000000e+00,0.000000000000000000e+00,-6.000000000000000000e+00,-7.000000000000000000e+00,-1.000000000000000000e+00,1.000000000000000000e+00,-2.100000000000000000e+01,-3.000000000000000000e+00,-4.307861328125000000e-01,6.225585937500000000e-03,8.565673828125000000e-01,2.838745117187500000e-01
1.000000000000000000e+00,1.000000000000000000e+00,2.800000000000000000e+01,-8.000000000000000000e+00,-3.000000000000000000e+00,-1.000000000000000000e+00,6.000000000000000000e+00,-1.000000000000000000e+00,-4.307861328125000000e-01,6.225585937500000000e-03,8.565673828125000000e-01,2.838745117187500000e-01
-9.000000000000000000e+00,-1.200000000000000000e+01,-6.400000000000000000e+01,-2.200000000000000000e+01,-1.100000000000000000e+01,-4.000000000000000000e+00,-1.700000000000000000e+01,-5.000000000000000000e+00,-4.303588867187500000e-01,5.615234375000000000e-03,8.567504882812500000e-01,2.839965820312500000e-01
1.000000000000000000e+00,-2.000000000000000000e+00,1.800000000000000000e+01,3.400000000000000000e+01,2.400000000000000000e+01,1.000000000000000000e+00,-3.000000000000000000e+00,0.000000000000000000e+00,-4.303588867187500000e-01,5.615234375000000000e-03,8.567504882812500000e-01,2.839965820312500000e-01
1.000000000000000000e+01,6.000000000000000000e+00,-1.300000000000000000e+01,-2.400000000000000000e+01,-7.000000000000000000e+00,2.000000000000000000e+00,-1.000000000000000000e+01,-4.000000000000000000e+00,-4.303588867187500000e-01,5.615234375000000000e-03,8.567504882812500000e-01,2.839965820312500000e-01
-2.000000000000000000e+01,-2.000000000000000000e+00,2.600000000000000000e+01,1.500000000000000000e+01,1.700000000000000000e+01,3.000000000000000000e+00,9.000000000000000000e+00,-1.000000000000000000e+00,-4.303588867187500000e-01,5.615234375000000000e-03,8.567504882812500000e-01,2.839965820312500000e-01
1.500000000000000000e+01,3.000000000000000000e+00,1.000000000000000000e+01,-1.200000000000000000e+01,2.000000000000000000e+00,3.000000000000000000e+00,1.100000000000000000e+01,2.000000000000000000e+00,-4.301757812500000000e-01,5.432128906250000000e-03,8.569335937500000000e-01,2.839355468750000000e-01
-2.500000000000000000e+01,-2.000000000000000000e+00,-3.200000000000000000e+01,-1.100000000000000000e+01,-1.000000000000000000e+01,-8.000000000000000000e+00,2.000000000000000000e+00,-5.000000000000000000e+00,-4.301757812500000000e-01,5.432128906250000000e-03,8.569335937500000000e-01,2.839355468750000000e-01
-9.000000000000000000e+00,-1.000000000000000000e+00,-7.000000000000000000e+00,-1.000000000000000000e+00,-4.000000000000000000e+00,3.000000000000000000e+00,2.000000000000000000e+00,-1.000000000000000000e+00,-4.301757812500000000e-01,5.432128906250000000e-03,8.569335937500000000e-01,2.839355468750000000e-01
1.200000000000000000e+01,5.000000000000000000e+00,0.000000000000000000e+00,9.000000000000000000e+00,3.000000000000000000e+00,2.000000000000000000e+00,4.000000000000000000e+00,1.000000000000000000e+00,-4.301757812500000000e-01,5.432128906250000000e-03,8.569335937500000000e-01,2.839355468750000000e-01
0.000000000000000000e+00,0.000000000000000000e+00,5.000000000000000000e+00,-5.000000000000000000e+00,-5.000000000000000000e+00,-1.800000000000000000e+01,0.000000000000000000e+00,-2.000000000000000000e+00,-4.300537109375000000e-01,5.371093750000000000e-03,8.569946289062500000e-01,2.838134765625000000e-01
7.000000000000000000e+00,-3.000000000000000000e+00,-4.000000000000000000e+00,-1.100000000000000000e+01,-4.000000000000000000e+00,1.800000000000000000e+01,4.000000000000000000e+00,2.000000000000000000e+00,-4.300537109375000000e-01,5.371093750000000000e-03,8.569946289062500000e-01,2.838134765625000000e-01
-3.000000000000000000e+01,-1.100000000000000000e+01,-6.000000000000000000e+00,-3.000000000000000000e+00,9.000000000000000000e+00,-4.000000000000000000e+00,2.000000000000000000e+00,-2.000000000000000000e+00,-4.300537109375000000e-01,5.371093750000000000e-03,8.569946289062500000e-01,2.838134765625000000e-01
1.000000000000000000e+00,-1.000000000000000000e+00,6.000000000000000000e+00,-9.000000000000000000e+00,-1.000000000000000000e+01,9.000000000000000000e+00,-1.100000000000000000e+01,-3.000000000000000000e+00,-4.300537109375000000e-01,5.371093750000000000e-03,8.569946289062500000e-01,2.838134765625000000e-01
1.000000000000000000e+00,5.000000000000000000e+00,1.600000000000000000e+01,1.200000000000000000e+01,0.000000000000000000e+00,-5.000000000000000000e+00,-1.100000000000000000e+01,2.000000000000000000e+00,-4.302368164062500000e-01,5.676269531250000000e-03,8.568725585937500000e-01,2.838745117187500000e-01
4.000000000000000000e+00,1.000000000000000000e+00,1.500000000000000000e+01,6.000000000000000000e+00,2.000000000000000000e+00,-2.000000000000000000e+00,-1.000000000000000000e+00,1.000000000000000000e+00,-4.302368164062500000e-01,5.676269531250000000e-03,8.568725585937500000e-01,2.838745117187500000e-01
2.000000000000000000e+00,-2.000000000000000000e+00,-1.000000000000000000e+00,4.400000000000000000e+01,9.000000000000000000e+00,1.000000000000000000e+00,1.600000000000000000e+01,3.000000000000000000e+00,-4.302368164062500000e-01,5.676269531250000000e-03,8.568725585937500000e-01,2.838745117187500000e-01
6.000000000000000000e+00,1.000000000000000000e+00,-1.000000000000000000e+00,-2.100000000000000000e+01,-9.000000000000000000e+00,-6.000000000000000000e+00,-7.000000000000000000e+00,-1.000000000000000000e+00,-4.302368164062500000e-01,5.676269531250000000e-03,8.568725585937500000e-01,2.838745117187500000e-01
-1.500000000000000000e+01,-5.000000000000000000e+00,-3.300000000000000000e+01,-8.000000000000000000e+00,-1.900000000000000000e+01,4.000000000000000000e+00,1.000000000000000000e+00,-2.000000000000000000e+00,-4.306030273437500000e-01,6.591796875000000000e-03,8.565063476562500000e-01,2.843627929687500000e-01
0.000000000000000000e+00,3.000000000000000000e+00,3.000000000000000000e+01,8.000000000000000000e+00,3.000000000000000000e+00,-3.000000000000000000e+00,-9.000000000000000000e+00,-2.000000000000000000e+00,-4.306030273437500000e-01,6.591796875000000000e-03,8.565063476562500000e-01,2.843627929687500000e-01
-1.000000000000000000e+00,2.000000000000000000e+00,4.000000000000000000e+00,1.800000000000000000e+01,3.000000000000000000e+00,3.000000000000000000e+00,2.000000000000000000e+01,4.000000000000000000e+00,-4.306030273437500000e-01,6.591796875000000000e-03,8.565063476562500000e-01,2.843627929687500000e-01
1.400000000000000000e+01,3.000000000000000000e+00,-3.900000000000000000e+01,-5.200000000000000000e+01,-1.400000000000000000e+01,-1.300000000000000000e+01,0.000000000000000000e+00,2.000000000000000000e+00,-4.306030273437500000e-01,6.591796875000000000e-03,8.565063476562500000e-01,2.843627929687500000e-01
-2.000000000000000000e+01,-3.000000000000000000e+00,2.300000000000000000e+01,5.400000000000000000e+01,1.400000000000000000e+01,3.000000000000000000e+00,-3.000000000000000000e+00,-3.000000000000000000e+00,-4.312744140625000000e-01,7.263183593750000000e-03,8.561401367187500000e-01,2.845458984375000000e-01
6.000000000000000000e+00,-1.000000000000000000e+00,2.000000000000000000e+00,-3.400000000000000000e+01,-1.800000000000000000e+01,-6.000000000000000000e+00,4.000000000000000000e+00,-1.000000000000000000e+00,-4.312744140625000000e-01,7.263183593750000000e-03,8.561401367187500000e-01,2.845458984375000000e-01
-1.000000000000000000e+01,1.000000000000000000e+00,-3.000000000000000000e+00,-4.000000000000000000e+00,9.000000000000000000e+00,0.000000000000000000e+00,-4.000000000000000000e+00,-4.000000000000000000e+00,-4.312744140625000000e-01,7.263183593750000000e-03,8.561401367187500000e-01,2.845458984375000000e-01
1.100000000000000000e+01,-8.000000000000000000e+00,-1.600000000000000000e+01,-6.000000000000000000e+00,-2.000000000000000000e+00,-1.000000000000000000e+00,-2.000000000000000000e+00,1.000000000000000000e+00,-4.312744140625000000e-01,7.263183593750000000e-03,8.561401367187500000e-01,2.845458984375000000e-01
-1.400000000000000000e+01,-2.000000000000000000e+00,-2.000000000000000000e+00,-2.900000000000000000e+01,0.000000000000000000e+00,3.000000000000000000e+00,-1.600000000000000000e+01,-5.000000000000000000e+00,-4.316406250000000000e-01,7.385253906250000000e-03,8.560180664062500000e-01,2.843017578125000000e-01
4.000000000000000000e+00,-1.000000000000000000e+00,9.000000000000000000e+00,5.000000000000000000e+00,0.000000000000000000e+00,-4.000000000000000000e+00,3.000000000000000000e+00,-1.000000000000000000e+00,-4.316406250000000000e-01,7.385253906250000000e-03,8.560180664062500000e-01,2.843017578125000000e-01
8.000000000000000000e+00,2.000000000000000000e+00,1.200000000000000000e+01,5.000000000000000000e+00,-2.000000000000000000e+00,-6.000000000000000000e+00,5.000000000000000000e+00,-2.000000000000000000e+00,-4.316406250000000000e-01,7.385253906250000000e-03,8.560180664062500000e-01,2.843017578125000000e-01
-1.300000000000000000e+01,-1.100000000000000000e+01,-5.000000000000000000e+00,1.400000000000000000e+01,9.000000000000000000e+00,2.000000000000000000e+00,-1.700000000000000000e+01,-6.000000000000000000e+00,-4.316406250000000000e-01,7.385253906250000000e-03,8.560180664062500000e-01,2.843017578125000000e-01
-1.500000000000000000e+01,-1.000000000000000000e+00,4.000000000000000000e+00,0.000000000000000000e+00,-7.000000000000000000e+00,2.000000000000000000e+00,5.000000000000000000e+00,1.000000000000000000e+00,-4.321289062500000000e-01,7.629394531250000000e-03,8.558959960937500000e-01,2.838745117187500000e-01
-2.000000000000000000e+00,-1.000000000000000000e+00,-7.000000000000000000e+00,3.000000000000000000e+00,8.000000000000000000e+00,-1.000000000000000000e+00,9.000000000000000000e+00,0.000000000000000000e+00,-4.321289062500000000e-01,7.629394531250000000e-03,8.558959960937500000e-01,2.838745117187500000e-01
1.000000000000000000e+01,6.000000000000000000e+00,2.500000000000000000e+01,-2.700000000000000000e+01,-1.500000000000000000e+01,1.100000000000000000e+01,-2.500000000000000000e+01,-3.000000000000000000e+00,-4.321289062500000000e-01,7.629394531250000000e-03,8.558959960937500000e-01,2.838745117187500000e-01
4.000000000000000000e+00,1.000000000000000000e+00,-1.100000000000000000e+01,2.800000000000000000e+01,2.900000000000000000e+01,-1.000000000000000000e+00,1.100000000000000000e+01,0.000000000000000000e+00,-4.321289062500000000e-01,7.629394531250000000e-03,8.558959960937500000e-01,2.838745117187500000e-01
3.000000000000000000e+00,-7.000000000000000000e+00,-1.500000000000000000e+01,-2.000000000000000000e+01,-6.000000000000000000e+00,-8.000000000000000000e+00,-1.000000000000000000e+00,-3.000000000000000000e+00,-4.326782226562500000e-01,8.056640625000000000e-03,8.556518554687500000e-01,2.838134765625000000e-01
-2.000000000000000000e+00,-4.000000000000000000e+00,-2.300000000000000000e+01,2.600000000000000000e+01,-1.000000000000000000e+00,-3.000000000000000000e+00,-1.000000000000000000e+01,-3.000000000000000000e+00,-4.326782226562500000e-01,8.056640625000000000e-03,8.556518554687500000e-01,2.838134765625000000e-01
2.000000000000000000e+00,2.000000000000000000e+00,5.000000000000000000e+00,-2.100000000000000000e+01,0.000000000000000000e+00,1.000000000000000000e+00,7.000000000000000000e+00,1.000000000000000000e+00,-4.326782226562500000e-01,8.056640625000000000e-03,8.556518554687500000e-01,2.838134765625000000e-01
-5.000000000000000000e+00,2.000000000000000000e+00,1.800000000000000000e+01,6.000000000000000000e+00,-1.200000000000000000e+01,-9.000000000000000000e+00,4.000000000000000000e+00,-1.000000000000000000e+00,-4.326782226562500000e-01,8.056640625000000000e-03,8.556518554687500000e-01,2.838134765625000000e-01
1.100000000000000000e+01,4.000000000000000000e+00,1.600000000000000000e+01,-1.900000000000000000e+01,0.000000000000000000e+00,0.000000000000000000e+00,-3.000000000000000000e+00,-2.000000000000000000e+00,-4.331665039062500000e-01,8.544921875000000000e-03,8.552856445312500000e-01,2.840576171875000000e-01
-2.000000000000000000e+00,5.000000000000000000e+00,5.000000000000000000e+00,3.200000000000000000e+01,3.100000000000000000e+01,1.100000000000000000e+01,1.400000000000000000e+01,1.000000000000000000e+00,-4.331665039062500000e-01,8.544921875000000000e-03,8.552856445312500000e-01,2.840576171875000000e-01
-9.000000000000000000e+00,-9.000000000000000000e+00,-2.900000000000000000e+01,1.000000000000000000e+00,-3.000000000000000000e+00,-3.000000000000000000e+00,-6.000000000000000000e+00,-2.000000000000000000e+00,-4.331665039062500000e-01,8.544921875000000000e-03,8.552856445312500000e-01,2.840576171875000000e-01
-7.000000000000000000e+00,1.000000000000000000e+00,3.700000000000000000e+01,3.000000000000000000e+00,-9.000000000000000000e+00,-4.000000000000000000e+00,9.000000000000000000e+00,1.000000000000000000e+00,-4.331665039062500000e-01,8.544921875000000000e-03,8.552856445312500000e-01,2.840576171875000000e-01
1.100000000000000000e+01,3.000000000000000000e+00,-8.000000000000000000e+00,-2.000000000000000000e+00,2.000000000000000000e+00,2.000000000000000000e+00,9.000000000000000000e+00,2.000000000000000000e+00,-4.335327148437500000e-01,9.399414062500000000e-03,8.550415039062500000e-01,2.842407226562500000e-01
-1.000000000000000000e+00,-2.000000000000000000e+00,2.100000000000000000e+01,-1.500000000000000000e+01,-1.400000000000000000e+01,-1.000000000000000000e+00,-1.100000000000000000e+01,-1.000000000000000000e+00,-4.335327148437500000e-01,9.399414062500000000e-03,8.550415039062500000e-01,2.842407226562500000e-01
-2.000000000000000000e+00,-3.000000000000000000e+00,-5.000000000000000000e+00,-4.000000000000000000e+00,-1.100000000000000000e+01,-8.000000000000000000e+00,-1.900000000000000000e+01,-2.000000000000000000e+00,-4.335327148437500000e-01,9.399414062500000000e-03,8.550415039062500000e-01,2.842407226562500000e-01
-1.000000000000000000e+00,5.000000000000000000e+00,9.000000000000000000e+00,1.000000000000000000e+00,-3.000000000000000000e+00,2.000000000000000000e+00,6.000000000000000000e+00,-1.000000000000000000e+00,-4.335327148437500000e-01,9.399414062500000000e-03,8.550415039062500000e-01,2.842407226562500000e-01
2.000000000000000000e+00,1.000000000000000000e+00,-6.000000000000000000e+00,1.500000000000000000e+01,3.000000000000000000e+00,-3.000000000000000000e+00,-5.000000000000000000e+00,-2.000000000000000000e+00,-4.340209960937500000e-01,9.460449218750000000e-03,8.549194335937500000e-01,2.839965820312500000e-01
-6.000000000000000000e+00,-7.000000000000000000e+00,-3.200000000000000000e+01,-8.000000000000000000e+00,1.000000000000000000e+00,-3.000000000000000000e+00,7.000000000000000000e+00,-1.000000000000000000e+00,-4.340209960937500000e-01,9.460449218750000000e-03,8.549194335937500000e-01,2.839965820312500000e-01
5.000000000000000000e+00,2.000000000000000000e+00,1.000000000000000000e+00,-1.200000000000000000e+01,-3.000000000000000000e+00,-4.000000000000000000e+00,-2.900000000000000000e+01,-2.000000000000000000e+00,-4.340209960937500000e-01,9.460449218750000000e-03,8.549194335937500000e-01,2.839965820312500000e-01
2.000000000000000000e+00,3.000000000000000000e+00,-2.000000000000000000e+01,-4.100000000000000000e+01,-1.700000000000000000e+01,9.000000000000000000e+00,7.000000000000000000e+00,3.000000000000000000e+00,-4.340209960937500000e-01,9.460449218750000000e-03,8.549194335937500000e-01,2.839965820312500000e-01
-2.000000000000000000e+00,-1.300000000000000000e+01,-3.000000000000000000e+01,3.300000000000000000e+01,1.900000000000000000e+01,2.000000000000000000e+00,7.000000000000000000e+00,1.000000000000000000e+00,-4.344482421875000000e-01,9.216308593750000000e-03,8.547363281250000000e-01,2.837524414062500000e-01
-1.200000000000000000e+01,-1.000000000000000000e+00,1.600000000000000000e+01,-6.000000000000000000e+00,-1.100000000000000000e+01,-1.700000000000000000e+01,-2.000000000000000000e+01,-6.000000000000000000e+00,-4.344482421875000000e-01,9.216308593750000000e-03,8.547363281250000000e-01,2.837524414062500000e-01
7.000000000000000000e+00,-3.000000000000000000e+00,-4.800000000000000000e+01,-2.200000000000000000e+01,0.000000000000000000e+00,5.000000000000000000e+00,1.700000000000000000e+01,0.000000000000000000e+00,-4.344482421875000000e-01,9.216308593750000000e-03,8.547363281250000000e-01,2.837524414062500000e-01
-1.900000000000000000e+01,-2.000000000000000000e+00,6.000000000000000000e+00,2.800000000000000000e+01,-4.000000000000000000e+00,-8.000000000000000000e+00,-3.000000000000000000e+00,-3.000000000000000000e+00,-4.344482421875000000e-01,9.216308593750000000e-03,8.547363281250000000e-01,2.837524414062500000e-01
3.000000000000000000e+00,-1.000000000000000000e+00,1.400000000000000000e+01,-3.300000000000000000e+01,-1.000000000000000000e+00,9.000000000000000000e+00,1.000000000000000000e+00,0.000000000000000000e+00,-4.347534179687500000e-01,8.972167968750000000e-03,8.545532226562500000e-01,2.838134765625000000e-01
4.000000000000000000e+00,7.000000000000000000e+00,1.300000000000000000e+01,2.000000000000000000e+01,2.000000000000000000e+00,-1.100000000000000000e+01,2.000000000000000000e+00,0.000000000000000000e+00,-4.347534179687500000e-01,8.972167968750000000e-03,8.545532226562500000e-01,2.838134765625000000e-01
-1.000000000000000000e+01,-2.000000000000000000e+01,-7.400000000000000000e+01,-2.300000000000000000e+01,3.000000000000000000e+00,1.100000000000000000e+01,5.000000000000000000e+00,0.000000000000000000e+00,-4.347534179687500000e-01,8.972167968750000000e-03,8.545532226562500000e-01,2.838134765625000000e-01
8.000000000000000000e+00,4.000000000000000000e+00,1.200000000000000000e+01,-1.100000000000000000e+01,-2.100000000000000000e+01,-9.000000000000000000e+00,-1.400000000000000000e+01,-5.000000000000000000e+00,-4.347534179687500000e-01,8.972167968750000000e-03,8.545532226562500000e-01,2.838134765625000000e-01
6.000000000000000000e+00,-4.000000000000000000e+00,-1.100000000000000000e+01,1.500000000000000000e+01,6.000000000000000000e+00,0.000000000000000000e+00,0.000000000000000000e+00,2.000000000000000000e+00,-4.352416992187500000e-01,9.338378906250000000e-03,8.542480468750000000e-01,2.839965820312500000e-01
1.400000000000000000e+01,4.000000000000000000e+00,-5.000000000000000000e+00,0.000000000000000000e+00,3.000000000000000000e+00,-6.000000000000000000e+00,-8.000000000000000000e+00,4.000000000000000000e+00,-4.352416992187500000e-01,9.338378906250000000e-03,8.542480468750000000e-01,2.839965820312500000e-01
-1.000000000000000000e+00,9.000000000000000000e+00,2.100000000000000000e+01,-1.000000000000000000e+00,8.000000000000000000e+00,-5.000000000000000000e+00,3.000000000000000000e+00,1.000000000000000000e+00,-4.352416992187500000e-01,9.338378906250000000e-03,8.542480468750000000e-01,2.839965820312500000e-01
1.000000000000000000e+00,-1.000000000000000000e+00,-8.000000000000000000e+00,1.100000000000000000e+01,5.000000000000000000e+00,2.000000000000000000e+00,7.000000000000000000e+00,1.000000000000000000e+00,-4.352416992187500000e-01,9.338378906250000000e-03,8.542480468750000000e-01,2.839965820312500000e-01
-5.000000000000000000e+00,0.000000000000000000e+00,2.000000000000000000e+00,-2.100000000000000000e+01,-6.000000000000000000e+00,-4.000000000000000000e+00,5.000000000000000000e+00,0.000000000000000000e+00,-4.354858398437500000e-01,9.155273437500000000e-03,8.541870117187500000e-01,2.838134765625000000e-01
5.000000000000000000e+00,3.000000000000000000e+00,7.000000000000000000e+00,-2.100000000000000000e+01,-7.000000000000000000e+00,-4.000000000000000000e+00,-4.600000000000000000e+01,-6.000000000000000000e+00,-4.354858398437500000e-01,9.155273437500000000e-03,8.541870117187500000e-01,2.838134765625000000e-01
3.000000000000000000e+00,-7.000000000000000000e+00,-8.000000000000000000e+00,5.000000000000000000e+00,0.000000000000000000e+00,-7.000000000000000000e+00,5.000000000000000000e+00,-1.000000000000000000e+00,-4.354858398437500000e-01,9.155273437500000000e-03,8.541870117187500000e-01,2.838134765625000000e-01
7.000000000000000000e+00,2.000000000000000000e+00,9.000000000000000000e+00,3.600000000000000000e+01,1.600000000000000000e+01,9.000000000000000000e+00,1.200000000000000000e+01,3.000000000000000000e+00,-4.354858398437500000e-01,9.155273437500000000e-03,8.541870117187500000e-01,2.838134765625000000e-01
-2.200000000000000000e+01,-5.000000000000000000e+00,1.300000000000000000e+01,-6.000000000000000000e+00,-9.000000000000000000e+00,2.000000000000000000e+00,6.000000000000000000e+00,-2.000000000000000000e+00,-4.355468750000000000e-01,8.666992187500000000e-03,8.543090820312500000e-01,2.834472656250000000e-01
-7.000000000000000000e+00,-4.000000000000000000e+00,1.200000000000000000e+01,1.000000000000000000e+00,-1.000000000000000000e+00,1.200000000000000000e+01,1.500000000000000000e+01,0.000000000000000000e+00,-4.355468750000000000e-01,8.666992187500000000e-03,8.543090820312500000e-01,2.834472656250000000e-01
3.000000000000000000e+00,4.000000000000000000e+00,-7.000000000000000000e+00,-9.000000000000000000e+00,-1.000000000000000000e+00,0.000000000000000000e+00,7.000000000000000000e+00,3.000000000000000000e+00,-4.355468750000000000e-01,8.666992187500000000e-03,8.543090820312500000e-01,2.834472656250000000e-01
-1.000000000000000000e+01,-7.000000000000000000e+00,-3.000000000000000000e+00,-1.000000000000000000e+01,-3.000000000000000000e+00,-6.000000000000000000e+00,-1.000000000000000000e+01,-5.000000000000000000e+00,-4.355468750000000000e-01,8.666992187500000000e-03,8.543090820312500000e-01,2.834472656250000000e-01
1.000000000000000000e+01,1.500000000000000000e+01,4.000000000000000000e+00,-1.400000000000000000e+01,-1.100000000000000000e+01,-8.000000000000000000e+00,-1.400000000000000000e+01,-1.000000000000000000e+00,-4.357910156250000000e-01,7.873535156250000000e-03,8.543090820312500000e-01,2.831420898437500000e-01
-3.600000000000000000e+01,-1.700000000000000000e+01,2.000000000000000000e+00,1.200000000000000000e+01,4.000000000000000000e+00,-6.000000000000000000e+00,5.000000000000000000e+00,-7.000000000000000000e+00,-4.357910156250000000e-01,7.873535156250000000e-03,8.543090820312500000e-01,2.831420898437500000e-01
-1.000000000000000000e+00,-2.000000000000000000e+00,2.200000000000000000e+01,9.000000000000000000e+00,1.200000000000000000e+01,7.000000000000000000e+00,2.000000000000000000e+00,-4.000000000000000000e+00,-4.357910156250000000e-01,7.873535156250000000e-03,8.543090820312500000e-01,2.831420898437500000e-01
1.200000000000000000e+01,-5.000000000000000000e+00,-1.200000000000000000e+01,-2.000000000000000000e+00,-1.100000000000000000e+01,-5.000000000000000000e+00,-3.000000000000000000e+00,0.000000000000000000e+00,-4.357910156250000000e-01,7.873535156250000000e-03,8.543090820312500000e-01,2.831420898437500000e-01
6.000000000000000000e+00,3.000000000000000000e+00,2.500000000000000000e+01,2.000000000000000000e+00,1.100000000000000000e+01,4.000000000000000000e+00,5.000000000000000000e+00,2.000000000000000000e+00,-4.360351562500000000e-01,7.995605468750000000e-03,8.541870117187500000e-01,2.830810546875000000e-01
0.000000000000000000e+00,1.000000000000000000e+00,-8.000000000000000000e+00,-8.000000000000000000e+00,0.000000000000000000e+00,3.000000000000000000e+00,3.000000000000000000e+00,2.000000000000000000e+00,-4.360351562500000000e-01,7.995605468750000000e-03,8.541870117187500000e-01,2.830810546875000000e-01
0.000000000000000000e+00,1.000000000000000000e+00,-1.900000000000000000e+01,4.000000000000000000e+00,-8.000000000000000000e+00,-9.000000000000000000e+00,-4.000000000000000000e+00,-2.000000000000000000e+00,-4.360351562500000000e-01,7.995605468750000000e-03,8.541870117187500000e-01,2.830810546875000000e-01
-7.000000000000000000e+00,-2.000000000000000000e+00,5.000000000000000000e+00,-8.000000000000000000e+00,-1.000000000000000000e+01,-4.000000000000000000e+00,0.000000000000000000e+00,-2.000000000000000000e+00,-4.360351562500000000e-01,7.995605468750000000e-03,8.541870117187500000e-01,2.830810546875000000e-01
1.000000000000000000e+00,-5.000000000000000000e+00,-1.200000000000000000e+01,-1.600000000000000000e+01,0.000000000000000000e+00,-1.200000000000000000e+01,-5.000000000000000000e+00,-3.000000000000000000e+00,-4.360351562500000000e-01,8.300781250000000000e-03,8.541870117187500000e-01,2.831420898437500000e-01
5.000000000000000000e+00,3.000000000000000000e+00,1.700000000000000000e+01,3.000000000000000000e+01,0.000000000000000000e+00,2.700000000000000000e+01,-1.100000000000000000e+01,-3.000000000000000000e+00,-4.360351562500000000e-01,8.300781250000000000e-03,8.541870117187500000e-01,2.831420898437500000e-01
-2.000000000000000000e+00,-2.000000000000000000e+00,-1.100000000000000000e+01,-4.000000000000000000e+00,1.200000000000000000e+01,4.000000000000000000e+00,4.000000000000000000e+00,3.000000000000000000e+00,-4.360351562500000000e-01,8.300781250000000000e-03,8.541870117187500000e-01,2.831420898437500000e-01
2.000000000000000000e+00,2.000000000000000000e+00,-5.000000000000000000e+00,9.000000000000000000e+00,1.400000000000000000e+01,2.000000000000000000e+00,1.200000000000000000e+01,0.000000000000000000e+00,-4.360351562500000000e-01,8.300781250000000000e-03,8.541870117187500000e-01,2.831420898437500000e-01
-1.000000000000000000e+00,0.000000000000000000e+00,-8.000000000000000000e+00,-8.000000000000000000e+00,-8.000000000000000000e+00,-3.000000000000000000e+00,9.000000000000000000e+00,1.000000000000000000e+00,-4.359741210937500000e-01,8.178710937500000000e-03,8.542480468750000000e-01,2.830200195312500000e-01
4.000000000000000000e+00,-7.000000000000000000e+00,-2.400000000000000000e+01,-2.400000000000000000e+01,-1.400000000000000000e+01,-1.100000000000000000e+01,-1.300000000000000000e+01,-3.000000000000000000e+00,-4.359741210937500000e-01,8.178710937500000000e-03,8.542480468750000000e-01,2.830200195312500000e-01
2.000000000000000000e+00,6.000000000000000000e+00,2.800000000000000000e+01,1.400000000000000000e+01,-4.000000000000000000e+00,-3.000000000000000000e+00,1.900000000000000000e+01,0.000000000000000000e+00,-4.359741210937500000e-01,8.178710937500000000e-03,8.542480468750000000e-01,2.830200195312500000e-01
-8.000000000000000000e+00,-2.000000000000000000e+00,5.000000000000000000e+00,-1.300000000000000000e+01,-5.000000000000000000e+00,-1.100000000000000000e+01,-1.200000000000000000e+01,0.000000000000000000e+00,-4.359741210937500000e-01,8.178710937500000000e-03,8.542480468750000000e-01,2.830200195312500000e-01
1.100000000000000000e+01,3.000000000000000000e+00,1.000000000000000000e+00,6.000000000000000000e+00,-7.000000000000000000e+00,9.000000000000000000e+00,0.000000000000000000e+00,0.000000000000000000e+00,-4.358520507812500000e-01,7.141113281250000000e-03,8.544311523437500000e-01,2.827148437500000000e-01
1.000000000000000000e+00,-4.000000000000000000e+00,-1.500000000000000000e+01,4.000000000000000000e+00,2.200000000000000000e+01,4.000000000000000000e+00,1.800000000000000000e+01,3.000000000000000000e+00,-4.358520507812500000e-01,7.141113281250000000e-03,8.544311523437500000e-01,2.827148437500000000e-01
-4.000000000000000000e+00,1.000000000000000000e+00,1.400000000000000000e+01,1.100000000000000000e+01,-5.000000000000000000e+00,1.000000000000000000e+00,-1.000000000000000000e+00,-1.000000000000000000e+00,-4.358520507812500000e-01,7.141113281250000000e-03,8.544311523437500000e-01,2.827148437500000000e-01
0.000000000000000000e+00,-3.000000000000000000e+00,-1.500000000000000000e+01,-2.000000000000000000e+00,1.600000000000000000e+01,3.000000000000000000e+00,-1.000000000000000000e+00,2.000000000000000000e+00,-4.358520507812500000e-01,7.141113281250000000e-03,8.544311523437500000e-01,2.827148437500000000e-01
-1.000000000000000000e+01,-5.000000000000000000e+00,1.700000000000000000e+01,6.000000000000000000e+00,-4.000000000000000000e+00,-2.000000000000000000e+00,-4.000000000000000000e+00,-3.000000000000000000e+00,-4.358520507812500000e-01,6.591796875000000000e-03,8.544311523437500000e-01,2.826538085937500000e-01
2.100000000000000000e+01,1.000000000000000000e+01,5.000000000000000000e+00,-1.200000000000000000e+01,-6.000000000000000000e+00,-9.000000000000000000e+00,0.000000000000000000e+00,1.000000000000000000e+00,-4.358520507812500000e-01,6.591796875000000000e-03,8.544311523437500000e-01,2.826538085937500000e-01
-3.000000000000000000e+00,-7.000000000000000000e+00,-7.000000000000000000e+00,3.200000000000000000e+01,-1.000000000000000000e+00,-4.000000000000000000e+00,-6.000000000000000000e+00,0.000000000000000000e+00,-4.358520507812500000e-01,6.591796875000000000e-03,8.544311523437500000e-01,2.826538085937500000e-01
1.000000000000000000e+00,-1.000000000000000000e+00,2.000000000000000000e+00,4.000000000000000000e+00,-6.000000000000000000e+00,2.000000000000000000e+00,1.000000000000000000e+00,0.000000000000000000e+00,-4.358520507812500000e-01,6.591796875000000000e-03,8.544311523437500000e-01,2.826538085937500000e-01
-2.000000000000000000e+00,2.000000000000000000e+00,5.000000000000000000e+00,8.000000000000000000e+00,-5.000000000000000000e+00,-1.000000000000000000e+00,-1.000000000000000000e+01,-6.000000000000000000e+00,-4.357910156250000000e-01,6.530761718750000000e-03,8.544311523437500000e-01,2.827148437500000000e-01
-2.000000000000000000e+00,-5.000000000000000000e+00,-4.000000000000000000e+00,-2.100000000000000000e+01,2.000000000000000000e+00,1.000000000000000000e+00,3.000000000000000000e+00,-1.000000000000000000e+00,-4.357910156250000000e-01,6.530761718750000000e-03,8.544311523437500000e-01,2.827148437500000000e-01
-4.000000000000000000e+00,2.000000000000000000e+00,5.000000000000000000e+00,2.300000000000000000e+01,1.300000000000000000e+01,0.000000000000000000e+00,0.000000000000000000e+00,-3.000000000000000000e+00,-4.357910156250000000e-01,6.530761718750000000e-03,8.544311523437500000e-01,2.827148437500000000e-01
2.000000000000000000e+00,-1.000000000000000000e+00,9.000000000000000000e+00,9.000000000000000000e+00,3.000000000000000000e+00,3.000000000000000000e+00,1.300000000000000000e+01,4.000000000000000000e+00,-4.357910156250000000e-01,6.530761718750000000e-03,8.544311523437500000e-01,2.827148437500000000e-01
3.000000000000000000e+00,1.000000000000000000e+00,-1.000000000000000000e+01,0.000000000000000000e+00,-5.000000000000000000e+00,1.000000000000000000e+00,1.100000000000000000e+01,0.000000000000000000e+00,-4.355468750000000000e-01,6.713867187500000000e-03,8.544311523437500000e-01,2.832031250000000000e-01
-1.400000000000000000e+01,3.000000000000000000e+00,1.600000000000000000e+01,-1.100000000000000000e+01,-4.000000000000000000e+00,-5.000000000000000000e+00,-1.900000000000000000e+01,-5.000000000000000000e+00,-4.355468750000000000e-01,6.713867187500000000e-03,8.544311523437500000e-01,2.832031250000000000e-01
8.000000000000000000e+00,2.000000000000000000e+00,1.800000000000000000e+01,-8.000000000000000000e+00,-1.200000000000000000e+01,-2.000000000000000000e+00,1.500000000000000000e+01,2.000000000000000000e+00,-4.355468750000000000e-01,6.713867187500000000e-03,8.544311523437500000e-01,2.832031250000000000e-01
1.200000000000000000e+01,1.000000000000000000e+00,-3.200000000000000000e+01,-1.000000000000000000e+01,-7.000000000000000000e+00,-2.000000000000000000e+00,0.000000000000000000e+00,-2.000000000000000000e+00,-4.355468750000000000e-01,6.713867187500000000e-03,8.544311523437500000e-01,2.832031250000000000e-01
-1.500000000000000000e+01,-7.000000000000000000e+00,-1.700000000000000000e+01,-1.100000000000000000e+01,-2.000000000000000000e+00,7.000000000000000000e+00,7.000000000000000000e+00,0.000000000000000000e+00,-4.353637695312500000e-01,6.408691406250000000e-03,8.544311523437500000e-01,2.833251953125000000e-01
-2.000000000000000000e+00,-4.000000000000000000e+00,-9.000000000000000000e+00,3.400000000000000000e+01,1.100000000000000000e+01,-1.000000000000000000e+00,1.000000000000000000e+01,0.000000000000000000e+00,-4.353637695312500000e-01,6.408691406250000000e-03,8.544311523437500000e-01,2.833251953125000000e-01
0.000000000000000000e+00,3.000000000000000000e+00,1.400000000000000000e+01,-1.900000000000000000e+01,-3.000000000000000000e+00,4.000000000000000000e+00,-9.000000000000000000e+00,-2.000000000000000000e+00,-4.353637695312500000e-01,6.408691406250000000e-03,8.544311523437500000e-01,2.833251953125000000e-01
1.000000000000000000e+00,0.000000000000000000e+00,-1.500000000000000000e+01,-3.000000000000000000e+00,5.000000000000000000e+00,-2.000000000000000000e+00,-1.000000000000000000e+01,-1.000000000000000000e+00,-4.353637695312500000e-01,6.408691406250000000e-03,8.544311523437500000e-01,2.833251953125000000e-01
0.000000000000000000e+00,0.000000000000000000e+00,7.000000000000000000e+00,4.000000000000000000e+00,2.000000000000000000e+00,1.300000000000000000e+01,1.100000000000000000e+01,3.000000000000000000e+00,-4.354248046875000000e-01,5.615234375000000000e-03,8.544311523437500000e-01,2.833251953125000000e-01
-1.000000000000000000e+00,1.000000000000000000e+00,-7.000000000000000000e+00,-2.000000000000000000e+00,-1.000000000000000000e+01,-8.000000000000000000e+00,-2.000000000000000000e+00,1.000000000000000000e+00,-4.354248046875000000e-01,5.615234375000000000e-03,8.544311523437500000e-01,2.833251953125000000e-01
-5.000000000000000000e+00,-1.000000000000000000e+00,-3.000000000000000000e+00,-1.200000000000000000e+01,-6.000000000000000000e+00,1.100000000000000000e+01,-1.100000000000000000e+01,-1.000000000000000000e+00,-4.354248046875000000e-01,5.615234375000000000e-03,8.544311523437500000e-01,2.833251953125000000e-01
-6.000000000000000000e+00,1.000000000000000000e+00,1.200000000000000000e+01,7.000000000000000000e+00,-2.000000000000000000e+00,-1.300000000000000000e+01,-1.900000000000000000e+01,-5.000000000000000000e+00,-4.354248046875000000e-01,5.615234375000000000e-03,8.544311523437500000e-01,2.833251953125000000e-01
1.100000000000000000e+01,1.000000000000000000e+00,1.700000000000000000e+01,-2.000000000000000000e+01,-1.100000000000000000e+01,-9.000000000000000000e+00,-1.100000000000000000e+01,-3.000000000000000000e+00,-4.356079101562500000e-01,4.760742187500000000e-03,8.543090820312500000e-01,2.833862304687500000e-01
-5.000000000000000000e+00,3.000000000000000000e+00,2.000000000000000000e+00,1.300000000000000000e+01,1.100000000000000000e+01,3.000000000000000000e+00,3.600000000000000000e+01,6.000000000000000000e+00,-4.356079101562500000e-01,4.760742187500000000e-03,8.543090820312500000e-01,2.833862304687500000e-01
-1.000000000000000000e+00,-2.000000000000000000e+00,1.500000000000000000e+01,-9.000000000000000000e+00,-1.000000000000000000e+00,-5.000000000000000000e+00,-3.300000000000000000e+01,-6.000000000000000000e+00,-4.356079101562500000e-01,4.760742187500000000e-03,8.543090820312500000e-01,2.833862304687500000e-01
-3.000000000000000000e+00,-5.000000000000000000e+00,-2.800000000000000000e+01,1.400000000000000000e+01,5.000000000000000000e+00,3.000000000000000000e+00,1.000000000000000000e+00,-1.000000000000000000e+00,-4.356079101562500000e-01,4.760742187500000000e-03,8.543090820312500000e-01,2.833862304687500000e-01
2.000000000000000000e+00,6.000000000000000000e+00,1.400000000000000000e+01,9.000000000000000000e+00,1.000000000000000000e+01,-3.000000000000000000e+00,4.000000000000000000e+00,2.000000000000000000e+00,-4.359130859375000000e-01,4.760742187500000000e-03,8.540649414062500000e-01,2.837524414062500000e-01
4.000000000000000000e+00,-1.000000000000000000e+00,-3.000000000000000000e+00,-1.200000000000000000e+01,-8.000000000000000000e+00,-2.000000000000000000e+00,-2.000000000000000000e+00,-1.000000000000000000e+00,-4.359130859375000000e-01,4.760742187500000000e-03,8.540649414062500000e-01,2.837524414062500000e-01
-1.000000000000000000e+00,-3.000000000000000000e+00,-2.000000000000000000e+01,-5.700000000000000000e+01,-3.400000000000000000e+01,-1.400000000000000000e+01,1.100000000000000000e+01,0.000000000000000000e+00,-4.359130859375000000e-01,4.760742187500000000e-03,8.540649414062500000e-01,2.837524414062500000e-01
-1.300000000000000000e+01,-2.000000000000000000e+00,1.600000000000000000e+01,5.600000000000000000e+01,4.700000000000000000e+01,1.200000000000000000e+01,0.000000000000000000e+00,-4.000000000000000000e+00,-4.359130859375000000e-01,4.760742187500000000e-03,8.540649414062500000e-01,2.837524414062500000e-01
1.000000000000000000e+00,-4.000000000000000000e+00,-1.100000000000000000e+01,6.000000000000000000e+00,3.000000000000000000e+00,-4.000000000000000000e+00,-1.100000000000000000e+01,-2.000000000000000000e+00,-4.361572265625000000e-01,5.126953125000000000e-03,8.538208007812500000e-01,2.840576171875000000e-01
2.000000000000000000e+00,2.000000000000000000e+00,2.000000000000000000e+00,-4.000000000000000000e+00,-5.000000000000000000e+00,-8.000000000000000000e+00,-6.000000000000000000e+00,-1.000000000000000000e+00,-4.361572265625000000e-01,5.126953125000000000e-03,8.538208007812500000e-01,2.840576171875000000e-01
-2.000000000000000000e+00,-3.000000000000000000e+00,-1.300000000000000000e+01,1.000000000000000000e+00,9.000000000000000000e+00,7.000000000000000000e+00,2.400000000000000000e+01,1.000000000000000000e+00,-4.361572265625000000e-01,5.126953125000000000e-03,8.538208007812500000e-01,2.840576171875000000e-01
-2.000000000000000000e+00,-2.000000000000000000e+00,3.000000000000000000e+00,-2.900000000000000000e+01,-6.000000000000000000e+00,4.000000000000000000e+00,-3.000000000000000000e+00,0.000000000000000000e+00,-4.361572265625000000e-01,5.126953125000000000e-03,8.538208007812500000e-01,2.840576171875000000e-01
-2.000000000000000000e+00,-1.000000000000000000e+00,-2.000000000000000000e+00,9.000000000000000000e+00,2.000000000000000000e+00,0.000000000000000000e+00,-1.000000000000000000e+00,-2.000000000000000000e+00,-4.362182617187500000e-01,5.310058593750000000e-03,8.536987304687500000e-01,2.842407226562500000e-01
-1.000000000000000000e+00,-4.000000000000000000e+00,9.000000000000000000e+00,1.300000000000000000e+01,-8.000000000000000000e+00,-1.000000000000000000e+00,1.400000000000000000e+01,-2.000000000000000000e+00,-4.362182617187500000e-01,5.310058593750000000e-03,8.536987304687500000e-01,2.842407226562500000e-01
1.000000000000000000e+01,0.000000000000000000e+00,1.300000000000000000e+01,2.000000000000000000e+00,0.000000000000000000e+00,-1.600000000000000000e+01,-3.300000000000000000e+01,-3.000000000000000000e+00,-4.362182617187500000e-01,5.310058593750000000e-03,8.536987304687500000e-01,2.842407226562500000e-01
-5.000000000000000000e+00,0.000000000000000000e+00,-5.000000000000000000e+00,-2.200000000000000000e+01,-1.300000000000000000e+01,1.600000000000000000e+01,1.700000000000000000e+01,-1.000000000000000000e+00,-4.362182617187500000e-01,5.310058593750000000e-03,8.536987304687500000e-01,2.842407226562500000e-01
-2.000000000000000000e+00,-7.000000000000000000e+00,-3.000000000000000000e+00,8.000000000000000000e+00,1.000000000000000000e+00,-1.200000000000000000e+01,-1.000000000000000000e+00,-3.000000000000000000e+00,-4.362182617187500000e-01,4.638671875000000000e-03,8.538208007812500000e-01,2.839965820312500000e-01
2.000000000000000000e+00,2.000000000000000000e+00,-2.000000000000000000e+01,-3.200000000000000000e+01,-1.200000000000000000e+01,1.000000000000000000e+00,-4.000000000000000000e+00,1.000000000000000000e+00,-4.362182617187500000e-01,4.638671875000000000e-03,8.538208007812500000e-01,2.839965820312500000e-01
-4.000000000000000000e+00,-6.000000000000000000e+00,9.000000000000000000e+00,2.700000000000000000e+01,1.200000000000000000e+01,-2.000000000000000000e+00,-1.800000000000000000e+01,-2.000000000000000000e+00,-4.362182617187500000e-01,4.638671875000000000e-03,8.538208007812500000e-01,2.839965820312500000e-01
5.000000000000000000e+00,1.000000000000000000e+00,1.700000000000000000e+01,-5.000000000000000000e+00,-1.100000000000000000e+01,-1.000000000000000000e+00,2.000000000000000000e+00,2.000000000000000000e+00,-4.362182617187500000e-01,4.638671875000000000e-03,8.538208007812500000e-01,2.839965820312500000e-01
2.000000000000000000e+00,0.000000000000000000e+00,1.200000000000000000e+01,-1.000000000000000000e+01,-1.000000000000000000e+00,-4.000000000000000000e+00,-1.000000000000000000e+01,-3.000000000000000000e+00,-4.362182617187500000e-01,3.906250000000000000e-03,8.538208007812500000e-01,2.839965820312500000e-01
-1.200000000000000000e+01,-2.000000000000000000e+00,-1.100000000000000000e+01,-3.000000000000000000e+00,1.000000000000000000e+00,0.000000000000000000e+00,-1.600000000000000000e+01,-2.000000000000000000e+00,-4.362182617187500000e-01,3.906250000000000000e-03,8.538208007812500000e-01,2.839965820312500000e-01
0.000000000000000000e+00,-9.000000000000000000e+00,-2.800000000000000000e+01,-4.000000000000000000e+00,-4.000000000000000000e+00,1.000000000000000000e+00,1.400000000000000000e+01,0.000000000000000000e+00,-4.362182617187500000e-01,3.906250000000000000e-03,8.538208007812500000e-01,2.839965820312500000e-01
3.000000000000000000e+00,-3.000000000000000000e+00,-9.000000000000000000e+00,2.800000000000000000e+01,1.200000000000000000e+01,-8.000000000000000000e+00,-7.000000000000000000e+00,0.000000000000000000e+00,-4.362182617187500000e-01,3.906250000000000000e-03,8.538208007812500000e-01,2.839965820312500000e-01
-1.000000000000000000e+01,-6.000000000000000000e+00,9.000000000000000000e+00,-1.700000000000000000e+01,1.000000000000000000e+00,4.000000000000000000e+00,-6.000000000000000000e+00,-2.000000000000000000e+00,-4.361572265625000000e-01,3.967285156250000000e-03,8.537597656250000000e-01,2.843017578125000000e-01
9.000000000000000000e+00,3.000000000000000000e+00,1.200000000000000000e+01,-2.600000000000000000e+01,-3.000000000000000000e+00,-2.000000000000000000e+00,3.000000000000000000e+00,-1.000000000000000000e+00,-4.361572265625000000e-01,3.967285156250000000e-03,8.537597656250000000e-01,2.843017578125000000e-01
-1.000000000000000000e+00,3.000000000000000000e+00,-3.500000000000000000e+01,1.700000000000000000e+01,4.000000000000000000e+00,5.000000000000000000e+00,8.000000000000000000e+00,0.000000000000000000e+00,-4.361572265625000000e-01,3.967285156250000000e-03,8.537597656250000000e-01,2.843017578125000000e-01
0.000000000000000000e+00,4.000000000000000000e+00,2.600000000000000000e+01,-1.000000000000000000e+00,3.000000000000000000e+00,-3.000000000000000000e+00,-2.000000000000000000e+00,-3.000000000000000000e+00,-4.361572265625000000e-01,3.967285156250000000e-03,8.537597656250000000e-01,2.843017578125000000e-01
-3.000000000000000000e+00,-6.000000000000000000e+00,-1.600000000000000000e+01,-8.000000000000000000e+00,-1.100000000000000000e+01,0.000000000000000000e+00,-1.400000000000000000e+01,-3.000000000000000000e+00,-4.359741210937500000e-01,4.211425781250000000e-03,8.536987304687500000e-01,2.846679687500000000e-01
-3.000000000000000000e+00,-2.000000000000000000e+00,-4.000000000000000000e+00,1.900000000000000000e+01,1.100000000000000000e+01,-1.000000000000000000e+00,-1.000000000000000000e+00,0.000000000000000000e+00,-4.359741210937500000e-01,4.211425781250000000e-03,8.536987304687500000e-01,2.846679687500000000e-01
-6.000000000000000000e+00,3.000000000000000000e+00,1.100000000000000000e+01,-1.000000000000000000e+00,-5.000000000000000000e+00,0.000000000000000000e+00,1.000000000000000000e+00,-2.000000000000000000e+00,-4.359741210937500000e-01,4.211425781250000000e-03,8.536987304687500000e-01,2.846679687500000000e-01
-7.000000000000000000e+00,-4.000000000000000000e+00,-8.000000000000000000e+00,-7.800000000000000000e+01,-3.900000000000000000e+01,-1.100000000000000000e+01,3.000000000000000000e+00,-4.000000000000000000e+00,-4.359741210937500000e-01,4.211425781250000000e-03,8.536987304687500000e-01,2.846679687500000000e-01
4.000000000000000000e+00,5.000000000000000000e+00,4.500000000000000000e+01,9.200000000000000000e+01,4.100000000000000000e+01,7.000000000000000000e+00,-5.000000000000000000e+00,1.000000000000000000e+00,-4.356079101562500000e-01,3.906250000000000000e-03,8.538818359375000000e-01,2.847290039062500000e-01
1.000000000000000000e+00,-9.000000000000000000e+00,-7.300000000000000000e+01,-7.000000000000000000e+00,-6.000000000000000000e+00,-3.000000000000000000e+00,0.000000000000000000e+00,-2.000000000000000000e+00,-4.356079101562500000e-01,3.906250000000000000e-03,8.538818359375000000e-01,2.847290039062500000e-01
1.000000000000000000e+00,2.000000000000000000e+00,7.000000000000000000e+00,1.000000000000000000e+01,1.000000000000000000e+00,-1.000000000000000000e+00,-8.000000000000000000e+00,-2.000000000000000000e+00,-4.356079101562500000e-01,3.906250000000000000e-03,8.538818359375000000e-01,2.847290039062500000e-01
1.000000000000000000e+00,-3.000000000000000000e+00,-1.100000000000000000e+01,-2.300000000000000000e+01,-1.700000000000000000e+01,-3.000000000000000000e+00,-2.400000000000000000e+01,-3.000000000000000000e+00,-4.356079101562500000e-01,3.906250000000000000e-03,8.538818359375000000e-01,2.847290039062500000e-01
0.000000000000000000e+00,-1.000000000000000000e+00,1.000000000000000000e+01,-1.000000000000000000e+01,-1.000000000000000000e+00,-2.000000000000000000e+00,7.000000000000000000e+00,0.000000000000000000e+00,-4.353027343750000000e-01,3.112792968750000000e-03,8.540649414062500000e-01,2.846679687500000000e-01
-6.000000000000000000e+00,-2.000000000000000000e+00,1.000000000000000000e+01,3.000000000000000000e+00,-5.000000000000000000e+00,-8.000000000000000000e+00,-1.000000000000000000e+01,-2.000000000000000000e+00,-4.353027343750000000e-01,3.112792968750000000e-03,8.540649414062500000e-01,2.846679687500000000e-01
-5.000000000000000000e+00,-1.000000000000000000e+00,1.300000000000000000e+01,-1.000000000000000000e+00,0.000000000000000000e+00,1.500000000000000000e+01,1.400000000000000000e+01,0.000000000000000000e+00,-4.353027343750000000e-01,3.112792968750000000e-03,8.540649414062500000e-01,2.846679687500000000e-01
1.000000000000000000e+00,-2.000000000000000000e+00,-5.000000000000000000e+00,5.000000000000000000e+00,1.000000000000000000e+00,-1.300000000000000000e+01,-9.000000000000000000e+00,0.000000000000000000e+00,-4.353027343750000000e-01,3.112792968750000000e-03,8.540649414062500000e-01,2.846679687500000000e-01
0.000000000000000000e+00,0.000000000000000000e+00,-2.600000000000000000e+01,-1.500000000000000000e+01,-3.000000000000000000e+00,5.000000000000000000e+00,1.100000000000000000e+01,3.000000000000000000e+00,-4.350585937500000000e-01,2.319335937500000000e-03,8.541870117187500000e-01,2.847290039062500000e-01
6.000000000000000000e+00,4.000000000000000000e+00,1.600000000000000000e+01,6.000000000000000000e+00,6.000000000000000000e+00,5.000000000000000000e+00,-2.400000000000000000e+01,-3.000000000000000000e+00,-4.350585937500000000e-01,2.319335937500000000e-03,8.541870117187500000e-01,2.847290039062500000e-01
-5.000000000000000000e+00,-6.000000000000000000e+00,-1.200000000000000000e+01,-1.400000000000000000e+01,-1.400000000000000000e+01,-4.000000000000000000e+00,1.000000000000000000e+01,-1.000000000000000000e+00,-4.350585937500000000e-01,2.319335937500000000e-03,8.541870117187500000e-01,2.847290039062500000e-01
-9.000000000000000000e+00,-5.000000000000000000e+00,6.000000000000000000e+00,1.000000000000000000e+01,8.000000000000000000e+00,1.000000000000000000e+00,-1.000000000000000000e+00,-3.000000000000000000e+00,-4.350585937500000000e-01,2.319335937500000000e-03,8.541870117187500000e-01,2.847290039062500000e-01
-2.000000000000000000e+00,-3.000000000000000000e+00,-3.400000000000000000e+01,-1.800000000000000000e+01,-1.300000000000000000e+01,-1.000000000000000000e+01,-8.000000000000000000e+00,-1.000000000000000000e+00,-4.349365234375000000e-01,2.014160156250000000e-03,8.541259765625000000e-01,2.850341796875000000e-01
5.000000000000000000e+00,6.000000000000000000e+00,1.200000000000000000e+01,2.200000000000000000e+01,-1.400000000000000000e+01,2.000000000000000000e+00,1.300000000000000000e+01,2.000000000000000000e+00,-4.349365234375000000e-01,2.014160156250000000e-03,8.541259765625000000e-01,2.850341796875000000e-01
-3.000000000000000000e+00,-4.000000000000000000e+00,1.800000000000000000e+01,-2.100000000000000000e+01,2.300000000000000000e+01,1.000000000000000000e+00,-3.000000000000000000e+00,-1.000000000000000000e+00,-4.348144531250000000e-01,2.014160156250000000e-03,8.540649414062500000e-01,2.854003906250000000e-01
0.000000000000000000e+00,-1.000000000000000000e+00,3.000000000000000000e+00,4.900000000000000000e+01,1.500000000000000000e+01,5.000000000000000000e+00,3.000000000000000000e+00,2.000000000000000000e+00,-4.348144531250000000e-01,2.014160156250000000e-03,8.540649414062500000e-01,2.854003906250000000e-01
6.000000000000000000e+00,1.000000000000000000e+00,-7.000000000000000000e+00,-3.800000000000000000e+01,-1.100000000000000000e+01,-1.000000000000000000e+00,1.000000000000000000e+00,1.000000000000000000e+00,-4.348144531250000000e-01,2.014160156250000000e-03,8.540649414062500000e-01,2.854003906250000000e-01
-2.000000000000000000e+00,-3.000000000000000000e+00,1.300000000000000000e+01,4.900000000000000000e+01,2.500000000000000000e+01,4.000000000000000000e+00,4.000000000000000000e+00,1.000000000000000000e+00,-4.348144531250000000e-01,2.014160156250000000e-03,8.540649414062500000e-01,2.854003906250000000e-01
-1.000000000000000000e+00,7.000000000000000000e+00,3.000000000000000000e+00,-4.100000000000000000e+01,-1.700000000000000000e+01,-9.000000000000000000e+00,-4.000000000000000000e+00,0.000000000000000000e+00,-4.343872070312500000e-01,1.831054687500000000e-03,8.541870117187500000e-01,2.857666015625000000e-01
-2.000000000000000000e+00,-1.300000000000000000e+01,-2.000000000000000000e+01,5.000000000000000000e+00,-1.000000000000000000e+00,-3.000000000000000000e+00,-2.000000000000000000e+00,-1.000000000000000000e+00,-4.343872070312500000e-01,1.831054687500000000e-03,8.541870117187500000e-01,2.857666015625000000e-01
1.000000000000000000e+00,3.000000000000000000e+00,-4.000000000000000000e+00,-4.000000000000000000e+00,-9.000000000000000000e+00,1.000000000000000000e+00,-2.000000000000000000e+00,-2.000000000000000000e+00,-4.343872070312500000e-01,1.831054687500000000e-03,8.541870117187500000e-01,2.857666015625000000e-01
0.000000000000000000e+00,1.000000000000000000e+00,1.200000000000000000e+01,-1.500000000000000000e+01,4.000000000000000000e+00,1.000000000000000000e+00,-2.400000000000000000e+01,-6.000000000000000000e+00,-4.343872070312500000e-01,1.831054687500000000e-03,8.541870117187500000e-01,2.857666015625000000e-01
2.000000000000000000e+00,-6.000000000000000000e+00,1.800000000000000000e+01,7.000000000000000000e+00,-1.100000000000000000e+01,-4.000000000000000000e+00,7.000000000000000000e+00,2.000000000000000000e+00,-4.340209960937500000e-01,1.159667968750000000e-03,8.543090820312500000e-01,2.857666015625000000e-01
-1.000000000000000000e+00,6.000000000000000000e+00,9.000000000000000000e+00,-8.000000000000000000e+00,7.000000000000000000e+00,-5.000000000000000000e+00,7.000000000000000000e+00,1.000000000000000000e+00,-4.340209960937500000e-01,1.159667968750000000e-03,8.543090820312500000e-01,2.857666015625000000e-01
3.000000000000000000e+00,-5.000000000000000000e+00,-1.000000000000000000e+01,3.000000000000000000e+00,-8.000000000000000000e+00,-1.000000000000000000e+01,2.000000000000000000e+00,-3.000000000000000000e+00,-4.340209960937500000e-01,1.159667968750000000e-03,8.543090820312500000e-01,2.857666015625000000e-01
-1.000000000000000000e+00,-3.000000000000000000e+00,-3.000000000000000000e+00,-1.500000000000000000e+01,-6.000000000000000000e+00,4.100000000000000000e+01,3.100000000000000000e+01,8.000000000000000000e+00,-4.340209960937500000e-01,1.159667968750000000e-03,8.543090820312500000e-01,2.857666015625000000e-01
-1.100000000000000000e+01,3.000000000000000000e+00,6.000000000000000000e+00,1.900000000000000000e+01,1.000000000000000000e+00,-6.000000000000000000e+00,-3.000000000000000000e+00,-4.000000000000000000e+00,-4.337158203125000000e-01,4.882812500000000000e-04,8.544921875000000000e-01,2.858276367187500000e-01
-3.000000000000000000e+00,-1.000000000000000000e+00,-2.300000000000000000e+01,-3.000000000000000000e+01,-9.000000000000000000e+00,-1.300000000000000000e+01,-1.400000000000000000e+01,-5.000000000000000000e+00,-4.337158203125000000e-01,4.882812500000000000e-04,8.544921875000000000e-01,2.858276367187500000e-01
-2.000000000000000000e+00,1.000000000000000000e+00,-2.000000000000000000e+00,2.300000000000000000e+01,8.000000000000000000e+00,1.400000000000000000e+01,1.200000000000000000e+01,2.000000000000000000e+00,-4.337158203125000000e-01,4.882812500000000000e-04,8.544921875000000000e-01,2.858276367187500000e-01
3.000000000000000000e+00,-4.000000000000000000e+00,-1.000000000000000000e+01,-2.400000000000000000e+01,-1.200000000000000000e+01,-9.000000000000000000e+00,-1.000000000000000000e+00,-1.000000000000000000e+00,-4.337158203125000000e-01,4.882812500000000000e-04,8.544921875000000000e-01,2.858276367187500000e-01
3.000000000000000000e+00,-1.000000000000000000e+00,-1.300000000000000000e+01,7.000000000000000000e+00,9.000000000000000000e+00,-4.000000000000000000e+00,-2.000000000000000000e+00,1.000000000000000000e+00,-4.338989257812500000e-01,6.103515625000000000e-05,8.543090820312500000e-01,2.860717773437500000e-01
-5.000000000000000000e+00,1.000000000000000000e+00,1.900000000000000000e+01,6.000000000000000000e+00,-1.100000000000000000e+01,0.000000000000000000e+00,6.000000000000000000e+00,2.000000000000000000e+00,-4.338989257812500000e-01,6.103515625000000000e-05,8.543090820312500000e-01,2.860717773437500000e-01
-4.000000000000000000e+00,3.000000000000000000e+00,2.000000000000000000e+00,-2.200000000000000000e+01,4.000000000000000000e+00,0.000000000000000000e+00,-6.000000000000000000e+00,-3.000000000000000000e+00,-4.338989257812500000e-01,6.103515625000000000e-05,8.543090820312500000e-01,2.860717773437500000e-01
2.000000000000000000e+00,-1.000000000000000000e+00,9.000000000000000000e+00,-2.600000000000000000e+01,-3.000000000000000000e+00,-2.000000000000000000e+01,0.000000000000000000e+00,1.000000000000000000e+00,-4.338989257812500000e-01,6.103515625000000000e-05,8.543090820312500000e-01,2.860717773437500000e-01
-1.000000000000000000e+00,-6.000000000000000000e+00,1.900000000000000000e+01,3.400000000000000000e+01,1.200000000000000000e+01,2.900000000000000000e+01,-4.000000000000000000e+00,-1.000000000000000000e+00,-4.340209960937500000e-01,3.662109375000000000e-04,8.541259765625000000e-01,2.864990234375000000e-01
1.000000000000000000e+00,0.000000000000000000e+00,-2.200000000000000000e+01,1.000000000000000000e+00,-6.000000000000000000e+00,-4.000000000000000000e+00,-1.000000000000000000e+00,-3.000000000000000000e+00,-4.340209960937500000e-01,3.662109375000000000e-04,8.541259765625000000e-01,2.864990234375000000e-01
-2.000000000000000000e+00,-3.000000000000000000e+00,-5.000000000000000000e+00,0.000000000000000000e+00,-8.000000000000000000e+00,-1.200000000000000000e+01,2.000000000000000000e+00,1.000000000000000000e+00,-4.340209960937500000e-01,3.662109375000000000e-04,8.541259765625000000e-01,2.864990234375000000e-01
0.000000000000000000e+00,-1.000000000000000000e+00,0.000000000000000000e+00,-1.900000000000000000e+01,-1.700000000000000000e+01,-1.300000000000000000e+01,-6.000000000000000000e+00,-2.000000000000000000e+00,-4.340209960937500000e-01,3.662109375000000000e-04,8.541259765625000000e-01,2.864990234375000000e-01
0.000000000000000000e+00,4.000000000000000000e+00,-3.100000000000000000e+01,1.800000000000000000e+01,1.100000000000000000e+01,5.000000000000000000e+00,1.000000000000000000e+01,1.000000000000000000e+00,-4.338989257812500000e-01,7.324218750000000000e-04,8.540649414062500000e-01,2.868041992187500000e-01
-1.000000000000000000e+00,2.000000000000000000e+00,3.000000000000000000e+00,-7.000000000000000000e+00,6.000000000000000000e+00,1.000000000000000000e+01,6.000000000000000000e+00,2.000000000000000000e+00,-4.338989257812500000e-01,7.324218750000000000e-04,8.540649414062500000e-01,2.868041992187500000e-01
-5.000000000000000000e+00,-5.000000000000000000e+00,1.500000000000000000e+01,-4.000000000000000000e+00,-5.000000000000000000e+00,-5.000000000000000000e+00,-8.000000000000000000e+00,0.000000000000000000e+00,-4.338989257812500000e-01,7.324218750000000000e-04,8.540649414062500000e-01,2.868041992187500000e-01
-4.000000000000000000e+00,-2.000000000000000000e+00,-7.000000000000000000e+00,1.500000000000000000e+01,-2.000000000000000000e+00,-1.000000000000000000e+00,4.000000000000000000e+00,0.000000000000000000e+00,-4.338989257812500000e-01,7.324218750000000000e-04,8.540649414062500000e-01,2.868041992187500000e-01
-4.000000000000000000e+00,0.000000000000000000e+00,4.000000000000000000e+00,-1.900000000000000000e+01,-1.500000000000000000e+01,-6.000000000000000000e+00,-5.000000000000000000e+00,-1.000000000000000000e+00,-4.338989257812500000e-01,7.324218750000000000e-04,8.540649414062500000e-01,2.868041992187500000e-01
4.000000000000000000e+00,6.000000000000000000e+00,5.000000000000000000e+00,0.000000000000000000e+00,-3.000000000000000000e+00,-9.000000000000000000e+00,-1.500000000000000000e+01,-2.000000000000000000e+00,-4.338989257812500000e-01,7.324218750000000000e-04,8.540649414062500000e-01,2.868041992187500000e-01
-8.000000000000000000e+00,2.000000000000000000e+00,-1.200000000000000000e+01,1.300000000000000000e+01,1.000000000000000000e+00,1.300000000000000000e+01,1.500000000000000000e+01,2.000000000000000000e+00,-4.338989257812500000e-01,7.324218750000000000e-04,8.540649414062500000e-01,2.868041992187500000e-01
4.000000000000000000e+00,-8.000000000000000000e+00,-4.000000000000000000e+00,-2.300000000000000000e+01,-7.000000000000000000e+00,-8.000000000000000000e+00,-1.200000000000000000e+01,-3.000000000000000000e+00,-4.338989257812500000e-01,7.324218750000000000e-04,8.540649414062500000e-01,2.868041992187500000e-01
1.000000000000000000e+00,1.000000000000000000e+00,4.000000000000000000e+00,1.600000000000000000e+01,6.000000000000000000e+00,6.000000000000000000e+00,1.100000000000000000e+01,-1.000000000000000000e+00,-4.340820312500000000e-01,5.493164062500000000e-04,8.540649414062500000e-01,2.865600585937500000e-01
0.000000000000000000e+00,-3.000000000000000000e+00,3.000000000000000000e+00,1.600000000000000000e+01,1.000000000000000000e+00,-2.000000000000000000e+00,6.000000000000000000e+00,-1.000000000000000000e+00,-4.340820312500000000e-01,5.493164062500000000e-04,8.540649414062500000e-01,2.865600585937500000e-01
-3.000000000000000000e+00,-2.000000000000000000e+00,6.000000000000000000e+00,-6.000000000000000000e+00,6.000000000000000000e+00,-9.000000000000000000e+00,-6.000000000000000000e+00,-1.000000000000000000e+00,-4.340820312500000000e-01,5.493164062500000000e-04,8.540649414062500000e-01,2.865600585937500000e-01
-3.000000000000000000e+00,4.000000000000000000e+00,1.000000000000000000e+00,-6.000000000000000000e+00,-8.000000000000000000e+00,-9.000000000000000000e+00,-1.200000000000000000e+01,-4.000000000000000000e+00,-4.340820312500000000e-01,5.493164062500000000e-04,8.540649414062500000e-01,2.865600585937500000e-01
1.000000000000000000e+00,-4.000000000000000000e+00,2.000000000000000000e+00,2.000000000000000000e+00,4.000000000000000000e+00,-3.000000000000000000e+00,1.300000000000000000e+01,0.000000000000000000e+00,-4.342041015625000000e-01,5.493164062500000000e-04,8.540039062500000000e-01,2.864379882812500000e-01
-2.000000000000000000e+00,-9.000000000000000000e+00,-4.800000000000000000e+01,1.600000000000000000e+01,-5.000000000000000000e+00,-5.000000000000000000e+00,-6.000000000000000000e+00,-3.000000000000000000e+00,-4.342041015625000000e-01,5.493164062500000000e-04,8.540039062500000000e-01,2.864379882812500000e-01
2.000000000000000000e+00,-3.000000000000000000e+00,-2.000000000000000000e+00,9.000000000000000000e+00,-2.000000000000000000e+00,9.000000000000000000e+00,8.000000000000000000e+00,-3.000000000000000000e+00,-4.342041015625000000e-01,5.493164062500000000e-04,8.540039062500000000e-01,2.864379882812500000e-01
-8.000000000000000000e+00,-1.000000000000000000e+00,-1.400000000000000000e+01,-8.000000000000000000e+00,2.000000000000000000e+00,3.000000000000000000e+00,-2.000000000000000000e+00,-3.000000000000000000e+00,-4.342041015625000000e-01,5.493164062500000000e-04,8.540039062500000000e-01,2.864379882812500000e-01
5.000000000000000000e+00,5.000000000000000000e+00,5.000000000000000000e+00,3.000000000000000000e+00,-2.100000000000000000e+01,-1.300000000000000000e+01,-1.100000000000000000e+01,0.000000000000000000e+00,-4.345092773437500000e-01,1.037597656250000000e-03,8.538208007812500000e-01,2.866210937500000000e-01
-2.000000000000000000e+00,4.000000000000000000e+00,1.300000000000000000e+01,-2.800000000000000000e+01,6.000000000000000000e+00,5.000000000000000000e+00,8.000000000000000000e+00,0.000000000000000000e+00,-4.345092773437500000e-01,1.037597656250000000e-03,8.538208007812500000e-01,2.866210937500000000e-01
-1.000000000000000000e+00,-3.000000000000000000e+00,0.000000000000000000e+00,2.400000000000000000e+01,1.200000000000000000e+01,0.000000000000000000e+00,-8.000000000000000000e+00,-3.000000000000000000e+00,-4.345092773437500000e-01,1.037597656250000000e-03,8.538208007812500000e-01,2.866210937500000000e-01
-3.000000000000000000e+00,0.000000000000000000e+00,-7.000000000000000000e+00,-1.000000000000000000e+00,0.000000000000000000e+00,-5.000000000000000000e+00,-1.800000000000000000e+01,-3.000000000000000000e+00,-4.345092773437500000e-01,1.037597656250000000e-03,8.538208007812500000e-01,2.866210937500000000e-01
1.000000000000000000e+01,1.000000000000000000e+00,1.000000000000000000e+01,-7.000000000000000000e+00,-8.000000000000000000e+00,-8.000000000000000000e+00,-8.000000000000000000e+00,0.000000000000000000e+00,-4.344482421875000000e-01,2.197265625000000000e-03,8.537597656250000000e-01,2.868652343750000000e-01
-7.000000000000000000e+00,-5.000000000000000000e+00,3.000000000000000000e+00,-1.400000000000000000e+01,-6.000000000000000000e+00,4.000000000000000000e+00,1.000000000000000000e+00,-2.000000000000000000e+00,-4.344482421875000000e-01,2.197265625000000000e-03,8.537597656250000000e-01,2.868652343750000000e-01
0.000000000000000000e+00,-1.000000000000000000e+00,-8.000000000000000000e+00,2.000000000000000000e+00,-3.000000000000000000e+00,-5.000000000000000000e+00,-1.300000000000000000e+01,-3.000000000000000000e+00,-4.344482421875000000e-01,2.197265625000000000e-03,8.537597656250000000e-01,2.868652343750000000e-01
4.000000000000000000e+00,4.000000000000000000e+00,2.000000000000000000e+01,-6.000000000000000000e+00,8.000000000000000000e+00,-1.200000000000000000e+01,8.000000000000000000e+00,1.000000000000000000e+00,-4.344482421875000000e-01,2.197265625000000000e-03,8.537597656250000000e-01,2.868652343750000000e-01
-1.200000000000000000e+01,-1.000000000000000000e+00,-8.000000000000000000e+00,-3.000000000000000000e+00,1.100000000000000000e+01,1.700000000000000000e+01,9.000000000000000000e+00,-1.000000000000000000e+00,-4.342651367187500000e-01,2.868652343750000000e-03,8.538818359375000000e-01,2.868041992187500000e-01
0.000000000000000000e+00,-4.000000000000000000e+00,1.000000000000000000e+01,3.600000000000000000e+01,1.600000000000000000e+01,1.800000000000000000e+01,2.000000000000000000e+00,1.000000000000000000e+00,-4.342651367187500000e-01,2.868652343750000000e-03,8.538818359375000000e-01,2.868041992187500000e-01
6.000000000000000000e+00,-2.000000000000000000e+00,5.000000000000000000e+00,0.000000000000000000e+00,-1.000000000000000000e+01,-6.000000000000000000e+00,-9.000000000000000000e+00,-3.000000000000000000e+00,-4.342651367187500000e-01,2.868652343750000000e-03,8.538818359375000000e-01,2.868041992187500000e-01
-3.000000000000000000e+00,-6.000000000000000000e+00,-8.000000000000000000e+00,-3.900000000000000000e+01,-2.000000000000000000e+00,9.000000000000000000e+00,2.600000000000000000e+01,0.000000000000000000e+00,-4.342651367187500000e-01,2.868652343750000000e-03,8.538818359375000000e-01,2.868041992187500000e-01
2.000000000000000000e+00,2.000000000000000000e+00,7.000000000000000000e+00,2.600000000000000000e+01,-4.000000000000000000e+00,-2.100000000000000000e+01,-1.500000000000000000e+01,-2.000000000000000000e+00,-4.342651367187500000e-01,2.502441406250000000e-03,8.540039062500000000e-01,2.864990234375000000e-01
-4.000000000000000000e+00,-3.000000000000000000e+00,-7.000000000000000000e+00,-1.500000000000000000e+01,-6.000000000000000000e+00,-8.000000000000000000e+00,0.000000000000000000e+00,0.000000000000000000e+00,-4.342651367187500000e-01,2.502441406250000000e-03,8.540039062500000000e-01,2.864990234375000000e-01
-2.000000000000000000e+00,0.000000000000000000e+00,-2.000000000000000000e+00,-1.600000000000000000e+01,-2.000000000000000000e+00,-1.500000000000000000e+01,-1.900000000000000000e+01,-2.000000000000000000e+00,-4.342651367187500000e-01,2.502441406250000000e-03,8.540039062500000000e-01,2.864990234375000000e-01
1.000000000000000000e+00,1.000000000000000000e+00,1.000000000000000000e+00,4.100000000000000000e+01,-3.000000000000000000e+00,2.300000000000000000e+01,1.600000000000000000e+01,0.000000000000000000e+00,-4.342651367187500000e-01,2.502441406250000000e-03,8.540039062500000000e-01,2.864990234375000000e-01
0.000000000000000000e+00,-4.000000000000000000e+00,-2.300000000000000000e+01,-2.100000000000000000e+01,8.000000000000000000e+00,-1.000000000000000000e+00,6.000000000000000000e+00,2.000000000000000000e+00,-4.342041015625000000e-01,1.892089843750000000e-03,8.540649414062500000e-01,2.864379882812500000e-01
2.000000000000000000e+00,1.000000000000000000e+00,8.000000000000000000e+00,-1.500000000000000000e+01,-1.000000000000000000e+00,5.000000000000000000e+00,-1.100000000000000000e+01,-2.000000000000000000e+00,-4.342041015625000000e-01,1.892089843750000000e-03,8.540649414062500000e-01,2.864379882812500000e-01
-4.000000000000000000e+00,-8.000000000000000000e+00,-2.300000000000000000e+01,-1.000000000000000000e+00,0.000000000000000000e+00,-1.100000000000000000e+01,-6.000000000000000000e+00,-3.000000000000000000e+00,-4.342041015625000000e-01,1.892089843750000000e-03,8.540649414062500000e-01,2.864379882812500000e-01
-6.000000000000000000e+00,-4.000000000000000000e+00,1.000000000000000000e+00,-3.000000000000000000e+00,-1.100000000000000000e+01,-6.000000000000000000e+00,-8.000000000000000000e+00,-1.000000000000000000e+00,-4.342041015625000000e-01,1.892089843750000000e-03,8.540649414062500000e-01,2.864379882812500000e-01
-4.000000000000000000e+00,-3.000000000000000000e+00,3.000000000000000000e+00,-5.000000000000000000e+00,-6.000000000000000000e+00,-2.000000000000000000e+00,2.000000000000000000e+00,-2.000000000000000000e+00,-4.342041015625000000e-01,1.770019531250000000e-03,8.538818359375000000e-01,2.868041992187500000e-01
1.000000000000000000e+00,1.000000000000000000e+00,2.000000000000000000e+00,1.200000000000000000e+01,1.000000000000000000e+00,-2.000000000000000000e+00,2.000000000000000000e+00,-1.000000000000000000e+00,-4.342041015625000000e-01,1.770019531250000000e-03,8.538818359375000000e-01,2.868041992187500000e-01
0.000000000000000000e+00,2.000000000000000000e+00,6.000000000000000000e+00,-1.700000000000000000e+01,-7.000000000000000000e+00,-1.000000000000000000e+00,3.000000000000000000e+01,3.000000000000000000e+00,-4.342041015625000000e-01,1.770019531250000000e-03,8.538818359375000000e-01,2.868041992187500000e-01
-5.000000000000000000e+00,3.000000000000000000e+00,1.000000000000000000e+00,1.200000000000000000e+01,3.000000000000000000e+00,-1.100000000000000000e+01,-3.400000000000000000e+01,-6.000000000000000000e+00,-4.342041015625000000e-01,1.770019531250000000e-03,8.538818359375000000e-01,2.868041992187500000e-01
-1.000000000000000000e+00,-4.000000000000000000e+00,-3.100000000000000000e+01,-2.500000000000000000e+01,-2.500000000000000000e+01,1.200000000000000000e+01,7.000000000000000000e+00,-1.000000000000000000e+00,-4.340820312500000000e-01,2.197265625000000000e-03,8.538818359375000000e-01,2.871093750000000000e-01
2.000000000000000000e+00,-8.000000000000000000e+00,2.000000000000000000e+00,1.100000000000000000e+01,2.900000000000000000e+01,1.500000000000000000e+01,4.000000000000000000e+00,3.000000000000000000e+00,-4.340820312500000000e-01,2.197265625000000000e-03,8.538818359375000000e-01,2.871093750000000000e-01
4.000000000000000000e+00,-2.000000000000000000e+00,-6.000000000000000000e+00,-2.400000000000000000e+01,-4.000000000000000000e+00,4.000000000000000000e+00,1.000000000000000000e+01,2.000000000000000000e+00,-4.340820312500000000e-01,2.197265625000000000e-03,8.538818359375000000e-01,2.871093750000000000e-01
-1.000000000000000000e+00,-2.000000000000000000e+00,3.000000000000000000e+00,1.300000000000000000e+01,4.000000000000000000e+00,1.000000000000000000e+00,1.500000000000000000e+01,1.000000000000000000e+00,-4.340820312500000000e-01,2.197265625000000000e-03,8.538818359375000000e-01,2.871093750000000000e-01
2.000000000000000000e+00,2.000000000000000000e+00,1.400000000000000000e+01,-4.000000000000000000e+00,-3.000000000000000000e+00,-1.400000000000000000e+01,-1.300000000000000000e+01,-3.000000000000000000e+00,-4.342041015625000000e-01,2.258300781250000000e-03,8.537597656250000000e-01,2.872314453125000000e-01
-1.000000000000000000e+00,-1.000000000000000000e+00,4.000000000000000000e+00,-1.500000000000000000e+01,-2.200000000000000000e+01,-1.000000000000000000e+01,-2.000000000000000000e+00,-4.000000000000000000e+00,-4.342041015625000000e-01,2.258300781250000000e-03,8.537597656250000000e-01,2.872314453125000000e-01
-5.000000000000000000e+00,0.000000000000000000e+00,-2.000000000000000000e+00,9.000000000000000000e+00,6.000000000000000000e+00,1.000000000000000000e+01,0.000000000000000000e+00,1.000000000000000000e+00,-4.342041015625000000e-01,2.258300781250000000e-03,8.537597656250000000e-01,2.872314453125000000e-01
-1.000000000000000000e+00,2.000000000000000000e+00,-1.000000000000000000e+00,1.000000000000000000e+00,2.000000000000000000e+00,-4.000000000000000000e+00,-1.000000000000000000e+00,0.000000000000000000e+00,-4.342041015625000000e-01,2.258300781250000000e-03,8.537597656250000000e-01,2.872314453125000000e-01
1.000000000000000000e+00,-2.000000000000000000e+00,4.000000000000000000e+00,-1.900000000000000000e+01,-3.000000000000000000e+00,-7.000000000000000000e+00,-1.700000000000000000e+01,-6.000000000000000000e+00,-4.342041015625000000e-01,2.197265625000000000e-03,8.537597656250000000e-01,2.872314453125000000e-01
-3.000000000000000000e+00,0.000000000000000000e+00,1.000000000000000000e+00,1.500000000000000000e+01,0.000000000000000000e+00,-2.000000000000000000e+00,2.500000000000000000e+01,3.000000000000000000e+00,-4.342041015625000000e-01,2.197265625000000000e-03,8.537597656250000000e-01,2.872314453125000000e-01
7.000000000000000000e+00,3.000000000000000000e+00,3.400000000000000000e+01,-1.000000000000000000e+00,7.000000000000000000e+00,1.000000000000000000e+01,-2.500000000000000000e+01,0.000000000000000000e+00,-4.342041015625000000e-01,2.197265625000000000e-03,8.537597656250000000e-01,2.872314453125000000e-01
2.000000000000000000e+00,-8.000000000000000000e+00,-3.500000000000000000e+01,1.200000000000000000e+01,5.000000000000000000e+00,-3.000000000000000000e+00,-1.000000000000000000e+00,-4.000000000000000000e+00,-4.342041015625000000e-01,2.197265625000000000e-03,8.537597656250000000e-01,2.872314453125000000e-01
-1.000000000000000000e+00,-3.000000000000000000e+00,-3.000000000000000000e+00,1.100000000000000000e+01,-3.000000000000000000e+00,-6.000000000000000000e+00,-4.000000000000000000e+00,1.000000000000000000e+00,-4.342041015625000000e-01,2.197265625000000000e-03,8.537597656250000000e-01,2.872314453125000000e-01
-2.000000000000000000e+00,-2.000000000000000000e+00,-5.000000000000000000e+00,-2.200000000000000000e+01,-1.000000000000000000e+01,3.000000000000000000e+00,9.000000000000000000e+00,-2.000000000000000000e+00,-4.342041015625000000e-01,2.197265625000000000e-03,8.537597656250000000e-01,2.872314453125000000e-01
-1.000000000000000000e+01,-2.000000000000000000e+00,-1.400000000000000000e+01,5.000000000000000000e+00,-2.100000000000000000e+01,-9.000000000000000000e+00,-8.000000000000000000e+00,-4.000000000000000000e+00,-4.342041015625000000e-01,2.197265625000000000e-03,8.537597656250000000e-01,2.872314453125000000e-01
-3.000000000000000000e+00,3.000000000000000000e+00,2.600000000000000000e+01,-8.000000000000000000e+00,1.000000000000000000e+00,5.000000000000000000e+00,5.000000000000000000e+00,0.000000000000000000e+00,-4.342041015625000000e-01,2.197265625000000000e-03,8.537597656250000000e-01,2.872314453125000000e-01
9.000000000000000000e+00,-1.000000000000000000e+00,-2.000000000000000000e+01,8.000000000000000000e+00,2.300000000000000000e+01,-2.700000000000000000e+01,1.300000000000000000e+01,1.000000000000000000e+00,-4.342041015625000000e-01,2.136230468750000000e-03,8.537597656250000000e-01,2.872924804687500000e-01
0.000000000000000000e+00,3.000000000000000000e+00,2.300000000000000000e+01,9.000000000000000000e+00,7.000000000000000000e+00,4.500000000000000000e+01,-2.000000000000000000e+01,-4.000000000000000000e+00,-4.342041015625000000e-01,2.136230468750000000e-03,8.537597656250000000e-01,2.872924804687500000e-01
3.000000000000000000e+00,-4.000000000000000000e+00,-2.300000000000000000e+01,-1.300000000000000000e+01,-1.100000000000000000e+01,1.000000000000000000e+00,1.000000000000000000e+00,0.000000000000000000e+00,-4.342041015625000000e-01,2.136230468750000000e-03,8.537597656250000000e-01,2.872924804687500000e-01
-1.100000000000000000e+01,-5.000000000000000000e+00,4.000000000000000000e+00,-1.100000000000000000e+01,-1.200000000000000000e+01,-1.000000000000000000e+00,-2.000000000000000000e+00,-3.000000000000000000e+00,-4.342041015625000000e-01,2.136230468750000000e-03,8.537597656250000000e-01,2.872924804687500000e-01
-9.000000000000000000e+00,-4.000000000000000000e+00,-1.000000000000000000e+00,-2.000000000000000000e+00,-4.000000000000000000e+00,-1.300000000000000000e+01,-5.000000000000000000e+00,-1.000000000000000000e+00,-4.344482421875000000e-01,1.831054687500000000e-03,8.536376953125000000e-01,2.872314453125000000e-01
3.000000000000000000e+00,3.000000000000000000e+00,5.000000000000000000e+00,-3.000000000000000000e+00,-6.000000000000000000e+00,-6.000000000000000000e+00,1.000000000000000000e+00,0.000000000000000000e+00,-4.344482421875000000e-01,1.831054687500000000e-03,8.536376953125000000e-01,2.872314453125000000e-01
4.000000000000000000e+00,2.000000000000000000e+00,-1.800000000000000000e+01,2.000000000000000000e+00,8.000000000000000000e+00,5.000000000000000000e+00,5.000000000000000000e+00,1.000000000000000000e+00,-4.344482421875000000e-01,1.831054687500000000e-03,8.536376953125000000e-01,2.872314453125000000e-01
-6.000000000000000000e+00,1.000000000000000000e+00,1.400000000000000000e+01,1.100000000000000000e+01,0.000000000000000000e+00,3.000000000000000000e+00,1.700000000000000000e+01,1.000000000000000000e+00,-4.344482421875000000e-01,1.831054687500000000e-03,8.536376953125000000e-01,2.872314453125000000e-01
-3.000000000000000000e+00,-4.000000000000000000e+00,7.000000000000000000e+00,7.000000000000000000e+00,9.000000000000000000e+00,6.000000000000000000e+00,-1.100000000000000000e+01,-2.000000000000000000e+00,-4.347534179687500000e-01,1.708984375000000000e-03,8.535156250000000000e-01,2.872314453125000000e-01
2.000000000000000000e+00,-6.000000000000000000e+00,-4.600000000000000000e+01,-1.900000000000000000e+01,-1.300000000000000000e+01,-1.000000000000000000e+01,-4.000000000000000000e+00,-2.000000000000000000e+00,-4.347534179687500000e-01,1.708984375000000000e-03,8.535156250000000000e-01,2.872314453125000000e-01
