-7.000000000000000000e+00,-4.000000000000000000e+00,3.800000000000000000e+01,2.000000000000000000e+01,1.800000000000000000e+01,8.000000000000000000e+00,9.000000000000000000e+00,4.000000000000000000e+00,4.862060546875000000e-01,1.768798828125000000e-01,-8.532714843750000000e-01,6.555175781250000000e-02
-7.000000000000000000e+00,-1.800000000000000000e+01,-3.800000000000000000e+01,-1.000000000000000000e+01,-6.000000000000000000e+00,0.000000000000000000e+00,4.000000000000000000e+00,-5.000000000000000000e+00,4.862060546875000000e-01,1.768798828125000000e-01,-8.532714843750000000e-01,6.555175781250000000e-02
3.000000000000000000e+00,-2.000000000000000000e+00,-2.000000000000000000e+00,-1.900000000000000000e+01,-4.000000000000000000e+00,-5.000000000000000000e+00,-9.000000000000000000e+00,-1.000000000000000000e+00,4.867553710937500000e-01,1.743774414062500000e-01,-8.532104492187500000e-01,6.848144531250000000e-02
-1.000000000000000000e+00,-3.000000000000000000e+00,-3.000000000000000000e+00,-1.300000000000000000e+01,-2.500000000000000000e+01,-7.000000000000000000e+00,-5.000000000000000000e+00,-3.000000000000000000e+00,4.867553710937500000e-01,1.743774414062500000e-01,-8.532104492187500000e-01,6.848144531250000000e-02
8.000000000000000000e+00,1.100000000000000000e+01,0.000000000000000000e+00,1.100000000000000000e+01,-4.000000000000000000e+00,-3.000000000000000000e+00,2.100000000000000000e+01,-1.000000000000000000e+00,4.867553710937500000e-01,1.743774414062500000e-01,-8.532104492187500000e-01,6.848144531250000000e-02
5.000000000000000000e+00,-5.000000000000000000e+00,1.000000000000000000e+01,2.300000000000000000e+01,2.200000000000000000e+01,-4.000000000000000000e+00,-1.900000000000000000e+01,-4.000000000000000000e+00,4.867553710937500000e-01,1.743774414062500000e-01,-8.532104492187500000e-01,6.848144531250000000e-02
-2.000000000000000000e+00,2.000000000000000000e+00,1.400000000000000000e+01,6.000000000000000000e+00,5.000000000000000000e+00,1.800000000000000000e+01,2.800000000000000000e+01,3.000000000000000000e+00,4.868774414062500000e-01,1.726074218750000000e-01,-8.532714843750000000e-01,7.104492187500000000e-02
-2.000000000000000000e+00,-4.000000000000000000e+00,-1.400000000000000000e+01,-2.000000000000000000e+00,-1.100000000000000000e+01,-5.000000000000000000e+00,9.000000000000000000e+00,-2.000000000000000000e+00,4.868774414062500000e-01,1.726074218750000000e-01,-8.532714843750000000e-01,7.104492187500000000e-02
-5.000000000000000000e+00,-8.000000000000000000e+00,-1.300000000000000000e+01,-1.000000000000000000e+01,5.000000000000000000e+00,3.000000000000000000e+00,-7.000000000000000000e+00,-3.000000000000000000e+00,4.868774414062500000e-01,1.726074218750000000e-01,-8.532714843750000000e-01,7.104492187500000000e-02
0.000000000000000000e+00,-3.000000000000000000e+00,7.000000000000000000e+00,-1.000000000000000000e+01,-1.200000000000000000e+01,-4.000000000000000000e+00,3.000000000000000000e+00,0.000000000000000000e+00,4.868774414062500000e-01,1.726074218750000000e-01,-8.532714843750000000e-01,7.104492187500000000e-02
-3.000000000000000000e+00,2.000000000000000000e+00,-3.000000000000000000e+00,8.000000000000000000e+00,-7.000000000000000000e+00,-1.000000000000000000e+01,-1.000000000000000000e+01,1.000000000000000000e+00,4.871215820312500000e-01,1.721191406250000000e-01,-8.530883789062500000e-01,7.281494140625000000e-02
2.000000000000000000e+00,-2.000000000000000000e+00,4.000000000000000000e+00,-9.000000000000000000e+00,1.600000000000000000e+01,-2.000000000000000000e+00,-1.100000000000000000e+01,-3.000000000000000000e+00,4.871215820312500000e-01,1.721191406250000000e-01,-8.530883789062500000e-01,7.281494140625000000e-02
-1.000000000000000000e+00,9.000000000000000000e+00,-1.100000000000000000e+01,2.300000000000000000e+01,9.000000000000000000e+00,6.000000000000000000e+00,-7.000000000000000000e+00,5.000000000000000000e+00,4.871215820312500000e-01,1.721191406250000000e-01,-8.530883789062500000e-01,7.281494140625000000e-02
-1.000000000000000000e+00,-3.000000000000000000e+00,2.200000000000000000e+01,-1.300000000000000000e+01,-5.000000000000000000e+00,4.000000000000000000e+00,1.000000000000000000e+01,0.000000000000000000e+00,4.871215820312500000e-01,1.721191406250000000e-01,-8.530883789062500000e-01,7.281494140625000000e-02
-3.000000000000000000e+00,-5.000000000000000000e+00,-1.800000000000000000e+01,3.000000000000000000e+00,5.000000000000000000e+00,-2.000000000000000000e+00,-1.500000000000000000e+01,-2.000000000000000000e+00,4.873657226562500000e-01,1.718750000000000000e-01,-8.529052734375000000e-01,7.409667968750000000e-02
-4.000000000000000000e+00,3.000000000000000000e+00,0.000000000000000000e+00,-3.000000000000000000e+00,-9.000000000000000000e+00,-1.000000000000000000e+00,-3.000000000000000000e+00,-1.000000000000000000e+00,4.873657226562500000e-01,1.718750000000000000e-01,-8.529052734375000000e-01,7.409667968750000000e-02
4.000000000000000000e+00,-1.000000000000000000e+00,-5.000000000000000000e+00,-5.000000000000000000e+00,-8.000000000000000000e+00,-8.000000000000000000e+00,-7.000000000000000000e+00,-4.000000000000000000e+00,4.873657226562500000e-01,1.718750000000000000e-01,-8.529052734375000000e-01,7.409667968750000000e-02
2.000000000000000000e+00,5.000000000000000000e+00,1.000000000000000000e+01,2.000000000000000000e+01,-1.200000000000000000e+01,-3.000000000000000000e+00,7.000000000000000000e+00,-1.000000000000000000e+00,4.873657226562500000e-01,1.718750000000000000e-01,-8.529052734375000000e-01,7.409667968750000000e-02
-6.000000000000000000e+00,-4.000000000000000000e+00,5.000000000000000000e+00,-4.800000000000000000e+01,-9.000000000000000000e+00,3.000000000000000000e+00,2.000000000000000000e+00,-2.000000000000000000e+00,4.877319335937500000e-01,1.721801757812500000e-01,-8.525390625000000000e-01,7.543945312500000000e-02
3.000000000000000000e+00,-6.000000000000000000e+00,-1.500000000000000000e+01,2.800000000000000000e+01,4.100000000000000000e+01,5.000000000000000000e+00,-1.000000000000000000e+00,-2.000000000000000000e+00,4.877319335937500000e-01,1.721801757812500000e-01,-8.525390625000000000e-01,7.543945312500000000e-02
0.000000000000000000e+00,-2.000000000000000000e+00,1.600000000000000000e+01,-1.000000000000000000e+00,1.000000000000000000e+00,0.000000000000000000e+00,-8.000000000000000000e+00,0.000000000000000000e+00,4.877319335937500000e-01,1.721801757812500000e-01,-8.525390625000000000e-01,7.543945312500000000e-02
-1.000000000000000000e+00,-2.000000000000000000e+00,-2.200000000000000000e+01,-1.000000000000000000e+00,-2.000000000000000000e+00,2.000000000000000000e+00,3.300000000000000000e+01,1.000000000000000000e+00,4.877319335937500000e-01,1.721801757812500000e-01,-8.525390625000000000e-01,7.543945312500000000e-02
4.000000000000000000e+00,4.000000000000000000e+00,4.000000000000000000e+00,-8.000000000000000000e+00,-1.000000000000000000e+01,-6.000000000000000000e+00,-5.000000000000000000e+00,0.000000000000000000e+00,4.875488281250000000e-01,1.732788085937500000e-01,-8.523559570312500000e-01,7.598876953125000000e-02
-4.000000000000000000e+00,-2.000000000000000000e+00,-8.000000000000000000e+00,-1.200000000000000000e+01,-1.700000000000000000e+01,-3.000000000000000000e+00,5.000000000000000000e+00,1.000000000000000000e+00,4.875488281250000000e-01,1.732788085937500000e-01,-8.523559570312500000e-01,7.598876953125000000e-02
-2.000000000000000000e+00,1.000000000000000000e+00,-7.000000000000000000e+00,-2.400000000000000000e+01,-1.900000000000000000e+01,-8.000000000000000000e+00,-1.200000000000000000e+01,-4.000000000000000000e+00,4.875488281250000000e-01,1.732788085937500000e-01,-8.523559570312500000e-01,7.598876953125000000e-02
-1.000000000000000000e+00,4.000000000000000000e+00,1.600000000000000000e+01,3.600000000000000000e+01,5.000000000000000000e+00,1.000000000000000000e+00,-1.300000000000000000e+01,0.000000000000000000e+00,4.875488281250000000e-01,1.732788085937500000e-01,-8.523559570312500000e-01,7.598876953125000000e-02
1.000000000000000000e+00,-1.100000000000000000e+01,-2.000000000000000000e+00,-1.600000000000000000e+01,1.200000000000000000e+01,0.000000000000000000e+00,4.000000000000000000e+00,-2.000000000000000000e+00,4.868164062500000000e-01,1.751098632812500000e-01,-8.523559570312500000e-01,7.604980468750000000e-02
-3.000000000000000000e+00,-5.000000000000000000e+00,7.000000000000000000e+00,2.000000000000000000e+01,1.600000000000000000e+01,1.200000000000000000e+01,3.000000000000000000e+00,0.000000000000000000e+00,4.868164062500000000e-01,1.751098632812500000e-01,-8.523559570312500000e-01,7.604980468750000000e-02
-1.000000000000000000e+00,-4.000000000000000000e+00,-1.500000000000000000e+01,3.000000000000000000e+00,2.000000000000000000e+00,1.000000000000000000e+00,-3.000000000000000000e+00,-7.000000000000000000e+00,4.868164062500000000e-01,1.751098632812500000e-01,-8.523559570312500000e-01,7.604980468750000000e-02
-1.000000000000000000e+00,4.000000000000000000e+00,4.000000000000000000e+00,-1.200000000000000000e+01,-1.500000000000000000e+01,-3.000000000000000000e+00,-1.000000000000000000e+00,8.000000000000000000e+00,4.868164062500000000e-01,1.751098632812500000e-01,-8.523559570312500000e-01,7.604980468750000000e-02
2.000000000000000000e+00,1.000000000000000000e+00,-1.100000000000000000e+01,5.000000000000000000e+00,-1.000000000000000000e+00,-4.000000000000000000e+00,-5.000000000000000000e+00,-1.000000000000000000e+00,4.852905273437500000e-01,1.782226562500000000e-01,-8.527221679687500000e-01,7.519531250000000000e-02
6.000000000000000000e+00,1.200000000000000000e+01,2.300000000000000000e+01,9.000000000000000000e+00,-6.000000000000000000e+00,-5.000000000000000000e+00,-8.000000000000000000e+00,2.000000000000000000e+00,4.852905273437500000e-01,1.782226562500000000e-01,-8.527221679687500000e-01,7.519531250000000000e-02
-6.000000000000000000e+00,-1.700000000000000000e+01,-2.300000000000000000e+01,-2.100000000000000000e+01,-2.000000000000000000e+01,-1.300000000000000000e+01,-1.400000000000000000e+01,-4.000000000000000000e+00,4.852905273437500000e-01,1.782226562500000000e-01,-8.527221679687500000e-01,7.519531250000000000e-02
0.000000000000000000e+00,-3.000000000000000000e+00,-1.600000000000000000e+01,-5.000000000000000000e+00,-2.000000000000000000e+00,7.000000000000000000e+00,9.000000000000000000e+00,-6.000000000000000000e+00,4.852905273437500000e-01,1.782226562500000000e-01,-8.527221679687500000e-01,7.519531250000000000e-02
-5.000000000000000000e+00,-2.000000000000000000e+00,9.000000000000000000e+00,7.000000000000000000e+00,1.200000000000000000e+01,-4.000000000000000000e+00,-7.000000000000000000e+00,-2.000000000000000000e+00,4.838256835937500000e-01,1.812133789062500000e-01,-8.529663085937500000e-01,7.440185546875000000e-02
-1.000000000000000000e+00,0.000000000000000000e+00,1.000000000000000000e+01,-3.000000000000000000e+00,9.000000000000000000e+00,2.000000000000000000e+00,0.000000000000000000e+00,1.000000000000000000e+00,4.838256835937500000e-01,1.812133789062500000e-01,-8.529663085937500000e-01,7.440185546875000000e-02
3.000000000000000000e+00,1.000000000000000000e+00,-4.000000000000000000e+00,8.000000000000000000e+00,-2.000000000000000000e+00,2.000000000000000000e+00,1.000000000000000000e+00,-1.000000000000000000e+00,4.838256835937500000e-01,1.812133789062500000e-01,-8.529663085937500000e-01,7.440185546875000000e-02
2.000000000000000000e+00,0.000000000000000000e+00,8.000000000000000000e+00,-9.000000000000000000e+00,1.000000000000000000e+01,1.000000000000000000e+00,2.000000000000000000e+00,0.000000000000000000e+00,4.838256835937500000e-01,1.812133789062500000e-01,-8.529663085937500000e-01,7.440185546875000000e-02
-1.000000000000000000e+00,0.000000000000000000e+00,-2.700000000000000000e+01,4.000000000000000000e+00,4.000000000000000000e+00,-3.000000000000000000e+00,-3.300000000000000000e+01,-1.000000000000000000e+00,4.826049804687500000e-01,1.834106445312500000e-01,-8.532714843750000000e-01,7.330322265625000000e-02
-2.000000000000000000e+00,-3.000000000000000000e+00,1.000000000000000000e+00,-7.000000000000000000e+00,-2.300000000000000000e+01,-4.000000000000000000e+00,1.700000000000000000e+01,-1.000000000000000000e+00,4.826049804687500000e-01,1.834106445312500000e-01,-8.532714843750000000e-01,7.330322265625000000e-02
0.000000000000000000e+00,-3.000000000000000000e+00,3.000000000000000000e+00,-4.000000000000000000e+00,-6.000000000000000000e+00,-4.000000000000000000e+00,-6.000000000000000000e+00,-2.000000000000000000e+00,4.826049804687500000e-01,1.834106445312500000e-01,-8.532714843750000000e-01,7.330322265625000000e-02
-2.000000000000000000e+00,-1.000000000000000000e+00,6.000000000000000000e+00,5.000000000000000000e+00,6.000000000000000000e+00,-1.000000000000000000e+00,-2.000000000000000000e+00,-1.000000000000000000e+00,4.826049804687500000e-01,1.834106445312500000e-01,-8.532714843750000000e-01,7.330322265625000000e-02
-5.000000000000000000e+00,3.000000000000000000e+00,-2.000000000000000000e+00,-2.000000000000000000e+00,8.000000000000000000e+00,-2.000000000000000000e+00,0.000000000000000000e+00,0.000000000000000000e+00,4.812622070312500000e-01,1.854858398437500000e-01,-8.535766601562500000e-01,7.324218750000000000e-02
1.000000000000000000e+00,-3.000000000000000000e+00,-5.000000000000000000e+00,-1.500000000000000000e+01,0.000000000000000000e+00,0.000000000000000000e+00,-1.100000000000000000e+01,0.000000000000000000e+00,4.812622070312500000e-01,1.854858398437500000e-01,-8.535766601562500000e-01,7.324218750000000000e-02
-1.000000000000000000e+00,0.000000000000000000e+00,6.000000000000000000e+00,1.300000000000000000e+01,8.000000000000000000e+00,5.000000000000000000e+00,1.000000000000000000e+00,1.000000000000000000e+00,4.812622070312500000e-01,1.854858398437500000e-01,-8.535766601562500000e-01,7.324218750000000000e-02
0.000000000000000000e+00,5.000000000000000000e+00,-1.200000000000000000e+01,-1.600000000000000000e+01,-3.000000000000000000e+00,1.000000000000000000e+00,1.000000000000000000e+00,-2.000000000000000000e+00,4.812622070312500000e-01,1.854858398437500000e-01,-8.535766601562500000e-01,7.324218750000000000e-02
-5.000000000000000000e+00,-5.000000000000000000e+00,1.600000000000000000e+01,8.000000000000000000e+00,-5.000000000000000000e+00,-5.000000000000000000e+00,2.000000000000000000e+00,-2.000000000000000000e+00,4.802246093750000000e-01,1.868896484375000000e-01,-8.538818359375000000e-01,7.318115234375000000e-02
-2.000000000000000000e+00,-4.000000000000000000e+00,-8.000000000000000000e+00,-5.000000000000000000e+00,-1.200000000000000000e+01,-4.000000000000000000e+00,-3.000000000000000000e+00,-3.000000000000000000e+00,4.802246093750000000e-01,1.868896484375000000e-01,-8.538818359375000000e-01,7.318115234375000000e-02
-1.000000000000000000e+00,1.000000000000000000e+00,3.000000000000000000e+00,-2.000000000000000000e+00,-4.000000000000000000e+00,-5.000000000000000000e+00,3.000000000000000000e+00,-2.000000000000000000e+00,4.802246093750000000e-01,1.868896484375000000e-01,-8.538818359375000000e-01,7.318115234375000000e-02
-6.000000000000000000e+00,-6.000000000000000000e+00,-6.000000000000000000e+00,2.000000000000000000e+00,-4.000000000000000000e+00,-3.000000000000000000e+00,-1.100000000000000000e+01,-1.000000000000000000e+00,4.802246093750000000e-01,1.868896484375000000e-01,-8.538818359375000000e-01,7.318115234375000000e-02
1.000000000000000000e+00,-1.000000000000000000e+00,2.000000000000000000e+00,0.000000000000000000e+00,1.000000000000000000e+00,4.000000000000000000e+00,1.000000000000000000e+01,-1.000000000000000000e+00,4.794921875000000000e-01,1.873168945312500000e-01,-8.541259765625000000e-01,7.354736328125000000e-02
1.000000000000000000e+00,-1.000000000000000000e+00,-1.000000000000000000e+00,4.000000000000000000e+00,2.000000000000000000e+00,-1.000000000000000000e+00,-7.000000000000000000e+00,0.000000000000000000e+00,4.794921875000000000e-01,1.873168945312500000e-01,-8.541259765625000000e-01,7.354736328125000000e-02
-1.000000000000000000e+00,5.000000000000000000e+00,1.400000000000000000e+01,3.000000000000000000e+00,1.000000000000000000e+00,3.000000000000000000e+00,2.000000000000000000e+00,1.000000000000000000e+00,4.794921875000000000e-01,1.873168945312500000e-01,-8.541259765625000000e-01,7.354736328125000000e-02
2.000000000000000000e+00,0.000000000000000000e+00,-1.500000000000000000e+01,-7.000000000000000000e+00,2.000000000000000000e+00,-2.000000000000000000e+00,-8.000000000000000000e+00,-1.000000000000000000e+00,4.794921875000000000e-01,1.873168945312500000e-01,-8.541259765625000000e-01,7.354736328125000000e-02
-1.000000000000000000e+00,-4.000000000000000000e+00,-3.000000000000000000e+00,9.000000000000000000e+00,-1.400000000000000000e+01,-3.000000000000000000e+00,-1.000000000000000000e+00,-2.000000000000000000e+00,4.788818359375000000e-01,1.870727539062500000e-01,-8.545532226562500000e-01,7.415771484375000000e-02
-1.500000000000000000e+01,-4.000000000000000000e+00,-2.000000000000000000e+00,-2.800000000000000000e+01,-1.000000000000000000e+00,-1.000000000000000000e+00,2.000000000000000000e+00,-2.000000000000000000e+00,4.788818359375000000e-01,1.870727539062500000e-01,-8.545532226562500000e-01,7.415771484375000000e-02
4.000000000000000000e+00,2.000000000000000000e+00,-9.000000000000000000e+00,2.300000000000000000e+01,-4.000000000000000000e+00,-6.000000000000000000e+00,0.000000000000000000e+00,1.000000000000000000e+00,4.788818359375000000e-01,1.870727539062500000e-01,-8.545532226562500000e-01,7.415771484375000000e-02
-5.000000000000000000e+00,-2.000000000000000000e+00,4.000000000000000000e+00,-3.000000000000000000e+00,1.800000000000000000e+01,6.000000000000000000e+00,2.000000000000000000e+00,-2.000000000000000000e+00,4.788818359375000000e-01,1.870727539062500000e-01,-8.545532226562500000e-01,7.415771484375000000e-02
1.000000000000000000e+00,-1.000000000000000000e+00,-2.000000000000000000e+00,3.000000000000000000e+00,4.000000000000000000e+00,3.000000000000000000e+00,2.000000000000000000e+01,-2.000000000000000000e+00,4.781494140625000000e-01,1.865234375000000000e-01,-8.549804687500000000e-01,7.495117187500000000e-02
1.100000000000000000e+01,3.000000000000000000e+00,6.000000000000000000e+00,6.000000000000000000e+00,-1.000000000000000000e+01,-7.000000000000000000e+00,-3.000000000000000000e+01,0.000000000000000000e+00,4.781494140625000000e-01,1.865234375000000000e-01,-8.549804687500000000e-01,7.495117187500000000e-02
-1.700000000000000000e+01,-6.000000000000000000e+00,7.000000000000000000e+00,-5.000000000000000000e+00,-2.000000000000000000e+00,0.000000000000000000e+00,2.000000000000000000e+01,-2.000000000000000000e+00,4.781494140625000000e-01,1.865234375000000000e-01,-8.549804687500000000e-01,7.495117187500000000e-02
-4.000000000000000000e+00,-8.000000000000000000e+00,-9.000000000000000000e+00,-4.000000000000000000e+00,-1.200000000000000000e+01,-5.000000000000000000e+00,-3.000000000000000000e+00,-2.000000000000000000e+00,4.781494140625000000e-01,1.865234375000000000e-01,-8.549804687500000000e-01,7.495117187500000000e-02
-2.000000000000000000e+00,1.000000000000000000e+00,4.000000000000000000e+00,-2.000000000000000000e+01,-1.100000000000000000e+01,-2.000000000000000000e+00,-3.000000000000000000e+00,-1.000000000000000000e+00,4.774780273437500000e-01,1.862792968750000000e-01,-8.553466796875000000e-01,7.556152343750000000e-02
2.000000000000000000e+00,-1.000000000000000000e+00,-5.000000000000000000e+00,1.400000000000000000e+01,1.000000000000000000e+01,7.000000000000000000e+00,-1.000000000000000000e+00,1.000000000000000000e+00,4.774780273437500000e-01,1.862792968750000000e-01,-8.553466796875000000e-01,7.556152343750000000e-02
8.000000000000000000e+00,4.000000000000000000e+00,7.000000000000000000e+00,2.000000000000000000e+01,1.400000000000000000e+01,0.000000000000000000e+00,-8.000000000000000000e+00,2.000000000000000000e+00,4.774780273437500000e-01,1.862792968750000000e-01,-8.553466796875000000e-01,7.556152343750000000e-02
6.000000000000000000e+00,0.000000000000000000e+00,3.000000000000000000e+00,-7.000000000000000000e+00,-1.000000000000000000e+00,0.000000000000000000e+00,3.000000000000000000e+00,1.000000000000000000e+00,4.774780273437500000e-01,1.862792968750000000e-01,-8.553466796875000000e-01,7.556152343750000000e-02
-1.900000000000000000e+01,0.000000000000000000e+00,-9.000000000000000000e+00,-3.000000000000000000e+00,-1.000000000000000000e+00,0.000000000000000000e+00,2.000000000000000000e+00,0.000000000000000000e+00,4.766845703125000000e-01,1.860351562500000000e-01,-8.558349609375000000e-01,7.574462890625000000e-02
0.000000000000000000e+00,-3.000000000000000000e+00,-1.100000000000000000e+01,-1.400000000000000000e+01,-1.500000000000000000e+01,-9.000000000000000000e+00,1.000000000000000000e+00,-1.000000000000000000e+00,4.766845703125000000e-01,1.860351562500000000e-01,-8.558349609375000000e-01,7.574462890625000000e-02
3.000000000000000000e+00,1.000000000000000000e+00,9.000000000000000000e+00,-4.000000000000000000e+00,0.000000000000000000e+00,1.000000000000000000e+00,-9.000000000000000000e+00,-3.000000000000000000e+00,4.766845703125000000e-01,1.860351562500000000e-01,-8.558349609375000000e-01,7.574462890625000000e-02
2.000000000000000000e+00,-3.000000000000000000e+00,0.000000000000000000e+00,-7.000000000000000000e+00,-4.000000000000000000e+00,-3.000000000000000000e+00,-2.000000000000000000e+00,-1.000000000000000000e+00,4.766845703125000000e-01,1.860351562500000000e-01,-8.558349609375000000e-01,7.574462890625000000e-02
1.000000000000000000e+00,0.000000000000000000e+00,6.000000000000000000e+00,7.000000000000000000e+00,-3.000000000000000000e+00,-5.000000000000000000e+00,-4.000000000000000000e+00,-2.000000000000000000e+00,4.758300781250000000e-01,1.860961914062500000e-01,-8.562622070312500000e-01,7.586669921875000000e-02
-2.000000000000000000e+00,0.000000000000000000e+00,4.000000000000000000e+00,6.000000000000000000e+00,-3.000000000000000000e+00,-1.000000000000000000e+00,3.000000000000000000e+00,-3.000000000000000000e+00,4.758300781250000000e-01,1.860961914062500000e-01,-8.562622070312500000e-01,7.586669921875000000e-02
1.000000000000000000e+00,-3.000000000000000000e+00,-3.900000000000000000e+01,-1.000000000000000000e+01,0.000000000000000000e+00,2.000000000000000000e+00,-8.000000000000000000e+00,0.000000000000000000e+00,4.758300781250000000e-01,1.860961914062500000e-01,-8.562622070312500000e-01,7.586669921875000000e-02
-2.000000000000000000e+00,2.000000000000000000e+00,8.000000000000000000e+00,1.000000000000000000e+00,5.000000000000000000e+00,2.000000000000000000e+00,8.000000000000000000e+00,1.000000000000000000e+00,4.758300781250000000e-01,1.860961914062500000e-01,-8.562622070312500000e-01,7.586669921875000000e-02
2.000000000000000000e+00,1.000000000000000000e+00,1.000000000000000000e+00,5.000000000000000000e+00,4.000000000000000000e+00,1.000000000000000000e+00,-5.000000000000000000e+00,1.000000000000000000e+00,4.750366210937500000e-01,1.861572265625000000e-01,-8.567504882812500000e-01,7.556152343750000000e-02
3.000000000000000000e+00,8.000000000000000000e+00,1.000000000000000000e+00,-1.000000000000000000e+00,-1.000000000000000000e+00,1.000000000000000000e+00,1.300000000000000000e+01,0.000000000000000000e+00,4.750366210937500000e-01,1.861572265625000000e-01,-8.567504882812500000e-01,7.556152343750000000e-02
1.000000000000000000e+00,-1.200000000000000000e+01,-6.000000000000000000e+00,-1.300000000000000000e+01,-1.000000000000000000e+01,-6.000000000000000000e+00,-7.000000000000000000e+00,-5.000000000000000000e+00,4.750366210937500000e-01,1.861572265625000000e-01,-8.567504882812500000e-01,7.556152343750000000e-02
-4.000000000000000000e+00,1.000000000000000000e+00,-1.300000000000000000e+01,-8.000000000000000000e+00,-8.000000000000000000e+00,-4.000000000000000000e+00,-4.000000000000000000e+00,1.000000000000000000e+00,4.750366210937500000e-01,1.861572265625000000e-01,-8.567504882812500000e-01,7.556152343750000000e-02
-3.000000000000000000e+00,-6.000000000000000000e+00,-4.000000000000000000e+00,1.700000000000000000e+01,1.900000000000000000e+01,1.300000000000000000e+01,3.400000000000000000e+01,2.000000000000000000e+00,4.740600585937500000e-01,1.864624023437500000e-01,-8.572387695312500000e-01,7.495117187500000000e-02
-3.000000000000000000e+00,3.000000000000000000e+00,4.000000000000000000e+00,3.000000000000000000e+00,7.000000000000000000e+00,2.000000000000000000e+00,5.000000000000000000e+00,1.000000000000000000e+00,4.740600585937500000e-01,1.864624023437500000e-01,-8.572387695312500000e-01,7.495117187500000000e-02
1.000000000000000000e+00,5.000000000000000000e+00,8.000000000000000000e+00,-1.000000000000000000e+00,0.000000000000000000e+00,-1.000000000000000000e+00,1.000000000000000000e+00,-3.000000000000000000e+00,4.740600585937500000e-01,1.864624023437500000e-01,-8.572387695312500000e-01,7.495117187500000000e-02
-2.000000000000000000e+00,3.000000000000000000e+00,8.000000000000000000e+00,2.000000000000000000e+00,-6.000000000000000000e+00,-4.000000000000000000e+00,-6.000000000000000000e+00,-4.000000000000000000e+00,4.740600585937500000e-01,1.864624023437500000e-01,-8.572387695312500000e-01,7.495117187500000000e-02
3.000000000000000000e+00,3.000000000000000000e+00,5.000000000000000000e+00,-3.000000000000000000e+00,-1.000000000000000000e+01,-7.000000000000000000e+00,-1.100000000000000000e+01,-2.000000000000000000e+00,4.730224609375000000e-01,1.877441406250000000e-01,-8.576660156250000000e-01,7.385253906250000000e-02
-2.000000000000000000e+00,-2.000000000000000000e+00,-5.000000000000000000e+00,-2.400000000000000000e+01,-1.100000000000000000e+01,-7.000000000000000000e+00,-9.000000000000000000e+00,-5.000000000000000000e+00,4.730224609375000000e-01,1.877441406250000000e-01,-8.576660156250000000e-01,7.385253906250000000e-02
-4.000000000000000000e+00,-1.000000000000000000e+00,9.000000000000000000e+00,3.000000000000000000e+00,-2.400000000000000000e+01,-4.000000000000000000e+00,8.000000000000000000e+00,-1.000000000000000000e+00,4.730224609375000000e-01,1.877441406250000000e-01,-8.576660156250000000e-01,7.385253906250000000e-02
4.000000000000000000e+00,-3.000000000000000000e+00,-3.000000000000000000e+00,1.200000000000000000e+01,2.600000000000000000e+01,2.000000000000000000e+00,-2.000000000000000000e+00,2.000000000000000000e+00,4.730224609375000000e-01,1.877441406250000000e-01,-8.576660156250000000e-01,7.385253906250000000e-02
-6.000000000000000000e+00,-2.000000000000000000e+00,8.000000000000000000e+00,-8.000000000000000000e+00,5.000000000000000000e+00,2.000000000000000000e+00,-9.000000000000000000e+00,1.000000000000000000e+00,4.718017578125000000e-01,1.893310546875000000e-01,-8.580322265625000000e-01,7.287597656250000000e-02
1.000000000000000000e+00,-2.000000000000000000e+00,-9.000000000000000000e+00,5.000000000000000000e+00,9.000000000000000000e+00,5.000000000000000000e+00,0.000000000000000000e+00,0.000000000000000000e+00,4.718017578125000000e-01,1.893310546875000000e-01,-8.580322265625000000e-01,7.287597656250000000e-02
-2.000000000000000000e+00,-2.000000000000000000e+00,3.000000000000000000e+00,-1.300000000000000000e+01,-6.000000000000000000e+00,-3.000000000000000000e+00,-6.000000000000000000e+00,1.000000000000000000e+00,4.718017578125000000e-01,1.893310546875000000e-01,-8.580322265625000000e-01,7.287597656250000000e-02
3.000000000000000000e+00,4.000000000000000000e+00,6.000000000000000000e+00,0.000000000000000000e+00,-1.400000000000000000e+01,-6.000000000000000000e+00,-1.000000000000000000e+00,0.000000000000000000e+00,4.718017578125000000e-01,1.893310546875000000e-01,-8.580322265625000000e-01,7.287597656250000000e-02
-2.000000000000000000e+00,-1.000000000000000000e+00,-4.000000000000000000e+00,5.000000000000000000e+00,-1.300000000000000000e+01,-5.000000000000000000e+00,-4.000000000000000000e+00,-2.000000000000000000e+00,4.709472656250000000e-01,1.909179687500000000e-01,-8.582763671875000000e-01,7.183837890625000000e-02
-6.000000000000000000e+00,-1.200000000000000000e+01,3.000000000000000000e+00,-7.000000000000000000e+00,4.000000000000000000e+00,0.000000000000000000e+00,-6.000000000000000000e+00,-3.000000000000000000e+00,4.709472656250000000e-01,1.909179687500000000e-01,-8.582763671875000000e-01,7.183837890625000000e-02
-2.000000000000000000e+00,-6.000000000000000000e+00,-1.600000000000000000e+01,-1.900000000000000000e+01,-5.000000000000000000e+00,1.000000000000000000e+00,2.000000000000000000e+00,1.000000000000000000e+00,4.709472656250000000e-01,1.909179687500000000e-01,-8.582763671875000000e-01,7.183837890625000000e-02
-2.000000000000000000e+00,-1.000000000000000000e+00,-3.000000000000000000e+00,1.000000000000000000e+01,4.000000000000000000e+00,-1.000000000000000000e+00,1.000000000000000000e+00,-1.000000000000000000e+00,4.709472656250000000e-01,1.909179687500000000e-01,-8.582763671875000000e-01,7.183837890625000000e-02
6.000000000000000000e+00,5.000000000000000000e+00,-8.000000000000000000e+00,3.000000000000000000e+00,6.000000000000000000e+00,1.000000000000000000e+00,2.000000000000000000e+00,0.000000000000000000e+00,4.703369140625000000e-01,1.917724609375000000e-01,-8.584594726562500000e-01,7.141113281250000000e-02
-2.000000000000000000e+00,1.000000000000000000e+00,1.000000000000000000e+01,2.000000000000000000e+00,-7.000000000000000000e+00,-2.000000000000000000e+00,-1.000000000000000000e+00,0.000000000000000000e+00,4.703369140625000000e-01,1.917724609375000000e-01,-8.584594726562500000e-01,7.141113281250000000e-02
1.000000000000000000e+00,1.000000000000000000e+00,5.000000000000000000e+00,7.000000000000000000e+00,8.000000000000000000e+00,-1.000000000000000000e+00,-1.000000000000000000e+00,0.000000000000000000e+00,4.703369140625000000e-01,1.917724609375000000e-01,-8.584594726562500000e-01,7.141113281250000000e-02
3.000000000000000000e+00,4.000000000000000000e+00,-1.100000000000000000e+01,-5.000000000000000000e+00,-4.000000000000000000e+00,-4.000000000000000000e+00,-1.500000000000000000e+01,-6.000000000000000000e+00,4.703369140625000000e-01,1.917724609375000000e-01,-8.584594726562500000e-01,7.141113281250000000e-02
-1.000000000000000000e+01,-6.000000000000000000e+00,2.000000000000000000e+01,-1.900000000000000000e+01,-1.300000000000000000e+01,-6.000000000000000000e+00,-6.000000000000000000e+00,3.000000000000000000e+00,4.701538085937500000e-01,1.920776367187500000e-01,-8.585205078125000000e-01,7.122802734375000000e-02
-4.000000000000000000e+00,-5.000000000000000000e+00,-1.400000000000000000e+01,4.000000000000000000e+00,-4.000000000000000000e+00,-7.000000000000000000e+00,-7.000000000000000000e+00,-3.000000000000000000e+00,4.701538085937500000e-01,1.920776367187500000e-01,-8.585205078125000000e-01,7.122802734375000000e-02
-8.000000000000000000e+00,1.000000000000000000e+00,1.000000000000000000e+00,1.000000000000000000e+00,-3.000000000000000000e+00,4.000000000000000000e+00,8.000000000000000000e+00,2.000000000000000000e+00,4.701538085937500000e-01,1.920776367187500000e-01,-8.585205078125000000e-01,7.122802734375000000e-02
7.000000000000000000e+00,3.000000000000000000e+00,4.000000000000000000e+00,5.000000000000000000e+00,1.200000000000000000e+01,1.000000000000000000e+00,7.000000000000000000e+00,1.000000000000000000e+00,4.701538085937500000e-01,1.920776367187500000e-01,-8.585205078125000000e-01,7.122802734375000000e-02
5.000000000000000000e+00,-3.000000000000000000e+00,-1.300000000000000000e+01,3.000000000000000000e+00,1.000000000000000000e+01,3.000000000000000000e+00,-1.000000000000000000e+01,-2.000000000000000000e+00,4.702758789062500000e-01,1.917724609375000000e-01,-8.584594726562500000e-01,7.128906250000000000e-02
8.000000000000000000e+00,4.000000000000000000e+00,-3.000000000000000000e+00,7.000000000000000000e+00,3.000000000000000000e+00,2.000000000000000000e+00,-1.000000000000000000e+00,-1.000000000000000000e+00,4.702758789062500000e-01,1.917724609375000000e-01,-8.584594726562500000e-01,7.128906250000000000e-02
-3.000000000000000000e+00,1.000000000000000000e+00,5.000000000000000000e+00,-1.000000000000000000e+00,1.000000000000000000e+00,-2.000000000000000000e+00,-8.000000000000000000e+00,-1.000000000000000000e+00,4.702758789062500000e-01,1.917724609375000000e-01,-8.584594726562500000e-01,7.128906250000000000e-02
-6.000000000000000000e+00,-8.000000000000000000e+00,-3.000000000000000000e+00,-6.000000000000000000e+00,-1.200000000000000000e+01,-5.000000000000000000e+00,-7.000000000000000000e+00,-3.000000000000000000e+00,4.702758789062500000e-01,1.917724609375000000e-01,-8.584594726562500000e-01,7.128906250000000000e-02
1.000000000000000000e+00,-1.000000000000000000e+00,4.000000000000000000e+00,0.000000000000000000e+00,-1.500000000000000000e+01,-5.000000000000000000e+00,-3.000000000000000000e+00,-2.000000000000000000e+00,4.707031250000000000e-01,1.914062500000000000e-01,-8.582763671875000000e-01,7.135009765625000000e-02
-5.000000000000000000e+00,-6.000000000000000000e+00,-2.000000000000000000e+01,6.000000000000000000e+00,1.500000000000000000e+01,1.000000000000000000e+00,7.000000000000000000e+00,-2.000000000000000000e+00,4.707031250000000000e-01,1.914062500000000000e-01,-8.582763671875000000e-01,7.135009765625000000e-02
1.000000000000000000e+00,5.000000000000000000e+00,1.000000000000000000e+01,1.000000000000000000e+01,1.200000000000000000e+01,3.000000000000000000e+00,-1.000000000000000000e+00,-1.000000000000000000e+00,4.707031250000000000e-01,1.914062500000000000e-01,-8.582763671875000000e-01,7.135009765625000000e-02
-3.000000000000000000e+00,1.000000000000000000e+00,3.000000000000000000e+00,4.000000000000000000e+00,7.000000000000000000e+00,8.000000000000000000e+00,8.000000000000000000e+00,1.000000000000000000e+00,4.707031250000000000e-01,1.914062500000000000e-01,-8.582763671875000000e-01,7.135009765625000000e-02
3.000000000000000000e+00,-4.000000000000000000e+00,1.000000000000000000e+00,-3.000000000000000000e+00,2.000000000000000000e+00,-1.000000000000000000e+00,0.000000000000000000e+00,-1.000000000000000000e+00,4.711914062500000000e-01,1.913452148437500000e-01,-8.580932617187500000e-01,7.122802734375000000e-02
2.000000000000000000e+00,0.000000000000000000e+00,-1.000000000000000000e+00,-7.000000000000000000e+00,-1.500000000000000000e+01,-5.000000000000000000e+00,-2.000000000000000000e+00,0.000000000000000000e+00,4.711914062500000000e-01,1.913452148437500000e-01,-8.580932617187500000e-01,7.122802734375000000e-02
-6.000000000000000000e+00,2.000000000000000000e+00,-6.000000000000000000e+00,-4.000000000000000000e+00,-4.000000000000000000e+00,-4.000000000000000000e+00,-2.000000000000000000e+00,-3.000000000000000000e+00,4.711914062500000000e-01,1.913452148437500000e-01,-8.580932617187500000e-01,7.122802734375000000e-02
-5.000000000000000000e+00,-4.000000000000000000e+00,-1.000000000000000000e+01,1.900000000000000000e+01,-1.600000000000000000e+01,-9.000000000000000000e+00,-6.000000000000000000e+00,-1.000000000000000000e+00,4.711914062500000000e-01,1.913452148437500000e-01,-8.580932617187500000e-01,7.122802734375000000e-02
-2.000000000000000000e+00,0.000000000000000000e+00,1.000000000000000000e+01,-3.400000000000000000e+01,1.100000000000000000e+01,7.000000000000000000e+00,3.000000000000000000e+00,1.000000000000000000e+00,4.714355468750000000e-01,1.915283203125000000e-01,-8.579101562500000000e-01,7.116699218750000000e-02
-2.000000000000000000e+00,1.000000000000000000e+00,4.000000000000000000e+00,1.500000000000000000e+01,1.000000000000000000e+01,3.000000000000000000e+00,-1.000000000000000000e+00,-1.000000000000000000e+00,4.714355468750000000e-01,1.915283203125000000e-01,-8.579101562500000000e-01,7.116699218750000000e-02
4.000000000000000000e+00,-2.000000000000000000e+00,-1.300000000000000000e+01,1.200000000000000000e+01,7.000000000000000000e+00,-2.000000000000000000e+00,-1.000000000000000000e+00,0.000000000000000000e+00,4.714355468750000000e-01,1.915283203125000000e-01,-8.579101562500000000e-01,7.116699218750000000e-02
-3.000000000000000000e+00,-3.000000000000000000e+00,1.800000000000000000e+01,2.000000000000000000e+00,-3.000000000000000000e+00,1.000000000000000000e+00,2.000000000000000000e+00,-1.000000000000000000e+00,4.714355468750000000e-01,1.915283203125000000e-01,-8.579101562500000000e-01,7.116699218750000000e-02
-3.000000000000000000e+00,-7.000000000000000000e+00,-3.000000000000000000e+01,-1.000000000000000000e+00,-1.000000000000000000e+01,-1.100000000000000000e+01,-2.000000000000000000e+01,-1.000000000000000000e+00,4.712524414062500000e-01,1.922607421875000000e-01,-8.578491210937500000e-01,7.116699218750000000e-02
-1.000000000000000000e+00,-4.000000000000000000e+00,-2.000000000000000000e+00,-1.500000000000000000e+01,-8.000000000000000000e+00,-2.000000000000000000e+00,6.000000000000000000e+00,2.000000000000000000e+00,4.712524414062500000e-01,1.922607421875000000e-01,-8.578491210937500000e-01,7.116699218750000000e-02
1.000000000000000000e+00,-3.000000000000000000e+00,1.000000000000000000e+01,-1.000000000000000000e+00,-1.000000000000000000e+01,-5.000000000000000000e+00,1.000000000000000000e+00,-6.000000000000000000e+00,4.712524414062500000e-01,1.922607421875000000e-01,-8.578491210937500000e-01,7.116699218750000000e-02
-1.000000000000000000e+00,-1.000000000000000000e+00,1.600000000000000000e+01,-8.000000000000000000e+00,1.400000000000000000e+01,1.000000000000000000e+01,1.100000000000000000e+01,2.000000000000000000e+00,4.712524414062500000e-01,1.922607421875000000e-01,-8.578491210937500000e-01,7.116699218750000000e-02
0.000000000000000000e+00,3.000000000000000000e+00,-3.000000000000000000e+00,1.400000000000000000e+01,1.000000000000000000e+01,3.000000000000000000e+00,5.000000000000000000e+00,-2.000000000000000000e+00,4.710083007812500000e-01,1.933593750000000000e-01,-8.577270507812500000e-01,7.110595703125000000e-02
1.000000000000000000e+00,1.000000000000000000e+00,-1.000000000000000000e+00,5.000000000000000000e+00,-4.000000000000000000e+00,-2.000000000000000000e+00,-7.000000000000000000e+00,0.000000000000000000e+00,4.710083007812500000e-01,1.933593750000000000e-01,-8.577270507812500000e-01,7.110595703125000000e-02
1.000000000000000000e+00,0.000000000000000000e+00,-1.000000000000000000e+01,4.000000000000000000e+00,2.000000000000000000e+00,-1.000000000000000000e+00,-1.000000000000000000e+00,1.000000000000000000e+00,4.710083007812500000e-01,1.933593750000000000e-01,-8.577270507812500000e-01,7.110595703125000000e-02
-1.000000000000000000e+00,-1.000000000000000000e+00,-6.000000000000000000e+00,-2.300000000000000000e+01,-1.700000000000000000e+01,-6.000000000000000000e+00,-1.000000000000000000e+01,-4.000000000000000000e+00,4.710083007812500000e-01,1.933593750000000000e-01,-8.577270507812500000e-01,7.110595703125000000e-02
-2.000000000000000000e+00,4.000000000000000000e+00,-2.000000000000000000e+00,9.000000000000000000e+00,-3.000000000000000000e+00,-4.000000000000000000e+00,-6.000000000000000000e+00,-1.000000000000000000e+00,4.704589843750000000e-01,1.942749023437500000e-01,-8.578491210937500000e-01,7.092285156250000000e-02
-5.000000000000000000e+00,-7.000000000000000000e+00,3.000000000000000000e+00,2.000000000000000000e+00,-1.100000000000000000e+01,-4.000000000000000000e+00,-2.000000000000000000e+00,-3.000000000000000000e+00,4.704589843750000000e-01,1.942749023437500000e-01,-8.578491210937500000e-01,7.092285156250000000e-02
1.000000000000000000e+00,0.000000000000000000e+00,6.000000000000000000e+00,-1.900000000000000000e+01,1.200000000000000000e+01,5.000000000000000000e+00,1.100000000000000000e+01,2.000000000000000000e+00,4.704589843750000000e-01,1.942749023437500000e-01,-8.578491210937500000e-01,7.092285156250000000e-02
-3.000000000000000000e+00,-5.000000000000000000e+00,-2.000000000000000000e+00,1.800000000000000000e+01,9.000000000000000000e+00,3.000000000000000000e+00,0.000000000000000000e+00,2.000000000000000000e+00,4.704589843750000000e-01,1.942749023437500000e-01,-8.578491210937500000e-01,7.092285156250000000e-02
0.000000000000000000e+00,-1.000000000000000000e+00,-3.000000000000000000e+00,-1.000000000000000000e+00,3.000000000000000000e+00,2.000000000000000000e+00,4.000000000000000000e+00,-2.000000000000000000e+00,4.696044921875000000e-01,1.948852539062500000e-01,-8.582153320312500000e-01,7.086181640625000000e-02
0.000000000000000000e+00,1.000000000000000000e+00,-1.000000000000000000e+00,-1.000000000000000000e+00,-8.000000000000000000e+00,-7.000000000000000000e+00,3.000000000000000000e+00,-1.000000000000000000e+00,4.696044921875000000e-01,1.948852539062500000e-01,-8.582153320312500000e-01,7.086181640625000000e-02
-1.000000000000000000e+00,0.000000000000000000e+00,0.000000000000000000e+00,-4.000000000000000000e+00,-8.000000000000000000e+00,-1.000000000000000000e+00,-5.000000000000000000e+00,-2.000000000000000000e+00,4.696044921875000000e-01,1.948852539062500000e-01,-8.582153320312500000e-01,7.086181640625000000e-02
0.000000000000000000e+00,4.000000000000000000e+00,1.000000000000000000e+00,-1.500000000000000000e+01,-7.000000000000000000e+00,-1.000000000000000000e+00,-6.000000000000000000e+00,-1.000000000000000000e+00,4.696044921875000000e-01,1.948852539062500000e-01,-8.582153320312500000e-01,7.086181640625000000e-02
0.000000000000000000e+00,1.000000000000000000e+00,-5.000000000000000000e+00,8.000000000000000000e+00,-5.000000000000000000e+00,-9.000000000000000000e+00,0.000000000000000000e+00,-2.000000000000000000e+00,4.686279296875000000e-01,1.956176757812500000e-01,-8.585205078125000000e-01,7.092285156250000000e-02
-9.000000000000000000e+00,-8.000000000000000000e+00,1.000000000000000000e+00,3.000000000000000000e+00,-3.000000000000000000e+00,5.000000000000000000e+00,-7.000000000000000000e+00,-2.000000000000000000e+00,4.686279296875000000e-01,1.956176757812500000e-01,-8.585205078125000000e-01,7.092285156250000000e-02
-3.000000000000000000e+00,0.000000000000000000e+00,8.000000000000000000e+00,-3.600000000000000000e+01,1.900000000000000000e+01,1.500000000000000000e+01,3.800000000000000000e+01,1.000000000000000000e+00,4.686279296875000000e-01,1.956176757812500000e-01,-8.585205078125000000e-01,7.092285156250000000e-02
0.000000000000000000e+00,-6.000000000000000000e+00,-1.800000000000000000e+01,1.400000000000000000e+01,3.000000000000000000e+00,0.000000000000000000e+00,-2.000000000000000000e+00,-2.000000000000000000e+00,4.686279296875000000e-01,1.956176757812500000e-01,-8.585205078125000000e-01,7.092285156250000000e-02
0.000000000000000000e+00,-2.000000000000000000e+00,-2.000000000000000000e+00,-2.000000000000000000e+00,-7.000000000000000000e+00,-2.000000000000000000e+00,0.000000000000000000e+00,-2.000000000000000000e+00,4.673461914062500000e-01,1.959838867187500000e-01,-8.591308593750000000e-01,7.104492187500000000e-02
-4.000000000000000000e+00,1.000000000000000000e+00,0.000000000000000000e+00,-3.000000000000000000e+00,-1.200000000000000000e+01,-1.000000000000000000e+01,-1.000000000000000000e+00,-1.000000000000000000e+00,4.673461914062500000e-01,1.959838867187500000e-01,-8.591308593750000000e-01,7.104492187500000000e-02
-1.000000000000000000e+00,-1.000000000000000000e+00,1.000000000000000000e+00,2.000000000000000000e+00,-7.000000000000000000e+00,-4.000000000000000000e+00,-1.000000000000000000e+01,-1.000000000000000000e+00,4.673461914062500000e-01,1.959838867187500000e-01,-8.591308593750000000e-01,7.104492187500000000e-02
-1.000000000000000000e+00,2.000000000000000000e+00,8.000000000000000000e+00,-6.000000000000000000e+00,-6.000000000000000000e+00,-1.000000000000000000e+00,-1.000000000000000000e+00,0.000000000000000000e+00,4.673461914062500000e-01,1.959838867187500000e-01,-8.591308593750000000e-01,7.104492187500000000e-02
-1.000000000000000000e+00,-2.000000000000000000e+00,-2.000000000000000000e+00,-8.000000000000000000e+00,-1.000000000000000000e+01,-4.000000000000000000e+00,3.000000000000000000e+00,-1.000000000000000000e+00,4.664306640625000000e-01,1.959228515625000000e-01,-8.596801757812500000e-01,7.104492187500000000e-02
3.000000000000000000e+00,3.000000000000000000e+00,3.000000000000000000e+00,-3.000000000000000000e+00,-7.000000000000000000e+00,0.000000000000000000e+00,-4.000000000000000000e+00,1.000000000000000000e+00,4.664306640625000000e-01,1.959228515625000000e-01,-8.596801757812500000e-01,7.104492187500000000e-02
-1.000000000000000000e+00,0.000000000000000000e+00,-2.000000000000000000e+00,1.900000000000000000e+01,1.700000000000000000e+01,6.000000000000000000e+00,-5.000000000000000000e+00,-1.000000000000000000e+00,4.664306640625000000e-01,1.959228515625000000e-01,-8.596801757812500000e-01,7.104492187500000000e-02
-2.000000000000000000e+00,1.000000000000000000e+00,-5.000000000000000000e+00,-1.100000000000000000e+01,-3.000000000000000000e+00,-3.000000000000000000e+00,-3.000000000000000000e+00,-2.000000000000000000e+00,4.664306640625000000e-01,1.959228515625000000e-01,-8.596801757812500000e-01,7.104492187500000000e-02
2.000000000000000000e+00,-6.000000000000000000e+00,-1.400000000000000000e+01,-7.000000000000000000e+00,7.000000000000000000e+00,3.000000000000000000e+00,-1.600000000000000000e+01,-8.000000000000000000e+00,4.657592773437500000e-01,1.953735351562500000e-01,-8.601074218750000000e-01,7.128906250000000000e-02
1.000000000000000000e+00,1.000000000000000000e+00,7.000000000000000000e+00,1.400000000000000000e+01,9.000000000000000000e+00,3.000000000000000000e+00,2.200000000000000000e+01,4.000000000000000000e+00,4.657592773437500000e-01,1.953735351562500000e-01,-8.601074218750000000e-01,7.128906250000000000e-02
-2.000000000000000000e+00,-1.200000000000000000e+01,1.000000000000000000e+00,3.000000000000000000e+00,-1.000000000000000000e+00,-2.000000000000000000e+00,-6.000000000000000000e+00,2.000000000000000000e+00,4.657592773437500000e-01,1.953735351562500000e-01,-8.601074218750000000e-01,7.128906250000000000e-02
-3.000000000000000000e+00,0.000000000000000000e+00,-3.000000000000000000e+00,-1.000000000000000000e+01,-1.500000000000000000e+01,-8.000000000000000000e+00,-2.000000000000000000e+00,-2.000000000000000000e+00,4.657592773437500000e-01,1.953735351562500000e-01,-8.601074218750000000e-01,7.128906250000000000e-02
-1.000000000000000000e+00,2.000000000000000000e+00,2.000000000000000000e+00,-2.000000000000000000e+00,-6.000000000000000000e+00,-2.000000000000000000e+00,2.000000000000000000e+00,0.000000000000000000e+00,4.650268554687500000e-01,1.951293945312500000e-01,-8.605346679687500000e-01,7.159423828125000000e-02
0.000000000000000000e+00,3.000000000000000000e+00,-1.000000000000000000e+00,0.000000000000000000e+00,4.000000000000000000e+00,4.000000000000000000e+00,2.300000000000000000e+01,-5.000000000000000000e+00,4.650268554687500000e-01,1.951293945312500000e-01,-8.605346679687500000e-01,7.159423828125000000e-02
-2.000000000000000000e+00,0.000000000000000000e+00,-4.000000000000000000e+00,-4.000000000000000000e+00,-3.000000000000000000e+00,-3.000000000000000000e+00,-1.000000000000000000e+00,0.000000000000000000e+00,4.650268554687500000e-01,1.951293945312500000e-01,-8.605346679687500000e-01,7.159423828125000000e-02
-1.000000000000000000e+00,-2.000000000000000000e+00,-2.000000000000000000e+00,1.200000000000000000e+01,6.000000000000000000e+00,-1.000000000000000000e+00,-2.000000000000000000e+00,0.000000000000000000e+00,4.650268554687500000e-01,1.951293945312500000e-01,-8.605346679687500000e-01,7.159423828125000000e-02
0.000000000000000000e+00,2.000000000000000000e+00,2.000000000000000000e+00,3.000000000000000000e+00,4.000000000000000000e+00,7.000000000000000000e+00,1.300000000000000000e+01,0.000000000000000000e+00,4.644775390625000000e-01,1.945800781250000000e-01,-8.609619140625000000e-01,7.159423828125000000e-02
-1.000000000000000000e+00,-3.000000000000000000e+00,-5.000000000000000000e+00,-1.200000000000000000e+01,-1.500000000000000000e+01,-1.100000000000000000e+01,-1.500000000000000000e+01,-2.000000000000000000e+00,4.644775390625000000e-01,1.945800781250000000e-01,-8.609619140625000000e-01,7.159423828125000000e-02
0.000000000000000000e+00,0.000000000000000000e+00,-2.000000000000000000e+00,1.500000000000000000e+01,1.700000000000000000e+01,1.000000000000000000e+00,-4.000000000000000000e+00,1.000000000000000000e+00,4.644775390625000000e-01,1.945800781250000000e-01,-8.609619140625000000e-01,7.159423828125000000e-02
-4.000000000000000000e+00,-2.000000000000000000e+00,-1.000000000000000000e+00,-1.600000000000000000e+01,-7.000000000000000000e+00,1.000000000000000000e+00,1.000000000000000000e+00,0.000000000000000000e+00,4.644775390625000000e-01,1.945800781250000000e-01,-8.609619140625000000e-01,7.159423828125000000e-02
2.000000000000000000e+00,7.000000000000000000e+00,1.300000000000000000e+01,-3.000000000000000000e+00,-4.000000000000000000e+00,2.000000000000000000e+00,6.000000000000000000e+00,2.000000000000000000e+00,4.640502929687500000e-01,1.939697265625000000e-01,-8.613281250000000000e-01,7.153320312500000000e-02
2.000000000000000000e+00,-3.000000000000000000e+00,-1.900000000000000000e+01,1.000000000000000000e+01,8.000000000000000000e+00,0.000000000000000000e+00,-8.000000000000000000e+00,1.000000000000000000e+00,4.640502929687500000e-01,1.939697265625000000e-01,-8.613281250000000000e-01,7.153320312500000000e-02
-1.200000000000000000e+01,-1.300000000000000000e+01,-2.000000000000000000e+00,4.000000000000000000e+00,-3.000000000000000000e+00,-6.000000000000000000e+00,-6.000000000000000000e+00,-3.000000000000000000e+00,4.640502929687500000e-01,1.939697265625000000e-01,-8.613281250000000000e-01,7.153320312500000000e-02
-1.000000000000000000e+00,0.000000000000000000e+00,6.000000000000000000e+00,-8.000000000000000000e+00,5.000000000000000000e+00,-1.000000000000000000e+00,-7.000000000000000000e+00,-2.000000000000000000e+00,4.640502929687500000e-01,1.939697265625000000e-01,-8.613281250000000000e-01,7.153320312500000000e-02
-4.000000000000000000e+00,-5.000000000000000000e+00,-4.000000000000000000e+00,-1.000000000000000000e+00,4.000000000000000000e+00,-1.000000000000000000e+00,-2.000000000000000000e+00,1.000000000000000000e+00,4.635009765625000000e-01,1.940307617187500000e-01,-8.616333007812500000e-01,7.135009765625000000e-02
2.000000000000000000e+00,5.000000000000000000e+00,1.600000000000000000e+01,0.000000000000000000e+00,-1.500000000000000000e+01,-4.000000000000000000e+00,-4.000000000000000000e+00,-1.000000000000000000e+00,4.635009765625000000e-01,1.940307617187500000e-01,-8.616333007812500000e-01,7.135009765625000000e-02
6.000000000000000000e+00,7.000000000000000000e+00,-1.100000000000000000e+01,1.500000000000000000e+01,-9.000000000000000000e+00,-3.000000000000000000e+00,-1.000000000000000000e+00,0.000000000000000000e+00,4.635009765625000000e-01,1.940307617187500000e-01,-8.616333007812500000e-01,7.135009765625000000e-02
1.000000000000000000e+00,0.000000000000000000e+00,-7.000000000000000000e+00,-2.700000000000000000e+01,8.000000000000000000e+00,2.000000000000000000e+00,-8.000000000000000000e+00,1.000000000000000000e+00,4.635009765625000000e-01,1.940307617187500000e-01,-8.616333007812500000e-01,7.135009765625000000e-02
-2.000000000000000000e+00,0.000000000000000000e+00,9.000000000000000000e+00,3.200000000000000000e+01,1.200000000000000000e+01,4.000000000000000000e+00,-4.000000000000000000e+00,1.000000000000000000e+00,4.630126953125000000e-01,1.947631835937500000e-01,-8.618164062500000000e-01,7.061767578125000000e-02
-4.000000000000000000e+00,3.000000000000000000e+00,-3.000000000000000000e+00,-1.400000000000000000e+01,-1.000000000000000000e+00,1.000000000000000000e+00,-4.000000000000000000e+00,-1.000000000000000000e+00,4.630126953125000000e-01,1.947631835937500000e-01,-8.618164062500000000e-01,7.061767578125000000e-02
1.000000000000000000e+00,-6.000000000000000000e+00,-1.100000000000000000e+01,4.000000000000000000e+00,-9.000000000000000000e+00,-7.000000000000000000e+00,-7.000000000000000000e+00,-1.000000000000000000e+00,4.630126953125000000e-01,1.947631835937500000e-01,-8.618164062500000000e-01,7.061767578125000000e-02
-1.000000000000000000e+00,-2.000000000000000000e+00,1.000000000000000000e+00,3.000000000000000000e+00,-7.000000000000000000e+00,0.000000000000000000e+00,3.000000000000000000e+00,1.000000000000000000e+00,4.630126953125000000e-01,1.947631835937500000e-01,-8.618164062500000000e-01,7.061767578125000000e-02
1.000000000000000000e+00,1.000000000000000000e+00,-3.000000000000000000e+00,-1.000000000000000000e+01,-3.000000000000000000e+00,-4.000000000000000000e+00,1.800000000000000000e+01,-4.000000000000000000e+00,4.625854492187500000e-01,1.950683593750000000e-01,-8.619995117187500000e-01,6.982421875000000000e-02
-2.000000000000000000e+00,0.000000000000000000e+00,2.000000000000000000e+00,-6.000000000000000000e+00,3.000000000000000000e+00,-1.000000000000000000e+00,-9.000000000000000000e+00,1.000000000000000000e+00,4.625854492187500000e-01,1.950683593750000000e-01,-8.619995117187500000e-01,6.982421875000000000e-02
-4.000000000000000000e+00,-4.000000000000000000e+00,0.000000000000000000e+00,-1.000000000000000000e+00,-1.000000000000000000e+00,3.000000000000000000e+00,5.000000000000000000e+00,1.000000000000000000e+00,4.625854492187500000e-01,1.950683593750000000e-01,-8.619995117187500000e-01,6.982421875000000000e-02
-1.000000000000000000e+00,1.000000000000000000e+00,3.000000000000000000e+00,2.000000000000000000e+00,-1.000000000000000000e+01,-6.000000000000000000e+00,7.000000000000000000e+00,-3.000000000000000000e+00,4.625854492187500000e-01,1.950683593750000000e-01,-8.619995117187500000e-01,6.982421875000000000e-02
-1.000000000000000000e+00,-2.000000000000000000e+00,-2.000000000000000000e+00,-5.000000000000000000e+00,4.000000000000000000e+00,2.000000000000000000e+00,-4.000000000000000000e+00,5.000000000000000000e+00,4.625854492187500000e-01,1.956787109375000000e-01,-8.619384765625000000e-01,6.933593750000000000e-02
1.000000000000000000e+00,-2.000000000000000000e+00,5.000000000000000000e+00,9.000000000000000000e+00,9.000000000000000000e+00,0.000000000000000000e+00,-1.100000000000000000e+01,-2.000000000000000000e+00,4.625854492187500000e-01,1.956787109375000000e-01,-8.619384765625000000e-01,6.933593750000000000e-02
1.000000000000000000e+00,5.000000000000000000e+00,-1.000000000000000000e+01,-1.500000000000000000e+01,-1.300000000000000000e+01,-4.000000000000000000e+00,9.000000000000000000e+00,-2.000000000000000000e+00,4.625854492187500000e-01,1.956787109375000000e-01,-8.619384765625000000e-01,6.933593750000000000e-02
0.000000000000000000e+00,-9.000000000000000000e+00,-1.300000000000000000e+01,3.000000000000000000e+00,3.000000000000000000e+00,2.000000000000000000e+00,1.500000000000000000e+01,0.000000000000000000e+00,4.625854492187500000e-01,1.956787109375000000e-01,-8.619384765625000000e-01,6.933593750000000000e-02
0.000000000000000000e+00,2.000000000000000000e+00,-1.900000000000000000e+01,9.000000000000000000e+00,-7.000000000000000000e+00,-7.000000000000000000e+00,-3.500000000000000000e+01,-7.000000000000000000e+00,4.626464843750000000e-01,1.964721679687500000e-01,-8.617553710937500000e-01,6.903076171875000000e-02
1.000000000000000000e+00,-5.000000000000000000e+00,4.900000000000000000e+01,-1.000000000000000000e+01,-2.000000000000000000e+00,-6.000000000000000000e+00,-1.000000000000000000e+01,-1.000000000000000000e+00,4.626464843750000000e-01,1.964721679687500000e-01,-8.617553710937500000e-01,6.903076171875000000e-02
-1.200000000000000000e+01,-6.000000000000000000e+00,-1.300000000000000000e+01,6.000000000000000000e+00,8.000000000000000000e+00,1.800000000000000000e+01,-8.000000000000000000e+00,-3.000000000000000000e+00,4.626464843750000000e-01,1.964721679687500000e-01,-8.617553710937500000e-01,6.903076171875000000e-02
0.000000000000000000e+00,5.000000000000000000e+00,3.000000000000000000e+00,1.000000000000000000e+00,1.400000000000000000e+01,1.000000000000000000e+00,-3.000000000000000000e+00,0.000000000000000000e+00,4.626464843750000000e-01,1.964721679687500000e-01,-8.617553710937500000e-01,6.903076171875000000e-02
-2.000000000000000000e+00,2.000000000000000000e+00,2.000000000000000000e+00,0.000000000000000000e+00,-1.400000000000000000e+01,-2.000000000000000000e+00,4.000000000000000000e+00,1.000000000000000000e+00,4.628295898437500000e-01,1.972656250000000000e-01,-8.615112304687500000e-01,6.884765625000000000e-02
-2.000000000000000000e+00,0.000000000000000000e+00,-1.200000000000000000e+01,-1.000000000000000000e+00,3.000000000000000000e+00,-6.000000000000000000e+00,3.000000000000000000e+00,-2.000000000000000000e+00,4.628295898437500000e-01,1.972656250000000000e-01,-8.615112304687500000e-01,6.884765625000000000e-02
6.000000000000000000e+00,2.000000000000000000e+00,9.000000000000000000e+00,-4.000000000000000000e+00,-1.400000000000000000e+01,-1.400000000000000000e+01,-1.200000000000000000e+01,0.000000000000000000e+00,4.628295898437500000e-01,1.972656250000000000e-01,-8.615112304687500000e-01,6.884765625000000000e-02
-1.000000000000000000e+00,-3.000000000000000000e+00,1.000000000000000000e+00,1.200000000000000000e+01,2.700000000000000000e+01,1.300000000000000000e+01,3.000000000000000000e+00,-2.000000000000000000e+00,4.628295898437500000e-01,1.972656250000000000e-01,-8.615112304687500000e-01,6.884765625000000000e-02
-4.000000000000000000e+00,-2.000000000000000000e+00,-1.000000000000000000e+00,-2.000000000000000000e+00,-4.000000000000000000e+00,-3.000000000000000000e+00,-4.000000000000000000e+00,-2.000000000000000000e+00,4.630126953125000000e-01,1.976928710937500000e-01,-8.612670898437500000e-01,6.860351562500000000e-02
2.000000000000000000e+00,0.000000000000000000e+00,-1.600000000000000000e+01,-1.000000000000000000e+01,-1.500000000000000000e+01,-2.000000000000000000e+00,9.000000000000000000e+00,-1.000000000000000000e+00,4.630126953125000000e-01,1.976928710937500000e-01,-8.612670898437500000e-01,6.860351562500000000e-02
-5.000000000000000000e+00,0.000000000000000000e+00,1.000000000000000000e+01,7.000000000000000000e+00,1.300000000000000000e+01,-2.000000000000000000e+00,3.000000000000000000e+00,0.000000000000000000e+00,4.630126953125000000e-01,1.976928710937500000e-01,-8.612670898437500000e-01,6.860351562500000000e-02
-3.000000000000000000e+00,-5.000000000000000000e+00,-6.000000000000000000e+00,4.000000000000000000e+00,2.000000000000000000e+00,-1.000000000000000000e+00,-1.400000000000000000e+01,1.000000000000000000e+00,4.630126953125000000e-01,1.976928710937500000e-01,-8.612670898437500000e-01,6.860351562500000000e-02
1.000000000000000000e+00,0.000000000000000000e+00,1.000000000000000000e+00,-1.000000000000000000e+01,3.000000000000000000e+00,-2.000000000000000000e+00,1.000000000000000000e+00,1.000000000000000000e+00,4.633789062500000000e-01,1.983032226562500000e-01,-8.609619140625000000e-01,6.823730468750000000e-02
-3.000000000000000000e+00,-2.000000000000000000e+00,-2.000000000000000000e+00,-5.000000000000000000e+00,-1.400000000000000000e+01,0.000000000000000000e+00,2.300000000000000000e+01,-3.000000000000000000e+00,4.633789062500000000e-01,1.983032226562500000e-01,-8.609619140625000000e-01,6.823730468750000000e-02
2.000000000000000000e+00,1.000000000000000000e+00,-1.200000000000000000e+01,-8.000000000000000000e+00,-4.000000000000000000e+00,-5.000000000000000000e+00,-9.000000000000000000e+00,-1.000000000000000000e+00,4.633789062500000000e-01,1.983032226562500000e-01,-8.609619140625000000e-01,6.823730468750000000e-02
-1.000000000000000000e+00,0.000000000000000000e+00,5.000000000000000000e+00,-9.000000000000000000e+00,-1.700000000000000000e+01,-5.000000000000000000e+00,3.000000000000000000e+00,-1.000000000000000000e+00,4.633789062500000000e-01,1.983032226562500000e-01,-8.609619140625000000e-01,6.823730468750000000e-02
-5.000000000000000000e+00,-6.000000000000000000e+00,-5.000000000000000000e+00,-2.000000000000000000e+00,5.000000000000000000e+00,2.000000000000000000e+00,1.000000000000000000e+00,0.000000000000000000e+00,4.639282226562500000e-01,1.984863281250000000e-01,-8.607177734375000000e-01,6.799316406250000000e-02
-5.000000000000000000e+00,-7.000000000000000000e+00,-1.200000000000000000e+01,-2.000000000000000000e+00,-5.000000000000000000e+00,0.000000000000000000e+00,-2.000000000000000000e+00,-2.000000000000000000e+00,4.639282226562500000e-01,1.984863281250000000e-01,-8.607177734375000000e-01,6.799316406250000000e-02
5.000000000000000000e+00,3.000000000000000000e+00,1.000000000000000000e+00,-1.000000000000000000e+00,-1.000000000000000000e+00,-7.000000000000000000e+00,-6.000000000000000000e+00,-1.000000000000000000e+00,4.639282226562500000e-01,1.984863281250000000e-01,-8.607177734375000000e-01,6.799316406250000000e-02
-2.000000000000000000e+00,1.000000000000000000e+00,6.000000000000000000e+00,5.000000000000000000e+00,-8.000000000000000000e+00,-4.000000000000000000e+00,-2.000000000000000000e+00,-2.000000000000000000e+00,4.639282226562500000e-01,1.984863281250000000e-01,-8.607177734375000000e-01,6.799316406250000000e-02
-2.000000000000000000e+00,0.000000000000000000e+00,-1.000000000000000000e+01,-1.700000000000000000e+01,-8.000000000000000000e+00,2.000000000000000000e+00,8.000000000000000000e+00,0.000000000000000000e+00,4.644165039062500000e-01,1.984252929687500000e-01,-8.604125976562500000e-01,6.823730468750000000e-02
-1.000000000000000000e+00,-5.000000000000000000e+00,-1.200000000000000000e+01,1.900000000000000000e+01,1.800000000000000000e+01,4.000000000000000000e+00,-8.000000000000000000e+00,1.000000000000000000e+00,4.644165039062500000e-01,1.984252929687500000e-01,-8.604125976562500000e-01,6.823730468750000000e-02
7.000000000000000000e+00,1.000000000000000000e+00,6.000000000000000000e+00,2.000000000000000000e+00,-4.000000000000000000e+00,-1.000000000000000000e+00,-3.000000000000000000e+00,-1.000000000000000000e+00,4.644165039062500000e-01,1.984252929687500000e-01,-8.604125976562500000e-01,6.823730468750000000e-02
-1.200000000000000000e+01,-6.000000000000000000e+00,-5.000000000000000000e+00,-1.300000000000000000e+01,-1.400000000000000000e+01,-6.000000000000000000e+00,-4.000000000000000000e+00,-1.000000000000000000e+00,4.644165039062500000e-01,1.984252929687500000e-01,-8.604125976562500000e-01,6.823730468750000000e-02
1.000000000000000000e+00,-2.000000000000000000e+00,-3.000000000000000000e+00,-4.000000000000000000e+00,-1.000000000000000000e+00,4.000000000000000000e+00,4.000000000000000000e+00,0.000000000000000000e+00,4.646606445312500000e-01,1.990966796875000000e-01,-8.600463867187500000e-01,6.866455078125000000e-02
3.000000000000000000e+00,7.000000000000000000e+00,1.600000000000000000e+01,1.000000000000000000e+01,1.600000000000000000e+01,7.000000000000000000e+00,-3.000000000000000000e+00,2.000000000000000000e+00,4.646606445312500000e-01,1.990966796875000000e-01,-8.600463867187500000e-01,6.866455078125000000e-02
-3.000000000000000000e+00,-6.000000000000000000e+00,-2.200000000000000000e+01,-2.000000000000000000e+00,-2.000000000000000000e+00,-1.000000000000000000e+00,2.000000000000000000e+00,-1.000000000000000000e+00,4.646606445312500000e-01,1.990966796875000000e-01,-8.600463867187500000e-01,6.866455078125000000e-02
3.000000000000000000e+00,2.000000000000000000e+00,8.000000000000000000e+00,2.000000000000000000e+00,-8.000000000000000000e+00,-1.000000000000000000e+00,2.000000000000000000e+00,-1.000000000000000000e+00,4.646606445312500000e-01,1.990966796875000000e-01,-8.600463867187500000e-01,6.866455078125000000e-02
3.000000000000000000e+00,-1.000000000000000000e+00,5.000000000000000000e+00,-1.000000000000000000e+00,-2.100000000000000000e+01,-1.000000000000000000e+01,-3.000000000000000000e+00,0.000000000000000000e+00,4.645385742187500000e-01,2.003173828125000000e-01,-8.598632812500000000e-01,6.860351562500000000e-02
-8.000000000000000000e+00,-3.000000000000000000e+00,-1.100000000000000000e+01,-1.000000000000000000e+00,3.300000000000000000e+01,7.000000000000000000e+00,-2.000000000000000000e+00,0.000000000000000000e+00,4.645385742187500000e-01,2.003173828125000000e-01,-8.598632812500000000e-01,6.860351562500000000e-02
-5.000000000000000000e+00,-6.000000000000000000e+00,1.000000000000000000e+01,1.000000000000000000e+00,3.000000000000000000e+00,1.000000000000000000e+00,1.000000000000000000e+00,-1.000000000000000000e+00,4.645385742187500000e-01,2.003173828125000000e-01,-8.598632812500000000e-01,6.860351562500000000e-02
0.000000000000000000e+00,0.000000000000000000e+00,-8.000000000000000000e+00,3.000000000000000000e+00,-7.000000000000000000e+00,-3.000000000000000000e+00,-1.000000000000000000e+00,-2.000000000000000000e+00,4.645385742187500000e-01,2.003173828125000000e-01,-8.598632812500000000e-01,6.860351562500000000e-02
-1.000000000000000000e+00,0.000000000000000000e+00,7.000000000000000000e+00,0.000000000000000000e+00,7.000000000000000000e+00,2.000000000000000000e+00,-1.000000000000000000e+00,-4.000000000000000000e+00,4.641113281250000000e-01,2.019042968750000000e-01,-8.598022460937500000e-01,6.805419921875000000e-02
3.000000000000000000e+00,2.000000000000000000e+00,-5.000000000000000000e+00,-6.000000000000000000e+00,-1.800000000000000000e+01,-6.000000000000000000e+00,6.000000000000000000e+00,4.000000000000000000e+00,4.641113281250000000e-01,2.019042968750000000e-01,-8.598022460937500000e-01,6.805419921875000000e-02
1.000000000000000000e+00,4.000000000000000000e+00,1.600000000000000000e+01,-1.500000000000000000e+01,-2.500000000000000000e+01,-2.000000000000000000e+00,2.000000000000000000e+00,-1.000000000000000000e+00,4.641113281250000000e-01,2.019042968750000000e-01,-8.598022460937500000e-01,6.805419921875000000e-02
-2.000000000000000000e+00,-3.000000000000000000e+00,-1.800000000000000000e+01,0.000000000000000000e+00,2.700000000000000000e+01,5.000000000000000000e+00,4.300000000000000000e+01,0.000000000000000000e+00,4.641113281250000000e-01,2.019042968750000000e-01,-8.598022460937500000e-01,6.805419921875000000e-02
0.000000000000000000e+00,-8.000000000000000000e+00,-6.000000000000000000e+00,1.700000000000000000e+01,2.200000000000000000e+01,3.000000000000000000e+00,-6.000000000000000000e+00,-1.000000000000000000e+00,4.636230468750000000e-01,2.034301757812500000e-01,-8.596801757812500000e-01,6.756591796875000000e-02
-2.000000000000000000e+00,0.000000000000000000e+00,-3.000000000000000000e+00,-1.100000000000000000e+01,-3.000000000000000000e+00,3.000000000000000000e+00,4.000000000000000000e+00,-4.000000000000000000e+00,4.636230468750000000e-01,2.034301757812500000e-01,-8.596801757812500000e-01,6.756591796875000000e-02
-1.000000000000000000e+00,-1.000000000000000000e+00,1.000000000000000000e+00,5.000000000000000000e+00,3.000000000000000000e+00,1.000000000000000000e+00,3.000000000000000000e+00,-3.000000000000000000e+00,4.636230468750000000e-01,2.034301757812500000e-01,-8.596801757812500000e-01,6.756591796875000000e-02
2.000000000000000000e+00,4.000000000000000000e+00,3.000000000000000000e+00,-1.200000000000000000e+01,-2.400000000000000000e+01,-1.100000000000000000e+01,-1.100000000000000000e+01,0.000000000000000000e+00,4.636230468750000000e-01,2.034301757812500000e-01,-8.596801757812500000e-01,6.756591796875000000e-02
3.000000000000000000e+00,1.000000000000000000e+00,-4.000000000000000000e+00,1.100000000000000000e+01,0.000000000000000000e+00,-5.000000000000000000e+00,-8.000000000000000000e+00,-2.000000000000000000e+00,4.630126953125000000e-01,2.049560546875000000e-01,-8.597412109375000000e-01,6.707763671875000000e-02
-1.400000000000000000e+01,-1.000000000000000000e+01,-2.400000000000000000e+01,-1.300000000000000000e+01,7.000000000000000000e+00,7.000000000000000000e+00,-7.000000000000000000e+00,-1.000000000000000000e+00,4.630126953125000000e-01,2.049560546875000000e-01,-8.597412109375000000e-01,6.707763671875000000e-02
-4.000000000000000000e+00,1.000000000000000000e+00,0.000000000000000000e+00,1.000000000000000000e+00,0.000000000000000000e+00,-5.000000000000000000e+00,-1.100000000000000000e+01,0.000000000000000000e+00,4.630126953125000000e-01,2.049560546875000000e-01,-8.597412109375000000e-01,6.707763671875000000e-02
4.000000000000000000e+00,-2.000000000000000000e+00,8.000000000000000000e+00,3.000000000000000000e+00,-3.000000000000000000e+00,-1.000000000000000000e+00,-1.400000000000000000e+01,0.000000000000000000e+00,4.630126953125000000e-01,2.049560546875000000e-01,-8.597412109375000000e-01,6.707763671875000000e-02
2.000000000000000000e+00,1.000000000000000000e+00,-1.000000000000000000e+00,2.000000000000000000e+00,0.000000000000000000e+00,-5.000000000000000000e+00,-3.000000000000000000e+00,-1.000000000000000000e+00,4.622192382812500000e-01,2.060546875000000000e-01,-8.599243164062500000e-01,6.652832031250000000e-02
1.000000000000000000e+00,-7.000000000000000000e+00,5.000000000000000000e+00,-1.800000000000000000e+01,-8.000000000000000000e+00,-5.000000000000000000e+00,-9.000000000000000000e+00,-2.000000000000000000e+00,4.622192382812500000e-01,2.060546875000000000e-01,-8.599243164062500000e-01,6.652832031250000000e-02
1.000000000000000000e+00,1.000000000000000000e+00,-2.000000000000000000e+00,4.000000000000000000e+00,-8.000000000000000000e+00,-1.000000000000000000e+00,6.000000000000000000e+00,-1.000000000000000000e+00,4.622192382812500000e-01,2.060546875000000000e-01,-8.599243164062500000e-01,6.652832031250000000e-02
-2.000000000000000000e+00,-1.000000000000000000e+00,-2.000000000000000000e+00,7.000000000000000000e+00,-4.000000000000000000e+00,0.000000000000000000e+00,-9.000000000000000000e+00,-1.000000000000000000e+00,4.622192382812500000e-01,2.060546875000000000e-01,-8.599243164062500000e-01,6.652832031250000000e-02
0.000000000000000000e+00,4.000000000000000000e+00,1.000000000000000000e+01,9.000000000000000000e+00,4.000000000000000000e+00,2.000000000000000000e+00,2.000000000000000000e+00,1.000000000000000000e+00,4.614868164062500000e-01,2.064819335937500000e-01,-8.602294921875000000e-01,6.616210937500000000e-02
4.000000000000000000e+00,1.000000000000000000e+00,8.000000000000000000e+00,3.000000000000000000e+00,-1.000000000000000000e+01,0.000000000000000000e+00,1.200000000000000000e+01,2.000000000000000000e+00,4.614868164062500000e-01,2.064819335937500000e-01,-8.602294921875000000e-01,6.616210937500000000e-02
-7.000000000000000000e+00,-2.000000000000000000e+00,-1.400000000000000000e+01,-4.000000000000000000e+00,1.000000000000000000e+01,2.000000000000000000e+00,-6.000000000000000000e+00,-2.000000000000000000e+00,4.614868164062500000e-01,2.064819335937500000e-01,-8.602294921875000000e-01,6.616210937500000000e-02
-1.000000000000000000e+00,-1.000000000000000000e+00,-1.000000000000000000e+00,1.000000000000000000e+01,-3.000000000000000000e+00,-6.000000000000000000e+00,1.700000000000000000e+01,-1.000000000000000000e+00,4.614868164062500000e-01,2.064819335937500000e-01,-8.602294921875000000e-01,6.616210937500000000e-02
-3.000000000000000000e+00,-8.000000000000000000e+00,4.000000000000000000e+00,-1.500000000000000000e+01,3.000000000000000000e+00,-8.000000000000000000e+00,-3.100000000000000000e+01,0.000000000000000000e+00,4.605712890625000000e-01,2.066040039062500000e-01,-8.607177734375000000e-01,6.622314453125000000e-02
2.000000000000000000e+00,3.000000000000000000e+00,-5.000000000000000000e+00,-5.000000000000000000e+00,-3.600000000000000000e+01,-9.000000000000000000e+00,-6.000000000000000000e+00,-3.000000000000000000e+00,4.605712890625000000e-01,2.066040039062500000e-01,-8.607177734375000000e-01,6.622314453125000000e-02
2.000000000000000000e+00,0.000000000000000000e+00,1.200000000000000000e+01,5.000000000000000000e+00,2.600000000000000000e+01,6.000000000000000000e+00,1.000000000000000000e+00,2.000000000000000000e+00,4.605712890625000000e-01,2.066040039062500000e-01,-8.607177734375000000e-01,6.622314453125000000e-02
2.000000000000000000e+00,7.000000000000000000e+00,1.500000000000000000e+01,1.200000000000000000e+01,1.900000000000000000e+01,1.000000000000000000e+01,-1.200000000000000000e+01,-1.000000000000000000e+00,4.605712890625000000e-01,2.066040039062500000e-01,-8.607177734375000000e-01,6.622314453125000000e-02
-2.000000000000000000e+00,-2.000000000000000000e+00,-1.600000000000000000e+01,-6.000000000000000000e+00,-4.000000000000000000e+00,6.000000000000000000e+00,1.000000000000000000e+01,4.000000000000000000e+00,4.595336914062500000e-01,2.070922851562500000e-01,-8.611450195312500000e-01,6.652832031250000000e-02
-4.000000000000000000e+00,-6.000000000000000000e+00,1.100000000000000000e+01,-4.000000000000000000e+00,4.000000000000000000e+00,-6.000000000000000000e+00,4.000000000000000000e+00,-2.000000000000000000e+00,4.595336914062500000e-01,2.070922851562500000e-01,-8.611450195312500000e-01,6.652832031250000000e-02
2.000000000000000000e+00,-1.000000000000000000e+00,-1.800000000000000000e+01,-8.000000000000000000e+00,-1.800000000000000000e+01,-8.000000000000000000e+00,2.000000000000000000e+00,-2.000000000000000000e+00,4.595336914062500000e-01,2.070922851562500000e-01,-8.611450195312500000e-01,6.652832031250000000e-02
-2.000000000000000000e+00,-3.000000000000000000e+00,3.000000000000000000e+00,-1.200000000000000000e+01,-1.100000000000000000e+01,-6.000000000000000000e+00,-1.300000000000000000e+01,-1.000000000000000000e+00,4.595336914062500000e-01,2.070922851562500000e-01,-8.611450195312500000e-01,6.652832031250000000e-02
-4.000000000000000000e+00,-1.000000000000000000e+00,1.000000000000000000e+00,7.000000000000000000e+00,1.000000000000000000e+01,-1.000000000000000000e+00,1.000000000000000000e+01,-4.000000000000000000e+00,4.585571289062500000e-01,2.076416015625000000e-01,-8.615112304687500000e-01,6.677246093750000000e-02
1.000000000000000000e+00,2.000000000000000000e+00,-2.000000000000000000e+00,1.000000000000000000e+00,5.000000000000000000e+00,0.000000000000000000e+00,-8.000000000000000000e+00,-2.000000000000000000e+00,4.585571289062500000e-01,2.076416015625000000e-01,-8.615112304687500000e-01,6.677246093750000000e-02
1.000000000000000000e+00,1.000000000000000000e+00,6.000000000000000000e+00,8.000000000000000000e+00,-4.000000000000000000e+00,1.000000000000000000e+00,4.000000000000000000e+00,2.000000000000000000e+00,4.585571289062500000e-01,2.076416015625000000e-01,-8.615112304687500000e-01,6.677246093750000000e-02
2.000000000000000000e+00,0.000000000000000000e+00,-1.000000000000000000e+01,-5.000000000000000000e+00,4.000000000000000000e+00,-1.000000000000000000e+00,-5.000000000000000000e+00,-2.000000000000000000e+00,4.585571289062500000e-01,2.076416015625000000e-01,-8.615112304687500000e-01,6.677246093750000000e-02
0.000000000000000000e+00,0.000000000000000000e+00,0.000000000000000000e+00,-9.000000000000000000e+00,-8.000000000000000000e+00,-3.000000000000000000e+00,4.000000000000000000e+00,-2.000000000000000000e+00,4.580688476562500000e-01,2.073364257812500000e-01,-8.618164062500000000e-01,6.701660156250000000e-02
2.000000000000000000e+00,4.000000000000000000e+00,2.400000000000000000e+01,1.400000000000000000e+01,-4.000000000000000000e+00,-7.000000000000000000e+00,-2.000000000000000000e+00,0.000000000000000000e+00,4.580688476562500000e-01,2.073364257812500000e-01,-8.618164062500000000e-01,6.701660156250000000e-02
-1.000000000000000000e+00,-1.100000000000000000e+01,-5.400000000000000000e+01,-1.900000000000000000e+01,4.000000000000000000e+00,2.000000000000000000e+00,-4.000000000000000000e+00,-2.000000000000000000e+00,4.580688476562500000e-01,2.073364257812500000e-01,-8.618164062500000000e-01,6.701660156250000000e-02
-4.000000000000000000e+00,-1.000000000000000000e+00,1.200000000000000000e+01,8.000000000000000000e+00,9.000000000000000000e+00,3.000000000000000000e+00,-5.000000000000000000e+00,-2.000000000000000000e+00,4.580688476562500000e-01,2.073364257812500000e-01,-8.618164062500000000e-01,6.701660156250000000e-02
-2.000000000000000000e+00,-7.000000000000000000e+00,4.000000000000000000e+00,-1.000000000000000000e+01,-2.000000000000000000e+00,2.000000000000000000e+00,-2.000000000000000000e+00,0.000000000000000000e+00,4.578247070312500000e-01,2.071533203125000000e-01,-8.619384765625000000e-01,6.768798828125000000e-02
1.000000000000000000e+00,2.000000000000000000e+00,-1.000000000000000000e+00,2.000000000000000000e+00,3.000000000000000000e+00,-3.000000000000000000e+00,8.000000000000000000e+00,1.000000000000000000e+00,4.578247070312500000e-01,2.071533203125000000e-01,-8.619384765625000000e-01,6.768798828125000000e-02
-1.000000000000000000e+00,0.000000000000000000e+00,1.800000000000000000e+01,1.600000000000000000e+01,-3.200000000000000000e+01,-1.800000000000000000e+01,-6.000000000000000000e+00,-4.000000000000000000e+00,4.578247070312500000e-01,2.071533203125000000e-01,-8.619384765625000000e-01,6.768798828125000000e-02
0.000000000000000000e+00,-2.000000000000000000e+00,-1.100000000000000000e+01,-1.900000000000000000e+01,3.000000000000000000e+00,1.400000000000000000e+01,0.000000000000000000e+00,-2.000000000000000000e+00,4.578247070312500000e-01,2.071533203125000000e-01,-8.619384765625000000e-01,6.768798828125000000e-02
