0.000000000000000000e+00,-6.000000000000000000e+00,0.000000000000000000e+00,7.000000000000000000e+00,-3.000000000000000000e+00,-4.000000000000000000e+00,-7.000000000000000000e+00,-2.000000000000000000e+00,3.716430664062500000e-01,1.017456054687500000e-01,-9.224853515625000000e-01,-2.404785156250000000e-02
1.000000000000000000e+01,6.000000000000000000e+00,-9.000000000000000000e+00,-7.000000000000000000e+00,0.000000000000000000e+00,-4.000000000000000000e+00,-6.000000000000000000e+00,-4.000000000000000000e+00,3.716430664062500000e-01,1.017456054687500000e-01,-9.224853515625000000e-01,-2.404785156250000000e-02
0.000000000000000000e+00,1.600000000000000000e+01,1.500000000000000000e+01,1.000000000000000000e+00,-3.000000000000000000e+00,2.000000000000000000e+00,0.000000000000000000e+00,-3.000000000000000000e+00,3.716430664062500000e-01,1.017456054687500000e-01,-9.224853515625000000e-01,-2.404785156250000000e-02
1.000000000000000000e+00,0.000000000000000000e+00,-5.200000000000000000e+01,5.000000000000000000e+00,-1.000000000000000000e+00,-5.000000000000000000e+00,-1.000000000000000000e+00,7.000000000000000000e+00,3.716430664062500000e-01,1.017456054687500000e-01,-9.224853515625000000e-01,-2.404785156250000000e-02
-1.000000000000000000e+00,0.000000000000000000e+00,3.500000000000000000e+01,1.100000000000000000e+01,9.000000000000000000e+00,6.000000000000000000e+00,3.000000000000000000e+00,9.000000000000000000e+00,3.720703125000000000e-01,1.011962890625000000e-01,-9.223632812500000000e-01,-2.435302734375000000e-02
4.000000000000000000e+00,-8.000000000000000000e+00,-1.200000000000000000e+01,-1.600000000000000000e+01,-6.000000000000000000e+00,-4.000000000000000000e+00,-6.000000000000000000e+00,-2.000000000000000000e+01,3.720703125000000000e-01,1.011962890625000000e-01,-9.223632812500000000e-01,-2.435302734375000000e-02
-5.000000000000000000e+00,-4.000000000000000000e+00,1.400000000000000000e+01,8.000000000000000000e+00,3.000000000000000000e+00,5.000000000000000000e+00,2.000000000000000000e+00,-7.000000000000000000e+00,3.720703125000000000e-01,1.011962890625000000e-01,-9.223632812500000000e-01,-2.435302734375000000e-02
1.300000000000000000e+01,1.700000000000000000e+01,3.400000000000000000e+01,1.300000000000000000e+01,-3.000000000000000000e+00,-2.000000000000000000e+00,-4.000000000000000000e+00,1.100000000000000000e+01,3.720703125000000000e-01,1.011962890625000000e-01,-9.223632812500000000e-01,-2.435302734375000000e-02
-1.100000000000000000e+01,5.000000000000000000e+00,-6.700000000000000000e+01,-2.000000000000000000e+01,-3.000000000000000000e+00,-3.000000000000000000e+00,4.000000000000000000e+00,4.000000000000000000e+00,3.723754882812500000e-01,1.007690429687500000e-01,-9.223022460937500000e-01,-2.435302734375000000e-02
4.000000000000000000e+00,-2.700000000000000000e+01,4.000000000000000000e+00,4.000000000000000000e+00,4.000000000000000000e+00,5.000000000000000000e+00,-3.000000000000000000e+00,-5.000000000000000000e+00,3.723754882812500000e-01,1.007690429687500000e-01,-9.223022460937500000e-01,-2.435302734375000000e-02
-1.000000000000000000e+01,9.000000000000000000e+00,-2.100000000000000000e+01,-9.000000000000000000e+00,0.000000000000000000e+00,-5.000000000000000000e+00,-7.000000000000000000e+00,-1.200000000000000000e+01,3.723754882812500000e-01,1.007690429687500000e-01,-9.223022460937500000e-01,-2.435302734375000000e-02
9.000000000000000000e+00,-3.000000000000000000e+00,1.900000000000000000e+01,1.200000000000000000e+01,1.000000000000000000e+00,0.000000000000000000e+00,-3.000000000000000000e+00,0.000000000000000000e+00,3.723754882812500000e-01,1.007690429687500000e-01,-9.223022460937500000e-01,-2.435302734375000000e-02
-2.000000000000000000e+00,-2.000000000000000000e+00,1.800000000000000000e+01,-4.000000000000000000e+00,0.000000000000000000e+00,3.000000000000000000e+00,9.000000000000000000e+00,5.000000000000000000e+00,3.723754882812500000e-01,1.008300781250000000e-01,-9.222412109375000000e-01,-2.435302734375000000e-02
1.200000000000000000e+01,0.000000000000000000e+00,-4.000000000000000000e+00,-1.300000000000000000e+01,-9.000000000000000000e+00,-6.000000000000000000e+00,-4.000000000000000000e+00,3.000000000000000000e+00,3.723754882812500000e-01,1.008300781250000000e-01,-9.222412109375000000e-01,-2.435302734375000000e-02
-7.000000000000000000e+00,-4.000000000000000000e+00,-1.200000000000000000e+01,9.000000000000000000e+00,2.000000000000000000e+00,4.000000000000000000e+00,1.500000000000000000e+01,8.000000000000000000e+00,3.723754882812500000e-01,1.008300781250000000e-01,-9.222412109375000000e-01,-2.435302734375000000e-02
-1.300000000000000000e+01,-1.200000000000000000e+01,1.000000000000000000e+00,-1.800000000000000000e+01,-9.000000000000000000e+00,-8.000000000000000000e+00,-1.900000000000000000e+01,-4.000000000000000000e+00,3.723754882812500000e-01,1.008300781250000000e-01,-9.222412109375000000e-01,-2.435302734375000000e-02
-9.000000000000000000e+00,-1.300000000000000000e+01,5.000000000000000000e+00,7.000000000000000000e+00,-4.000000000000000000e+00,-3.000000000000000000e+00,-1.000000000000000000e+01,-1.300000000000000000e+01,3.721923828125000000e-01,1.013793945312500000e-01,-9.223022460937500000e-01,-2.490234375000000000e-02
1.300000000000000000e+01,1.600000000000000000e+01,2.900000000000000000e+01,2.500000000000000000e+01,6.000000000000000000e+00,-1.000000000000000000e+00,4.000000000000000000e+00,2.000000000000000000e+00,3.721923828125000000e-01,1.013793945312500000e-01,-9.223022460937500000e-01,-2.490234375000000000e-02
4.000000000000000000e+00,-8.000000000000000000e+00,-6.500000000000000000e+01,-3.600000000000000000e+01,-4.000000000000000000e+00,4.000000000000000000e+00,0.000000000000000000e+00,-4.000000000000000000e+00,3.721923828125000000e-01,1.013793945312500000e-01,-9.223022460937500000e-01,-2.490234375000000000e-02
-2.000000000000000000e+00,8.000000000000000000e+00,2.000000000000000000e+01,1.300000000000000000e+01,7.000000000000000000e+00,1.000000000000000000e+00,8.000000000000000000e+00,7.000000000000000000e+00,3.721923828125000000e-01,1.013793945312500000e-01,-9.223022460937500000e-01,-2.490234375000000000e-02
1.000000000000000000e+01,1.100000000000000000e+01,-1.400000000000000000e+01,0.000000000000000000e+00,2.000000000000000000e+00,5.000000000000000000e+00,2.000000000000000000e+00,-1.000000000000000000e+00,3.720703125000000000e-01,1.009521484375000000e-01,-9.223632812500000000e-01,-2.545166015625000000e-02
-1.500000000000000000e+01,-4.000000000000000000e+00,2.000000000000000000e+01,-6.000000000000000000e+00,-3.000000000000000000e+00,3.000000000000000000e+00,4.000000000000000000e+00,2.600000000000000000e+01,3.720703125000000000e-01,1.009521484375000000e-01,-9.223632812500000000e-01,-2.545166015625000000e-02
-3.000000000000000000e+00,-1.000000000000000000e+00,3.000000000000000000e+00,1.600000000000000000e+01,2.000000000000000000e+00,-2.000000000000000000e+00,-2.000000000000000000e+00,-2.400000000000000000e+01,3.720703125000000000e-01,1.009521484375000000e-01,-9.223632812500000000e-01,-2.545166015625000000e-02
-4.000000000000000000e+00,-6.000000000000000000e+00,0.000000000000000000e+00,-1.200000000000000000e+01,-2.000000000000000000e+00,0.000000000000000000e+00,-5.000000000000000000e+00,-5.000000000000000000e+00,3.720703125000000000e-01,1.009521484375000000e-01,-9.223632812500000000e-01,-2.545166015625000000e-02
4.000000000000000000e+00,6.000000000000000000e+00,7.000000000000000000e+00,1.000000000000000000e+00,-3.000000000000000000e+00,-4.000000000000000000e+00,-9.000000000000000000e+00,-8.000000000000000000e+00,3.722534179687500000e-01,1.008300781250000000e-01,-9.223022460937500000e-01,-2.557373046875000000e-02
1.800000000000000000e+01,5.000000000000000000e+00,-1.900000000000000000e+01,0.000000000000000000e+00,0.000000000000000000e+00,-1.000000000000000000e+00,6.000000000000000000e+00,9.000000000000000000e+00,3.722534179687500000e-01,1.008300781250000000e-01,-9.223022460937500000e-01,-2.557373046875000000e-02
-1.000000000000000000e+01,-2.000000000000000000e+00,2.900000000000000000e+01,-3.000000000000000000e+00,-6.000000000000000000e+00,4.000000000000000000e+00,1.100000000000000000e+01,7.000000000000000000e+00,3.722534179687500000e-01,1.008300781250000000e-01,-9.223022460937500000e-01,-2.557373046875000000e-02
-4.000000000000000000e+00,-1.300000000000000000e+01,-3.200000000000000000e+01,-2.400000000000000000e+01,-8.000000000000000000e+00,-6.000000000000000000e+00,-1.000000000000000000e+00,-3.000000000000000000e+00,3.722534179687500000e-01,1.008300781250000000e-01,-9.223022460937500000e-01,-2.557373046875000000e-02
-1.000000000000000000e+00,6.000000000000000000e+00,4.500000000000000000e+01,1.200000000000000000e+01,3.000000000000000000e+00,-2.000000000000000000e+00,-4.000000000000000000e+00,5.000000000000000000e+00,3.725585937500000000e-01,1.008911132812500000e-01,-9.221801757812500000e-01,-2.575683593750000000e-02
-6.000000000000000000e+00,-1.100000000000000000e+01,-3.300000000000000000e+01,-1.900000000000000000e+01,-7.000000000000000000e+00,-1.000000000000000000e+00,2.000000000000000000e+00,-8.000000000000000000e+00,3.725585937500000000e-01,1.008911132812500000e-01,-9.221801757812500000e-01,-2.575683593750000000e-02
7.000000000000000000e+00,3.000000000000000000e+00,-2.600000000000000000e+01,3.000000000000000000e+00,2.000000000000000000e+00,-3.000000000000000000e+00,-3.000000000000000000e+00,0.000000000000000000e+00,3.725585937500000000e-01,1.008911132812500000e-01,-9.221801757812500000e-01,-2.575683593750000000e-02
1.000000000000000000e+00,3.000000000000000000e+00,2.000000000000000000e+01,-7.000000000000000000e+00,0.000000000000000000e+00,1.000000000000000000e+00,-7.000000000000000000e+00,-3.000000000000000000e+00,3.725585937500000000e-01,1.008911132812500000e-01,-9.221801757812500000e-01,-2.575683593750000000e-02
-5.000000000000000000e+00,-3.000000000000000000e+00,6.000000000000000000e+00,1.400000000000000000e+01,8.000000000000000000e+00,5.000000000000000000e+00,1.700000000000000000e+01,1.100000000000000000e+01,3.731689453125000000e-01,1.002197265625000000e-01,-9.219970703125000000e-01,-2.630615234375000000e-02
5.000000000000000000e+00,3.000000000000000000e+00,-9.000000000000000000e+00,1.100000000000000000e+01,2.000000000000000000e+00,-2.000000000000000000e+00,2.000000000000000000e+00,-3.000000000000000000e+00,3.731689453125000000e-01,1.002197265625000000e-01,-9.219970703125000000e-01,-2.630615234375000000e-02
1.000000000000000000e+00,1.000000000000000000e+00,1.000000000000000000e+01,8.000000000000000000e+00,-2.000000000000000000e+00,-7.000000000000000000e+00,-1.400000000000000000e+01,-6.000000000000000000e+00,3.731689453125000000e-01,1.002197265625000000e-01,-9.219970703125000000e-01,-2.630615234375000000e-02
1.000000000000000000e+00,4.000000000000000000e+00,-4.000000000000000000e+00,-1.500000000000000000e+01,-7.000000000000000000e+00,0.000000000000000000e+00,5.000000000000000000e+00,9.000000000000000000e+00,3.731689453125000000e-01,1.002197265625000000e-01,-9.219970703125000000e-01,-2.630615234375000000e-02
3.000000000000000000e+00,-3.000000000000000000e+00,-7.000000000000000000e+00,4.000000000000000000e+00,-3.000000000000000000e+00,-1.000000000000000000e+00,-9.000000000000000000e+00,-6.000000000000000000e+00,3.737792968750000000e-01,9.985351562500000000e-02,-9.217529296875000000e-01,-2.679443359375000000e-02
-2.000000000000000000e+01,-2.000000000000000000e+00,-1.000000000000000000e+00,-1.000000000000000000e+01,1.000000000000000000e+01,3.000000000000000000e+00,0.000000000000000000e+00,-4.000000000000000000e+00,3.737792968750000000e-01,9.985351562500000000e-02,-9.217529296875000000e-01,-2.679443359375000000e-02
3.000000000000000000e+00,0.000000000000000000e+00,4.800000000000000000e+01,2.900000000000000000e+01,1.000000000000000000e+00,-4.000000000000000000e+00,-9.000000000000000000e+00,-1.000000000000000000e+00,3.737792968750000000e-01,9.985351562500000000e-02,-9.217529296875000000e-01,-2.679443359375000000e-02
-1.000000000000000000e+01,-8.000000000000000000e+00,-4.800000000000000000e+01,-3.000000000000000000e+00,3.000000000000000000e+00,4.000000000000000000e+00,1.000000000000000000e+01,0.000000000000000000e+00,3.737792968750000000e-01,9.985351562500000000e-02,-9.217529296875000000e-01,-2.679443359375000000e-02
-7.000000000000000000e+00,-9.000000000000000000e+00,2.100000000000000000e+01,-2.000000000000000000e+01,-1.600000000000000000e+01,-6.000000000000000000e+00,-3.000000000000000000e+00,-5.000000000000000000e+00,3.739624023437500000e-01,1.001586914062500000e-01,-9.216308593750000000e-01,-2.728271484375000000e-02
1.200000000000000000e+01,1.300000000000000000e+01,8.000000000000000000e+00,-1.000000000000000000e+00,0.000000000000000000e+00,1.000000000000000000e+00,1.000000000000000000e+00,-3.000000000000000000e+00,3.739624023437500000e-01,1.001586914062500000e-01,-9.216308593750000000e-01,-2.728271484375000000e-02
9.000000000000000000e+00,6.000000000000000000e+00,1.600000000000000000e+01,1.300000000000000000e+01,1.000000000000000000e+00,-7.000000000000000000e+00,1.000000000000000000e+00,1.500000000000000000e+01,3.739624023437500000e-01,1.001586914062500000e-01,-9.216308593750000000e-01,-2.728271484375000000e-02
-1.200000000000000000e+01,-2.400000000000000000e+01,-5.300000000000000000e+01,-2.200000000000000000e+01,-1.100000000000000000e+01,-3.000000000000000000e+00,-9.000000000000000000e+00,-2.800000000000000000e+01,3.739624023437500000e-01,1.001586914062500000e-01,-9.216308593750000000e-01,-2.728271484375000000e-02
-6.000000000000000000e+00,-1.800000000000000000e+01,1.500000000000000000e+01,1.300000000000000000e+01,-2.000000000000000000e+00,-7.000000000000000000e+00,-8.000000000000000000e+00,-1.100000000000000000e+01,3.740844726562500000e-01,1.005249023437500000e-01,-9.215087890625000000e-01,-2.801513671875000000e-02
5.000000000000000000e+00,5.000000000000000000e+00,-2.000000000000000000e+00,3.000000000000000000e+00,4.000000000000000000e+00,3.000000000000000000e+00,-1.000000000000000000e+00,1.000000000000000000e+00,3.740844726562500000e-01,1.005249023437500000e-01,-9.215087890625000000e-01,-2.801513671875000000e-02
1.000000000000000000e+00,1.000000000000000000e+01,2.000000000000000000e+00,-8.000000000000000000e+00,-2.000000000000000000e+00,0.000000000000000000e+00,4.000000000000000000e+00,1.000000000000000000e+00,3.740844726562500000e-01,1.005249023437500000e-01,-9.215087890625000000e-01,-2.801513671875000000e-02
8.000000000000000000e+00,1.300000000000000000e+01,1.900000000000000000e+01,1.100000000000000000e+01,4.000000000000000000e+00,-3.000000000000000000e+00,0.000000000000000000e+00,7.000000000000000000e+00,3.740844726562500000e-01,1.005249023437500000e-01,-9.215087890625000000e-01,-2.801513671875000000e-02
-2.000000000000000000e+00,-9.000000000000000000e+00,-2.500000000000000000e+01,-1.400000000000000000e+01,-7.000000000000000000e+00,-1.000000000000000000e+00,-1.000000000000000000e+00,2.000000000000000000e+00,3.742675781250000000e-01,1.003417968750000000e-01,-9.214477539062500000e-01,-2.880859375000000000e-02
1.000000000000000000e+01,1.000000000000000000e+01,1.200000000000000000e+01,1.300000000000000000e+01,3.000000000000000000e+00,0.000000000000000000e+00,-1.000000000000000000e+00,-4.000000000000000000e+00,3.742675781250000000e-01,1.003417968750000000e-01,-9.214477539062500000e-01,-2.880859375000000000e-02
-4.000000000000000000e+00,-3.000000000000000000e+00,6.000000000000000000e+00,-1.800000000000000000e+01,-1.100000000000000000e+01,-2.000000000000000000e+00,-3.000000000000000000e+00,-2.000000000000000000e+00,3.742675781250000000e-01,1.003417968750000000e-01,-9.214477539062500000e-01,-2.880859375000000000e-02
-2.000000000000000000e+00,-1.000000000000000000e+01,-6.000000000000000000e+00,1.700000000000000000e+01,1.000000000000000000e+01,2.000000000000000000e+00,-2.000000000000000000e+00,-1.000000000000000000e+00,3.742675781250000000e-01,1.003417968750000000e-01,-9.214477539062500000e-01,-2.880859375000000000e-02
-4.000000000000000000e+00,-5.000000000000000000e+00,9.000000000000000000e+00,-4.000000000000000000e+00,-2.000000000000000000e+00,-6.000000000000000000e+00,-6.000000000000000000e+00,-2.000000000000000000e+00,3.745117187500000000e-01,1.000976562500000000e-01,-9.213256835937500000e-01,-2.941894531250000000e-02
-1.000000000000000000e+00,6.000000000000000000e+00,1.300000000000000000e+01,2.000000000000000000e+00,-2.000000000000000000e+00,-2.000000000000000000e+00,-3.000000000000000000e+00,3.000000000000000000e+00,3.745117187500000000e-01,1.000976562500000000e-01,-9.213256835937500000e-01,-2.941894531250000000e-02
7.000000000000000000e+00,0.000000000000000000e+00,-4.300000000000000000e+01,-9.000000000000000000e+00,0.000000000000000000e+00,3.000000000000000000e+00,-1.000000000000000000e+00,-1.000000000000000000e+00,3.745117187500000000e-01,1.000976562500000000e-01,-9.213256835937500000e-01,-2.941894531250000000e-02
0.000000000000000000e+00,9.000000000000000000e+00,2.400000000000000000e+01,-1.400000000000000000e+01,-6.000000000000000000e+00,-1.000000000000000000e+00,-2.000000000000000000e+00,1.000000000000000000e+00,3.745117187500000000e-01,1.000976562500000000e-01,-9.213256835937500000e-01,-2.941894531250000000e-02
-1.000000000000000000e+00,-2.000000000000000000e+00,8.000000000000000000e+00,2.000000000000000000e+00,-2.000000000000000000e+00,-3.000000000000000000e+00,1.000000000000000000e+00,-6.000000000000000000e+00,3.746948242187500000e-01,1.000976562500000000e-01,-9.212646484375000000e-01,-2.966308593750000000e-02
-4.000000000000000000e+00,-2.200000000000000000e+01,2.000000000000000000e+00,-6.000000000000000000e+00,-4.000000000000000000e+00,0.000000000000000000e+00,-5.000000000000000000e+00,-3.000000000000000000e+00,3.746948242187500000e-01,1.000976562500000000e-01,-9.212646484375000000e-01,-2.966308593750000000e-02
-4.000000000000000000e+00,0.000000000000000000e+00,-1.100000000000000000e+01,-5.000000000000000000e+00,-9.000000000000000000e+00,-5.000000000000000000e+00,-3.000000000000000000e+00,-5.000000000000000000e+00,3.746948242187500000e-01,1.000976562500000000e-01,-9.212646484375000000e-01,-2.966308593750000000e-02
7.000000000000000000e+00,1.900000000000000000e+01,1.800000000000000000e+01,-1.000000000000000000e+00,1.000000000000000000e+00,7.000000000000000000e+00,9.000000000000000000e+00,6.000000000000000000e+00,3.746948242187500000e-01,1.000976562500000000e-01,-9.212646484375000000e-01,-2.966308593750000000e-02
1.000000000000000000e+00,-1.000000000000000000e+00,-1.000000000000000000e+00,8.000000000000000000e+00,5.000000000000000000e+00,-3.000000000000000000e+00,1.000000000000000000e+00,7.000000000000000000e+00,3.749389648437500000e-01,1.000366210937500000e-01,-9.211425781250000000e-01,-2.984619140625000000e-02
3.000000000000000000e+00,-1.200000000000000000e+01,-2.100000000000000000e+01,2.000000000000000000e+00,3.000000000000000000e+00,1.000000000000000000e+00,-8.000000000000000000e+00,-5.000000000000000000e+00,3.749389648437500000e-01,1.000366210937500000e-01,-9.211425781250000000e-01,-2.984619140625000000e-02
-2.000000000000000000e+01,-4.000000000000000000e+00,3.300000000000000000e+01,-1.000000000000000000e+00,-4.000000000000000000e+00,-2.000000000000000000e+00,-1.000000000000000000e+00,-7.000000000000000000e+00,3.749389648437500000e-01,1.000366210937500000e-01,-9.211425781250000000e-01,-2.984619140625000000e-02
7.000000000000000000e+00,-1.000000000000000000e+00,2.000000000000000000e+01,1.000000000000000000e+00,-3.000000000000000000e+00,-1.000000000000000000e+00,-8.000000000000000000e+00,-2.000000000000000000e+00,3.749389648437500000e-01,1.000366210937500000e-01,-9.211425781250000000e-01,-2.984619140625000000e-02
-1.100000000000000000e+01,-1.000000000000000000e+00,-9.000000000000000000e+00,-1.000000000000000000e+00,2.000000000000000000e+00,1.000000000000000000e+00,0.000000000000000000e+00,-4.000000000000000000e+00,3.749389648437500000e-01,9.991455078125000000e-02,-9.211425781250000000e-01,-3.002929687500000000e-02
-7.000000000000000000e+00,5.000000000000000000e+00,-2.200000000000000000e+01,-1.100000000000000000e+01,-3.000000000000000000e+00,-5.000000000000000000e+00,-2.000000000000000000e+00,3.000000000000000000e+00,3.749389648437500000e-01,9.991455078125000000e-02,-9.211425781250000000e-01,-3.002929687500000000e-02
1.000000000000000000e+00,-5.000000000000000000e+00,7.000000000000000000e+00,4.000000000000000000e+00,4.000000000000000000e+00,1.000000000000000000e+00,-1.000000000000000000e+00,1.000000000000000000e+00,3.749389648437500000e-01,9.991455078125000000e-02,-9.211425781250000000e-01,-3.002929687500000000e-02
1.300000000000000000e+01,2.000000000000000000e+00,2.000000000000000000e+00,1.200000000000000000e+01,3.000000000000000000e+00,-4.000000000000000000e+00,0.000000000000000000e+00,3.000000000000000000e+00,3.749389648437500000e-01,9.991455078125000000e-02,-9.211425781250000000e-01,-3.002929687500000000e-02
-4.000000000000000000e+00,5.000000000000000000e+00,-1.300000000000000000e+01,1.000000000000000000e+00,4.000000000000000000e+00,4.000000000000000000e+00,2.000000000000000000e+00,0.000000000000000000e+00,3.750000000000000000e-01,9.954833984375000000e-02,-9.212036132812500000e-01,-3.002929687500000000e-02
-3.000000000000000000e+00,-2.000000000000000000e+00,2.000000000000000000e+01,-9.000000000000000000e+00,-1.000000000000000000e+01,-6.000000000000000000e+00,-7.000000000000000000e+00,-6.000000000000000000e+00,3.750000000000000000e-01,9.954833984375000000e-02,-9.212036132812500000e-01,-3.002929687500000000e-02
4.000000000000000000e+00,-4.000000000000000000e+00,-1.700000000000000000e+01,-3.000000000000000000e+00,-2.000000000000000000e+00,0.000000000000000000e+00,0.000000000000000000e+00,-1.000000000000000000e+00,3.750000000000000000e-01,9.954833984375000000e-02,-9.212036132812500000e-01,-3.002929687500000000e-02
-1.100000000000000000e+01,-5.000000000000000000e+00,4.000000000000000000e+00,-1.000000000000000000e+01,0.000000000000000000e+00,0.000000000000000000e+00,7.000000000000000000e+00,1.000000000000000000e+00,3.750000000000000000e-01,9.954833984375000000e-02,-9.212036132812500000e-01,-3.002929687500000000e-02
5.000000000000000000e+00,7.000000000000000000e+00,-3.000000000000000000e+00,6.000000000000000000e+00,3.000000000000000000e+00,2.000000000000000000e+00,0.000000000000000000e+00,-3.000000000000000000e+00,3.751831054687500000e-01,9.881591796875000000e-02,-9.212036132812500000e-01,-2.996826171875000000e-02
1.400000000000000000e+01,1.800000000000000000e+01,2.700000000000000000e+01,-5.000000000000000000e+00,-7.000000000000000000e+00,-1.000000000000000000e+00,4.000000000000000000e+00,0.000000000000000000e+00,3.751831054687500000e-01,9.881591796875000000e-02,-9.212036132812500000e-01,-2.996826171875000000e-02
-2.200000000000000000e+01,-3.100000000000000000e+01,-4.600000000000000000e+01,-1.800000000000000000e+01,-5.000000000000000000e+00,-2.000000000000000000e+00,0.000000000000000000e+00,-6.000000000000000000e+00,3.751831054687500000e-01,9.881591796875000000e-02,-9.212036132812500000e-01,-2.996826171875000000e-02
-1.000000000000000000e+01,-2.100000000000000000e+01,-3.500000000000000000e+01,1.000000000000000000e+00,-6.000000000000000000e+00,-4.000000000000000000e+00,-2.000000000000000000e+00,-9.000000000000000000e+00,3.751831054687500000e-01,9.881591796875000000e-02,-9.212036132812500000e-01,-2.996826171875000000e-02
3.000000000000000000e+00,-1.000000000000000000e+00,-2.000000000000000000e+00,3.000000000000000000e+00,8.000000000000000000e+00,1.000000000000000000e+00,-5.000000000000000000e+00,-2.000000000000000000e+00,3.754272460937500000e-01,9.808349609375000000e-02,-9.211425781250000000e-01,-3.002929687500000000e-02
-5.000000000000000000e+00,3.000000000000000000e+00,0.000000000000000000e+00,0.000000000000000000e+00,-2.000000000000000000e+00,2.000000000000000000e+00,4.000000000000000000e+00,0.000000000000000000e+00,3.754272460937500000e-01,9.808349609375000000e-02,-9.211425781250000000e-01,-3.002929687500000000e-02
1.000000000000000000e+01,2.200000000000000000e+01,1.000000000000000000e+01,9.000000000000000000e+00,5.000000000000000000e+00,2.000000000000000000e+00,-2.000000000000000000e+00,-1.000000000000000000e+00,3.754272460937500000e-01,9.808349609375000000e-02,-9.211425781250000000e-01,-3.002929687500000000e-02
1.500000000000000000e+01,7.000000000000000000e+00,3.100000000000000000e+01,8.000000000000000000e+00,1.000000000000000000e+00,-2.000000000000000000e+00,-1.000000000000000000e+00,4.000000000000000000e+00,3.754272460937500000e-01,9.808349609375000000e-02,-9.211425781250000000e-01,-3.002929687500000000e-02
-5.000000000000000000e+00,8.000000000000000000e+00,-3.300000000000000000e+01,-9.000000000000000000e+00,-8.000000000000000000e+00,-4.000000000000000000e+00,3.000000000000000000e+00,-3.000000000000000000e+00,3.753051757812500000e-01,9.735107421875000000e-02,-9.213256835937500000e-01,-3.002929687500000000e-02
-1.600000000000000000e+01,-1.400000000000000000e+01,6.000000000000000000e+00,-4.000000000000000000e+00,-3.000000000000000000e+00,0.000000000000000000e+00,1.000000000000000000e+00,-4.000000000000000000e+00,3.753051757812500000e-01,9.735107421875000000e-02,-9.213256835937500000e-01,-3.002929687500000000e-02
-3.000000000000000000e+00,-3.000000000000000000e+00,2.000000000000000000e+00,1.700000000000000000e+01,7.000000000000000000e+00,0.000000000000000000e+00,-4.000000000000000000e+00,4.000000000000000000e+00,3.753051757812500000e-01,9.735107421875000000e-02,-9.213256835937500000e-01,-3.002929687500000000e-02
-6.000000000000000000e+00,-7.000000000000000000e+00,-2.800000000000000000e+01,-2.300000000000000000e+01,-7.000000000000000000e+00,-1.000000000000000000e+00,2.000000000000000000e+00,2.000000000000000000e+00,3.753051757812500000e-01,9.735107421875000000e-02,-9.213256835937500000e-01,-3.002929687500000000e-02
6.000000000000000000e+00,0.000000000000000000e+00,2.900000000000000000e+01,1.400000000000000000e+01,3.000000000000000000e+00,-5.000000000000000000e+00,-5.000000000000000000e+00,-2.000000000000000000e+00,3.748779296875000000e-01,9.741210937500000000e-02,-9.215087890625000000e-01,-2.960205078125000000e-02
0.000000000000000000e+00,3.000000000000000000e+00,-4.100000000000000000e+01,-8.000000000000000000e+00,-1.000000000000000000e+00,-1.000000000000000000e+00,-7.000000000000000000e+00,-2.000000000000000000e+00,3.748779296875000000e-01,9.741210937500000000e-02,-9.215087890625000000e-01,-2.960205078125000000e-02
-1.000000000000000000e+00,-1.000000000000000000e+01,2.000000000000000000e+00,4.000000000000000000e+00,6.000000000000000000e+00,1.000000000000000000e+00,3.000000000000000000e+00,-2.000000000000000000e+00,3.748779296875000000e-01,9.741210937500000000e-02,-9.215087890625000000e-01,-2.960205078125000000e-02
-1.000000000000000000e+00,0.000000000000000000e+00,2.600000000000000000e+01,4.000000000000000000e+00,1.000000000000000000e+00,-1.000000000000000000e+00,-4.000000000000000000e+00,-1.000000000000000000e+00,3.748779296875000000e-01,9.741210937500000000e-02,-9.215087890625000000e-01,-2.960205078125000000e-02
3.000000000000000000e+00,1.000000000000000000e+00,-5.000000000000000000e+00,-6.000000000000000000e+00,-9.000000000000000000e+00,-2.000000000000000000e+00,2.000000000000000000e+00,7.000000000000000000e+00,3.740234375000000000e-01,9.820556640625000000e-02,-9.217529296875000000e-01,-2.941894531250000000e-02
1.000000000000000000e+00,2.000000000000000000e+00,3.000000000000000000e+00,8.000000000000000000e+00,-7.000000000000000000e+00,-2.000000000000000000e+00,-4.000000000000000000e+00,-7.000000000000000000e+00,3.740234375000000000e-01,9.820556640625000000e-02,-9.217529296875000000e-01,-2.941894531250000000e-02
1.000000000000000000e+00,5.000000000000000000e+00,-1.500000000000000000e+01,-1.500000000000000000e+01,0.000000000000000000e+00,3.000000000000000000e+00,2.000000000000000000e+00,-3.000000000000000000e+00,3.740234375000000000e-01,9.820556640625000000e-02,-9.217529296875000000e-01,-2.941894531250000000e-02
1.000000000000000000e+00,-5.000000000000000000e+00,-3.000000000000000000e+00,6.000000000000000000e+00,1.000000000000000000e+01,0.000000000000000000e+00,3.000000000000000000e+00,1.000000000000000000e+00,3.740234375000000000e-01,9.820556640625000000e-02,-9.217529296875000000e-01,-2.941894531250000000e-02
6.000000000000000000e+00,-3.000000000000000000e+00,-1.300000000000000000e+01,-1.200000000000000000e+01,-3.000000000000000000e+00,-2.000000000000000000e+00,3.000000000000000000e+00,0.000000000000000000e+00,3.733520507812500000e-01,9.838867187500000000e-02,-9.219970703125000000e-01,-2.966308593750000000e-02
8.000000000000000000e+00,-7.000000000000000000e+00,4.000000000000000000e+00,7.000000000000000000e+00,-1.000000000000000000e+00,-2.000000000000000000e+00,6.000000000000000000e+00,6.000000000000000000e+00,3.733520507812500000e-01,9.838867187500000000e-02,-9.219970703125000000e-01,-2.966308593750000000e-02
-1.300000000000000000e+01,-7.000000000000000000e+00,2.400000000000000000e+01,0.000000000000000000e+00,-4.000000000000000000e+00,0.000000000000000000e+00,-2.000000000000000000e+00,-3.000000000000000000e+00,3.733520507812500000e-01,9.838867187500000000e-02,-9.219970703125000000e-01,-2.966308593750000000e-02
-9.000000000000000000e+00,-2.000000000000000000e+00,5.000000000000000000e+00,-1.000000000000000000e+00,-6.000000000000000000e+00,-2.000000000000000000e+00,-9.000000000000000000e+00,-5.000000000000000000e+00,3.733520507812500000e-01,9.838867187500000000e-02,-9.219970703125000000e-01,-2.966308593750000000e-02
1.300000000000000000e+01,1.500000000000000000e+01,-1.100000000000000000e+01,5.000000000000000000e+00,1.000000000000000000e+00,1.000000000000000000e+00,-3.000000000000000000e+00,5.000000000000000000e+00,3.728027343750000000e-01,9.820556640625000000e-02,-9.222412109375000000e-01,-2.960205078125000000e-02
1.000000000000000000e+00,1.400000000000000000e+01,2.300000000000000000e+01,-6.000000000000000000e+00,-1.000000000000000000e+00,0.000000000000000000e+00,0.000000000000000000e+00,1.000000000000000000e+00,3.728027343750000000e-01,9.820556640625000000e-02,-9.222412109375000000e-01,-2.960205078125000000e-02
0.000000000000000000e+00,-2.900000000000000000e+01,-2.600000000000000000e+01,9.000000000000000000e+00,1.100000000000000000e+01,-1.000000000000000000e+00,3.000000000000000000e+00,-4.000000000000000000e+00,3.728027343750000000e-01,9.820556640625000000e-02,-9.222412109375000000e-01,-2.960205078125000000e-02
-1.000000000000000000e+00,-9.000000000000000000e+00,3.000000000000000000e+00,0.000000000000000000e+00,-5.000000000000000000e+00,-3.000000000000000000e+00,0.000000000000000000e+00,2.000000000000000000e+00,3.728027343750000000e-01,9.820556640625000000e-02,-9.222412109375000000e-01,-2.960205078125000000e-02
-1.000000000000000000e+00,-6.000000000000000000e+00,1.000000000000000000e+00,-7.000000000000000000e+00,-1.000000000000000000e+00,-1.000000000000000000e+00,-4.000000000000000000e+00,-4.000000000000000000e+00,3.723144531250000000e-01,9.851074218750000000e-02,-9.224243164062500000e-01,-2.917480468750000000e-02
-1.000000000000000000e+00,1.100000000000000000e+01,0.000000000000000000e+00,1.000000000000000000e+00,-3.000000000000000000e+00,2.000000000000000000e+00,-2.000000000000000000e+00,-1.000000000000000000e+00,3.723144531250000000e-01,9.851074218750000000e-02,-9.224243164062500000e-01,-2.917480468750000000e-02
6.000000000000000000e+00,1.500000000000000000e+01,3.000000000000000000e+00,-5.000000000000000000e+00,-5.000000000000000000e+00,-8.000000000000000000e+00,-1.300000000000000000e+01,1.000000000000000000e+00,3.723144531250000000e-01,9.851074218750000000e-02,-9.224243164062500000e-01,-2.917480468750000000e-02
6.000000000000000000e+00,3.000000000000000000e+00,-1.200000000000000000e+01,5.000000000000000000e+00,8.000000000000000000e+00,2.000000000000000000e+00,5.000000000000000000e+00,6.000000000000000000e+00,3.723144531250000000e-01,9.851074218750000000e-02,-9.224243164062500000e-01,-2.917480468750000000e-02
-2.200000000000000000e+01,-2.300000000000000000e+01,4.000000000000000000e+00,2.000000000000000000e+00,-4.000000000000000000e+00,-4.000000000000000000e+00,1.000000000000000000e+00,-5.000000000000000000e+00,3.718872070312500000e-01,9.912109375000000000e-02,-9.225463867187500000e-01,-2.862548828125000000e-02
-1.200000000000000000e+01,-2.500000000000000000e+01,2.900000000000000000e+01,-1.500000000000000000e+01,-3.000000000000000000e+00,-3.000000000000000000e+00,-3.000000000000000000e+00,-5.000000000000000000e+00,3.718872070312500000e-01,9.912109375000000000e-02,-9.225463867187500000e-01,-2.862548828125000000e-02
1.000000000000000000e+00,4.000000000000000000e+00,-1.300000000000000000e+01,-8.000000000000000000e+00,-7.000000000000000000e+00,0.000000000000000000e+00,-1.000000000000000000e+00,2.000000000000000000e+00,3.718872070312500000e-01,9.912109375000000000e-02,-9.225463867187500000e-01,-2.862548828125000000e-02
5.000000000000000000e+00,-1.000000000000000000e+00,3.000000000000000000e+00,1.000000000000000000e+01,-1.000000000000000000e+00,-1.000000000000000000e+00,-3.000000000000000000e+00,-1.000000000000000000e+00,3.718872070312500000e-01,9.912109375000000000e-02,-9.225463867187500000e-01,-2.862548828125000000e-02
3.000000000000000000e+00,8.000000000000000000e+00,-3.000000000000000000e+00,-3.000000000000000000e+00,1.000000000000000000e+00,1.000000000000000000e+00,-1.000000000000000000e+00,-2.000000000000000000e+00,3.716430664062500000e-01,9.948730468750000000e-02,-9.226074218750000000e-01,-2.825927734375000000e-02
1.000000000000000000e+00,-4.000000000000000000e+00,-1.700000000000000000e+01,0.000000000000000000e+00,2.000000000000000000e+00,-2.000000000000000000e+00,-6.000000000000000000e+00,3.000000000000000000e+00,3.716430664062500000e-01,9.948730468750000000e-02,-9.226074218750000000e-01,-2.825927734375000000e-02
2.000000000000000000e+00,7.000000000000000000e+00,7.000000000000000000e+00,-1.000000000000000000e+00,-3.000000000000000000e+00,2.000000000000000000e+00,-4.000000000000000000e+00,-3.000000000000000000e+00,3.716430664062500000e-01,9.948730468750000000e-02,-9.226074218750000000e-01,-2.825927734375000000e-02
-1.000000000000000000e+00,8.000000000000000000e+00,1.200000000000000000e+01,-2.000000000000000000e+00,-4.000000000000000000e+00,-7.000000000000000000e+00,-8.000000000000000000e+00,-2.000000000000000000e+00,3.716430664062500000e-01,9.948730468750000000e-02,-9.226074218750000000e-01,-2.825927734375000000e-02
1.800000000000000000e+01,3.000000000000000000e+01,2.500000000000000000e+01,-5.000000000000000000e+00,5.000000000000000000e+00,8.000000000000000000e+00,1.300000000000000000e+01,1.300000000000000000e+01,3.714599609375000000e-01,9.924316406250000000e-02,-9.227294921875000000e-01,-2.813720703125000000e-02
-1.600000000000000000e+01,-3.700000000000000000e+01,-5.300000000000000000e+01,9.000000000000000000e+00,2.000000000000000000e+00,-7.000000000000000000e+00,-5.000000000000000000e+00,-1.800000000000000000e+01,3.714599609375000000e-01,9.924316406250000000e-02,-9.227294921875000000e-01,-2.813720703125000000e-02
-1.900000000000000000e+01,-1.100000000000000000e+01,-6.000000000000000000e+00,-1.900000000000000000e+01,-1.000000000000000000e+01,-4.000000000000000000e+00,-4.000000000000000000e+00,-6.000000000000000000e+00,3.714599609375000000e-01,9.924316406250000000e-02,-9.227294921875000000e-01,-2.813720703125000000e-02
-6.000000000000000000e+00,-1.100000000000000000e+01,3.500000000000000000e+01,5.000000000000000000e+00,-2.000000000000000000e+00,1.000000000000000000e+00,1.000000000000000000e+00,-1.000000000000000000e+00,3.714599609375000000e-01,9.924316406250000000e-02,-9.227294921875000000e-01,-2.813720703125000000e-02
-7.000000000000000000e+00,-5.000000000000000000e+00,-1.200000000000000000e+01,-6.000000000000000000e+00,-4.000000000000000000e+00,0.000000000000000000e+00,-9.000000000000000000e+00,-2.000000000000000000e+00,3.710327148437500000e-01,9.991455078125000000e-02,-9.227905273437500000e-01,-2.795410156250000000e-02
1.000000000000000000e+01,7.000000000000000000e+00,-4.000000000000000000e+00,0.000000000000000000e+00,3.000000000000000000e+00,2.000000000000000000e+00,1.000000000000000000e+00,6.000000000000000000e+00,3.710327148437500000e-01,9.991455078125000000e-02,-9.227905273437500000e-01,-2.795410156250000000e-02
8.000000000000000000e+00,8.000000000000000000e+00,1.000000000000000000e+00,-3.000000000000000000e+00,-6.000000000000000000e+00,-3.000000000000000000e+00,9.000000000000000000e+00,4.000000000000000000e+00,3.710327148437500000e-01,9.991455078125000000e-02,-9.227905273437500000e-01,-2.795410156250000000e-02
-5.000000000000000000e+00,6.000000000000000000e+00,4.000000000000000000e+00,4.000000000000000000e+00,6.000000000000000000e+00,0.000000000000000000e+00,-3.000000000000000000e+00,-3.000000000000000000e+00,3.710327148437500000e-01,9.991455078125000000e-02,-9.227905273437500000e-01,-2.795410156250000000e-02
1.000000000000000000e+00,-7.000000000000000000e+00,-4.000000000000000000e+00,0.000000000000000000e+00,2.000000000000000000e+00,1.000000000000000000e+00,-5.000000000000000000e+00,-2.000000000000000000e+00,3.710937500000000000e-01,1.006469726562500000e-01,-9.227294921875000000e-01,-2.758789062500000000e-02
0.000000000000000000e+00,1.200000000000000000e+01,4.000000000000000000e+00,3.000000000000000000e+00,1.000000000000000000e+00,1.000000000000000000e+00,4.000000000000000000e+00,3.000000000000000000e+00,3.710937500000000000e-01,1.006469726562500000e-01,-9.227294921875000000e-01,-2.758789062500000000e-02
-1.000000000000000000e+00,-3.000000000000000000e+00,-5.000000000000000000e+00,4.000000000000000000e+00,1.000000000000000000e+01,3.000000000000000000e+00,3.000000000000000000e+00,-2.000000000000000000e+00,3.710937500000000000e-01,1.006469726562500000e-01,-9.227294921875000000e-01,-2.758789062500000000e-02
-4.000000000000000000e+00,5.000000000000000000e+00,0.000000000000000000e+00,-4.000000000000000000e+00,-7.000000000000000000e+00,-3.000000000000000000e+00,3.000000000000000000e+00,0.000000000000000000e+00,3.710937500000000000e-01,1.006469726562500000e-01,-9.227294921875000000e-01,-2.758789062500000000e-02
6.000000000000000000e+00,8.000000000000000000e+00,-1.400000000000000000e+01,1.000000000000000000e+00,1.000000000000000000e+00,0.000000000000000000e+00,-6.000000000000000000e+00,-3.000000000000000000e+00,3.709106445312500000e-01,1.016845703125000000e-01,-9.227294921875000000e-01,-2.685546875000000000e-02
7.000000000000000000e+00,1.000000000000000000e+00,7.000000000000000000e+00,3.000000000000000000e+00,6.000000000000000000e+00,3.000000000000000000e+00,3.000000000000000000e+00,2.000000000000000000e+00,3.709106445312500000e-01,1.016845703125000000e-01,-9.227294921875000000e-01,-2.685546875000000000e-02
-2.100000000000000000e+01,-2.900000000000000000e+01,9.000000000000000000e+00,-1.000000000000000000e+00,-6.000000000000000000e+00,-2.000000000000000000e+00,0.000000000000000000e+00,-6.000000000000000000e+00,3.709106445312500000e-01,1.016845703125000000e-01,-9.227294921875000000e-01,-2.685546875000000000e-02
-4.000000000000000000e+00,-7.000000000000000000e+00,-6.000000000000000000e+00,1.000000000000000000e+00,0.000000000000000000e+00,-1.000000000000000000e+00,1.000000000000000000e+00,-1.000000000000000000e+00,3.709106445312500000e-01,1.016845703125000000e-01,-9.227294921875000000e-01,-2.685546875000000000e-02
-8.000000000000000000e+00,-8.000000000000000000e+00,-3.000000000000000000e+00,-2.000000000000000000e+00,-4.000000000000000000e+00,-3.000000000000000000e+00,-1.000000000000000000e+00,-6.000000000000000000e+00,3.709716796875000000e-01,1.027221679687500000e-01,-9.226074218750000000e-01,-2.636718750000000000e-02
-1.000000000000000000e+00,1.000000000000000000e+01,6.000000000000000000e+00,0.000000000000000000e+00,1.000000000000000000e+00,0.000000000000000000e+00,-2.000000000000000000e+00,-1.000000000000000000e+00,3.709716796875000000e-01,1.027221679687500000e-01,-9.226074218750000000e-01,-2.636718750000000000e-02
1.400000000000000000e+01,1.500000000000000000e+01,6.000000000000000000e+00,0.000000000000000000e+00,-2.000000000000000000e+00,0.000000000000000000e+00,0.000000000000000000e+00,3.000000000000000000e+00,3.709716796875000000e-01,1.027221679687500000e-01,-9.226074218750000000e-01,-2.636718750000000000e-02
8.000000000000000000e+00,7.000000000000000000e+00,-8.000000000000000000e+00,2.000000000000000000e+00,2.000000000000000000e+00,-2.000000000000000000e+00,-1.000000000000000000e+00,-2.000000000000000000e+00,3.709716796875000000e-01,1.027221679687500000e-01,-9.226074218750000000e-01,-2.636718750000000000e-02
-1.500000000000000000e+01,-1.100000000000000000e+01,-1.000000000000000000e+00,0.000000000000000000e+00,-6.000000000000000000e+00,-4.000000000000000000e+00,-3.000000000000000000e+00,-6.000000000000000000e+00,3.710327148437500000e-01,1.032104492187500000e-01,-9.224853515625000000e-01,-2.606201171875000000e-02
-4.000000000000000000e+00,4.000000000000000000e+00,-1.000000000000000000e+00,-6.000000000000000000e+00,3.000000000000000000e+00,1.000000000000000000e+00,-8.000000000000000000e+00,2.000000000000000000e+00,3.710327148437500000e-01,1.032104492187500000e-01,-9.224853515625000000e-01,-2.606201171875000000e-02
2.200000000000000000e+01,1.400000000000000000e+01,1.100000000000000000e+01,1.400000000000000000e+01,-3.000000000000000000e+00,1.000000000000000000e+00,6.000000000000000000e+00,2.000000000000000000e+00,3.710327148437500000e-01,1.032104492187500000e-01,-9.224853515625000000e-01,-2.606201171875000000e-02
-1.900000000000000000e+01,-9.000000000000000000e+00,-2.600000000000000000e+01,-1.000000000000000000e+01,1.000000000000000000e+01,2.000000000000000000e+00,-4.000000000000000000e+00,-5.000000000000000000e+00,3.710327148437500000e-01,1.032104492187500000e-01,-9.224853515625000000e-01,-2.606201171875000000e-02
-2.700000000000000000e+01,-2.500000000000000000e+01,-2.600000000000000000e+01,-6.000000000000000000e+00,-3.000000000000000000e+00,-6.000000000000000000e+00,-3.000000000000000000e+00,-6.000000000000000000e+00,3.710327148437500000e-01,1.031494140625000000e-01,-9.224853515625000000e-01,-2.600097656250000000e-02
-1.000000000000000000e+00,-2.000000000000000000e+00,-2.000000000000000000e+00,-8.000000000000000000e+00,-7.000000000000000000e+00,-5.000000000000000000e+00,-3.000000000000000000e+00,-3.000000000000000000e+00,3.710327148437500000e-01,1.031494140625000000e-01,-9.224853515625000000e-01,-2.600097656250000000e-02
-3.000000000000000000e+00,-8.000000000000000000e+00,3.000000000000000000e+00,4.000000000000000000e+00,0.000000000000000000e+00,1.000000000000000000e+00,-3.000000000000000000e+00,-3.000000000000000000e+00,3.710327148437500000e-01,1.031494140625000000e-01,-9.224853515625000000e-01,-2.600097656250000000e-02
6.000000000000000000e+00,6.000000000000000000e+00,0.000000000000000000e+00,2.000000000000000000e+00,-2.000000000000000000e+00,4.000000000000000000e+00,1.000000000000000000e+00,0.000000000000000000e+00,3.710327148437500000e-01,1.031494140625000000e-01,-9.224853515625000000e-01,-2.600097656250000000e-02
9.000000000000000000e+00,9.000000000000000000e+00,-1.100000000000000000e+01,-1.300000000000000000e+01,-6.000000000000000000e+00,-2.000000000000000000e+00,0.000000000000000000e+00,1.000000000000000000e+00,3.709106445312500000e-01,1.035156250000000000e-01,-9.225463867187500000e-01,-2.551269531250000000e-02
5.000000000000000000e+00,5.000000000000000000e+00,5.500000000000000000e+01,1.500000000000000000e+01,2.000000000000000000e+00,-4.000000000000000000e+00,-3.000000000000000000e+00,-1.000000000000000000e+00,3.709106445312500000e-01,1.035156250000000000e-01,-9.225463867187500000e-01,-2.551269531250000000e-02
7.000000000000000000e+00,1.900000000000000000e+01,-3.900000000000000000e+01,-1.200000000000000000e+01,-3.000000000000000000e+00,-2.000000000000000000e+00,-3.000000000000000000e+00,1.000000000000000000e+00,3.709106445312500000e-01,1.035156250000000000e-01,-9.225463867187500000e-01,-2.551269531250000000e-02
-1.200000000000000000e+01,-2.600000000000000000e+01,3.000000000000000000e+01,5.000000000000000000e+00,-5.000000000000000000e+00,-4.000000000000000000e+00,-3.000000000000000000e+00,-3.000000000000000000e+00,3.709106445312500000e-01,1.035156250000000000e-01,-9.225463867187500000e-01,-2.551269531250000000e-02
-8.000000000000000000e+00,-6.000000000000000000e+00,-5.000000000000000000e+00,5.000000000000000000e+00,4.000000000000000000e+00,2.000000000000000000e+00,-1.000000000000000000e+00,-2.000000000000000000e+00,3.707275390625000000e-01,1.042480468750000000e-01,-9.225463867187500000e-01,-2.496337890625000000e-02
-7.000000000000000000e+00,-1.800000000000000000e+01,-2.300000000000000000e+01,-4.000000000000000000e+00,-8.000000000000000000e+00,-4.000000000000000000e+00,-2.000000000000000000e+00,0.000000000000000000e+00,3.707275390625000000e-01,1.042480468750000000e-01,-9.225463867187500000e-01,-2.496337890625000000e-02
9.000000000000000000e+00,1.200000000000000000e+01,1.300000000000000000e+01,0.000000000000000000e+00,5.000000000000000000e+00,-3.000000000000000000e+00,-4.000000000000000000e+00,1.000000000000000000e+00,3.707275390625000000e-01,1.042480468750000000e-01,-9.225463867187500000e-01,-2.496337890625000000e-02
8.000000000000000000e+00,1.500000000000000000e+01,5.000000000000000000e+00,1.000000000000000000e+00,0.000000000000000000e+00,1.000000000000000000e+00,1.000000000000000000e+00,2.000000000000000000e+00,3.707275390625000000e-01,1.042480468750000000e-01,-9.225463867187500000e-01,-2.496337890625000000e-02
4.000000000000000000e+00,-3.000000000000000000e+00,4.000000000000000000e+00,1.000000000000000000e+00,-3.000000000000000000e+00,-1.000000000000000000e+00,1.000000000000000000e+00,1.000000000000000000e+00,3.703613281250000000e-01,1.047973632812500000e-01,-9.226684570312500000e-01,-2.453613281250000000e-02
0.000000000000000000e+00,4.000000000000000000e+00,9.000000000000000000e+00,-5.000000000000000000e+00,1.000000000000000000e+00,0.000000000000000000e+00,0.000000000000000000e+00,1.000000000000000000e+00,3.703613281250000000e-01,1.047973632812500000e-01,-9.226684570312500000e-01,-2.453613281250000000e-02
-6.000000000000000000e+00,-8.000000000000000000e+00,-9.000000000000000000e+00,-1.200000000000000000e+01,-7.000000000000000000e+00,1.000000000000000000e+00,0.000000000000000000e+00,-2.000000000000000000e+00,3.703613281250000000e-01,1.047973632812500000e-01,-9.226684570312500000e-01,-2.453613281250000000e-02
5.000000000000000000e+00,-4.000000000000000000e+00,-1.600000000000000000e+01,4.000000000000000000e+00,0.000000000000000000e+00,-2.000000000000000000e+00,2.000000000000000000e+00,-1.000000000000000000e+00,3.703613281250000000e-01,1.047973632812500000e-01,-9.226684570312500000e-01,-2.453613281250000000e-02
-4.000000000000000000e+00,-1.300000000000000000e+01,2.100000000000000000e+01,5.000000000000000000e+00,4.000000000000000000e+00,-1.000000000000000000e+00,-1.000000000000000000e+00,-2.000000000000000000e+00,3.700561523437500000e-01,1.054077148437500000e-01,-9.226684570312500000e-01,-2.416992187500000000e-02
-2.000000000000000000e+00,9.000000000000000000e+00,-9.000000000000000000e+00,-9.000000000000000000e+00,-4.000000000000000000e+00,-2.000000000000000000e+00,0.000000000000000000e+00,-4.000000000000000000e+00,3.700561523437500000e-01,1.054077148437500000e-01,-9.226684570312500000e-01,-2.416992187500000000e-02
4.000000000000000000e+00,-2.000000000000000000e+00,1.300000000000000000e+01,9.000000000000000000e+00,1.000000000000000000e+00,-2.000000000000000000e+00,-3.000000000000000000e+00,-3.000000000000000000e+00,3.700561523437500000e-01,1.054077148437500000e-01,-9.226684570312500000e-01,-2.416992187500000000e-02
3.000000000000000000e+00,-6.000000000000000000e+00,-7.100000000000000000e+01,-2.500000000000000000e+01,-1.200000000000000000e+01,-9.000000000000000000e+00,-1.100000000000000000e+01,-4.000000000000000000e+00,3.700561523437500000e-01,1.054077148437500000e-01,-9.226684570312500000e-01,-2.416992187500000000e-02
1.300000000000000000e+01,1.200000000000000000e+01,6.000000000000000000e+00,1.000000000000000000e+00,-1.000000000000000000e+00,-1.000000000000000000e+00,3.000000000000000000e+00,1.000000000000000000e+00,3.696899414062500000e-01,1.057128906250000000e-01,-9.227905273437500000e-01,-2.410888671875000000e-02
-4.000000000000000000e+00,-6.000000000000000000e+00,-9.000000000000000000e+00,1.000000000000000000e+00,1.000000000000000000e+00,0.000000000000000000e+00,1.000000000000000000e+00,-1.000000000000000000e+00,3.696899414062500000e-01,1.057128906250000000e-01,-9.227905273437500000e-01,-2.410888671875000000e-02
1.000000000000000000e+00,7.000000000000000000e+00,5.000000000000000000e+00,-3.000000000000000000e+00,-4.000000000000000000e+00,0.000000000000000000e+00,4.000000000000000000e+00,2.000000000000000000e+00,3.696899414062500000e-01,1.057128906250000000e-01,-9.227905273437500000e-01,-2.410888671875000000e-02
9.000000000000000000e+00,1.200000000000000000e+01,1.400000000000000000e+01,3.000000000000000000e+00,-4.000000000000000000e+00,-2.000000000000000000e+00,2.000000000000000000e+00,1.000000000000000000e+00,3.696899414062500000e-01,1.057128906250000000e-01,-9.227905273437500000e-01,-2.410888671875000000e-02
-7.000000000000000000e+00,-1.100000000000000000e+01,4.000000000000000000e+00,-1.000000000000000000e+00,0.000000000000000000e+00,-4.000000000000000000e+00,-1.200000000000000000e+01,-3.000000000000000000e+00,3.694458007812500000e-01,1.060180664062500000e-01,-9.228515625000000000e-01,-2.423095703125000000e-02
-2.000000000000000000e+01,-2.200000000000000000e+01,-2.700000000000000000e+01,-8.000000000000000000e+00,-6.000000000000000000e+00,-2.000000000000000000e+00,6.000000000000000000e+00,-2.000000000000000000e+00,3.694458007812500000e-01,1.060180664062500000e-01,-9.228515625000000000e-01,-2.423095703125000000e-02
-2.000000000000000000e+00,-1.000000000000000000e+01,4.000000000000000000e+00,0.000000000000000000e+00,7.000000000000000000e+00,3.000000000000000000e+00,4.000000000000000000e+00,0.000000000000000000e+00,3.694458007812500000e-01,1.060180664062500000e-01,-9.228515625000000000e-01,-2.423095703125000000e-02
-5.000000000000000000e+00,4.000000000000000000e+00,1.700000000000000000e+01,-1.000000000000000000e+00,-2.000000000000000000e+00,-1.000000000000000000e+00,1.000000000000000000e+00,-1.000000000000000000e+00,3.694458007812500000e-01,1.060180664062500000e-01,-9.228515625000000000e-01,-2.423095703125000000e-02
1.100000000000000000e+01,1.400000000000000000e+01,1.000000000000000000e+00,-6.000000000000000000e+00,-4.000000000000000000e+00,0.000000000000000000e+00,-2.000000000000000000e+00,-2.000000000000000000e+00,3.693847656250000000e-01,1.060180664062500000e-01,-9.229125976562500000e-01,-2.423095703125000000e-02
7.000000000000000000e+00,1.000000000000000000e+01,-4.000000000000000000e+00,1.000000000000000000e+00,-3.000000000000000000e+00,-1.000000000000000000e+00,-3.000000000000000000e+00,1.000000000000000000e+00,3.693847656250000000e-01,1.060180664062500000e-01,-9.229125976562500000e-01,-2.423095703125000000e-02
-2.000000000000000000e+00,0.000000000000000000e+00,-1.000000000000000000e+00,1.000000000000000000e+00,1.000000000000000000e+00,-2.000000000000000000e+00,-3.000000000000000000e+00,-1.000000000000000000e+00,3.693847656250000000e-01,1.060180664062500000e-01,-9.229125976562500000e-01,-2.423095703125000000e-02
5.000000000000000000e+00,1.400000000000000000e+01,8.000000000000000000e+00,-1.000000000000000000e+00,0.000000000000000000e+00,-1.000000000000000000e+00,0.000000000000000000e+00,-2.000000000000000000e+00,3.693847656250000000e-01,1.060180664062500000e-01,-9.229125976562500000e-01,-2.423095703125000000e-02
-1.900000000000000000e+01,-1.000000000000000000e+00,2.800000000000000000e+01,1.100000000000000000e+01,2.000000000000000000e+00,0.000000000000000000e+00,2.000000000000000000e+00,2.000000000000000000e+00,3.692626953125000000e-01,1.062622070312500000e-01,-9.229125976562500000e-01,-2.398681640625000000e-02
-8.000000000000000000e+00,-4.000000000000000000e+01,-5.200000000000000000e+01,-1.800000000000000000e+01,-6.000000000000000000e+00,-3.000000000000000000e+00,0.000000000000000000e+00,-4.000000000000000000e+00,3.692626953125000000e-01,1.062622070312500000e-01,-9.229125976562500000e-01,-2.398681640625000000e-02
-1.500000000000000000e+01,8.000000000000000000e+00,4.000000000000000000e+00,2.000000000000000000e+00,-2.000000000000000000e+00,-5.000000000000000000e+00,-3.000000000000000000e+00,-4.000000000000000000e+00,3.692626953125000000e-01,1.062622070312500000e-01,-9.229125976562500000e-01,-2.398681640625000000e-02
-8.000000000000000000e+00,-2.400000000000000000e+01,-1.000000000000000000e+01,1.000000000000000000e+00,5.000000000000000000e+00,2.000000000000000000e+00,-2.000000000000000000e+00,-3.000000000000000000e+00,3.692626953125000000e-01,1.062622070312500000e-01,-9.229125976562500000e-01,-2.398681640625000000e-02
7.000000000000000000e+00,3.000000000000000000e+00,5.000000000000000000e+00,-5.000000000000000000e+00,-2.000000000000000000e+00,-1.000000000000000000e+00,1.000000000000000000e+00,0.000000000000000000e+00,3.692016601562500000e-01,1.065673828125000000e-01,-9.229125976562500000e-01,-2.374267578125000000e-02
6.000000000000000000e+00,1.200000000000000000e+01,6.000000000000000000e+00,5.000000000000000000e+00,-4.000000000000000000e+00,-6.000000000000000000e+00,-4.000000000000000000e+00,0.000000000000000000e+00,3.692016601562500000e-01,1.065673828125000000e-01,-9.229125976562500000e-01,-2.374267578125000000e-02
2.000000000000000000e+00,1.000000000000000000e+00,-4.000000000000000000e+00,-6.000000000000000000e+00,0.000000000000000000e+00,1.000000000000000000e+00,2.000000000000000000e+00,1.000000000000000000e+00,3.692016601562500000e-01,1.065673828125000000e-01,-9.229125976562500000e-01,-2.374267578125000000e-02
-3.000000000000000000e+00,1.100000000000000000e+01,1.800000000000000000e+01,8.000000000000000000e+00,1.000000000000000000e+00,1.000000000000000000e+00,-2.000000000000000000e+00,-1.000000000000000000e+00,3.692016601562500000e-01,1.065673828125000000e-01,-9.229125976562500000e-01,-2.374267578125000000e-02
9.000000000000000000e+00,2.000000000000000000e+00,-3.000000000000000000e+01,-1.300000000000000000e+01,-2.000000000000000000e+00,-4.000000000000000000e+00,-5.000000000000000000e+00,-3.000000000000000000e+00,3.692016601562500000e-01,1.068115234375000000e-01,-9.229125976562500000e-01,-2.374267578125000000e-02
9.000000000000000000e+00,-1.100000000000000000e+01,1.200000000000000000e+01,-1.000000000000000000e+00,-5.000000000000000000e+00,-2.000000000000000000e+00,0.000000000000000000e+00,-1.000000000000000000e+00,3.692016601562500000e-01,1.068115234375000000e-01,-9.229125976562500000e-01,-2.374267578125000000e-02
-2.600000000000000000e+01,-2.400000000000000000e+01,-3.300000000000000000e+01,-3.000000000000000000e+00,-3.000000000000000000e+00,-4.000000000000000000e+00,-7.000000000000000000e+00,-5.000000000000000000e+00,3.692016601562500000e-01,1.068115234375000000e-01,-9.229125976562500000e-01,-2.374267578125000000e-02
3.000000000000000000e+00,1.000000000000000000e+00,1.800000000000000000e+01,5.000000000000000000e+00,-3.000000000000000000e+00,-3.000000000000000000e+00,-7.000000000000000000e+00,-1.000000000000000000e+00,3.692016601562500000e-01,1.068115234375000000e-01,-9.229125976562500000e-01,-2.374267578125000000e-02
3.000000000000000000e+00,-6.000000000000000000e+00,-1.600000000000000000e+01,-5.000000000000000000e+00,-6.000000000000000000e+00,3.000000000000000000e+00,5.000000000000000000e+00,2.000000000000000000e+00,3.691406250000000000e-01,1.070556640625000000e-01,-9.229125976562500000e-01,-2.362060546875000000e-02
0.000000000000000000e+00,1.400000000000000000e+01,-2.000000000000000000e+00,-3.000000000000000000e+00,5.000000000000000000e+00,1.000000000000000000e+00,-5.000000000000000000e+00,-1.000000000000000000e+00,3.691406250000000000e-01,1.070556640625000000e-01,-9.229125976562500000e-01,-2.362060546875000000e-02
1.400000000000000000e+01,1.000000000000000000e+01,2.400000000000000000e+01,0.000000000000000000e+00,0.000000000000000000e+00,-2.000000000000000000e+00,0.000000000000000000e+00,3.000000000000000000e+00,3.691406250000000000e-01,1.070556640625000000e-01,-9.229125976562500000e-01,-2.362060546875000000e-02
-9.000000000000000000e+00,-8.000000000000000000e+00,-1.600000000000000000e+01,1.500000000000000000e+01,7.000000000000000000e+00,5.000000000000000000e+00,6.000000000000000000e+00,2.000000000000000000e+00,3.691406250000000000e-01,1.070556640625000000e-01,-9.229125976562500000e-01,-2.362060546875000000e-02
5.000000000000000000e+00,9.000000000000000000e+00,2.000000000000000000e+00,0.000000000000000000e+00,5.000000000000000000e+00,0.000000000000000000e+00,-3.000000000000000000e+00,-1.000000000000000000e+00,3.690795898437500000e-01,1.070556640625000000e-01,-9.229125976562500000e-01,-2.362060546875000000e-02
1.400000000000000000e+01,2.400000000000000000e+01,5.000000000000000000e+00,5.000000000000000000e+00,1.000000000000000000e+00,-2.000000000000000000e+00,2.000000000000000000e+00,2.000000000000000000e+00,3.690795898437500000e-01,1.070556640625000000e-01,-9.229125976562500000e-01,-2.362060546875000000e-02
-4.000000000000000000e+00,-1.600000000000000000e+01,-5.000000000000000000e+00,-4.000000000000000000e+00,1.000000000000000000e+00,-1.000000000000000000e+00,-1.000000000000000000e+00,-1.000000000000000000e+00,3.690795898437500000e-01,1.070556640625000000e-01,-9.229125976562500000e-01,-2.362060546875000000e-02
-3.200000000000000000e+01,-5.800000000000000000e+01,-1.600000000000000000e+01,-1.900000000000000000e+01,-1.100000000000000000e+01,-1.100000000000000000e+01,-2.000000000000000000e+00,-1.000000000000000000e+01,3.690795898437500000e-01,1.070556640625000000e-01,-9.229125976562500000e-01,-2.362060546875000000e-02
2.000000000000000000e+00,-1.500000000000000000e+01,2.000000000000000000e+00,-1.000000000000000000e+01,-1.100000000000000000e+01,-2.000000000000000000e+00,-3.000000000000000000e+00,-4.000000000000000000e+00,3.690185546875000000e-01,1.070556640625000000e-01,-9.229736328125000000e-01,-2.368164062500000000e-02
-2.000000000000000000e+00,7.000000000000000000e+00,3.000000000000000000e+01,1.700000000000000000e+01,1.000000000000000000e+01,4.000000000000000000e+00,7.000000000000000000e+00,0.000000000000000000e+00,3.690185546875000000e-01,1.070556640625000000e-01,-9.229736328125000000e-01,-2.368164062500000000e-02
1.200000000000000000e+01,1.200000000000000000e+01,-2.500000000000000000e+01,3.000000000000000000e+00,0.000000000000000000e+00,0.000000000000000000e+00,-2.000000000000000000e+00,0.000000000000000000e+00,3.688354492187500000e-01,1.068725585937500000e-01,-9.230346679687500000e-01,-2.380371093750000000e-02
7.000000000000000000e+00,2.200000000000000000e+01,3.000000000000000000e+00,-9.000000000000000000e+00,-6.000000000000000000e+00,-2.000000000000000000e+00,-2.000000000000000000e+00,0.000000000000000000e+00,3.688354492187500000e-01,1.068725585937500000e-01,-9.230346679687500000e-01,-2.380371093750000000e-02
-5.000000000000000000e+00,1.000000000000000000e+00,1.000000000000000000e+00,2.000000000000000000e+00,-2.000000000000000000e+00,-2.000000000000000000e+00,0.000000000000000000e+00,-1.000000000000000000e+00,3.688354492187500000e-01,1.068725585937500000e-01,-9.230346679687500000e-01,-2.380371093750000000e-02
-2.000000000000000000e+00,-6.000000000000000000e+00,-4.000000000000000000e+00,-1.000000000000000000e+00,0.000000000000000000e+00,0.000000000000000000e+00,0.000000000000000000e+00,-2.000000000000000000e+00,3.688354492187500000e-01,1.068725585937500000e-01,-9.230346679687500000e-01,-2.380371093750000000e-02
-1.000000000000000000e+00,3.000000000000000000e+00,6.000000000000000000e+00,-1.000000000000000000e+00,-3.000000000000000000e+00,-2.000000000000000000e+00,-2.000000000000000000e+00,-1.000000000000000000e+00,3.687744140625000000e-01,1.065063476562500000e-01,-9.230957031250000000e-01,-2.380371093750000000e-02
3.000000000000000000e+00,3.000000000000000000e+00,2.000000000000000000e+00,-5.000000000000000000e+00,2.000000000000000000e+00,-1.000000000000000000e+00,0.000000000000000000e+00,6.000000000000000000e+00,3.687744140625000000e-01,1.065063476562500000e-01,-9.230957031250000000e-01,-2.380371093750000000e-02
0.000000000000000000e+00,4.000000000000000000e+00,-2.000000000000000000e+00,-1.000000000000000000e+00,-1.000000000000000000e+00,1.000000000000000000e+00,4.000000000000000000e+00,1.000000000000000000e+00,3.687744140625000000e-01,1.065063476562500000e-01,-9.230957031250000000e-01,-2.380371093750000000e-02
1.600000000000000000e+01,2.400000000000000000e+01,2.400000000000000000e+01,7.000000000000000000e+00,8.000000000000000000e+00,5.000000000000000000e+00,5.000000000000000000e+00,3.000000000000000000e+00,3.687744140625000000e-01,1.065063476562500000e-01,-9.230957031250000000e-01,-2.380371093750000000e-02
-2.100000000000000000e+01,-1.800000000000000000e+01,-4.000000000000000000e+00,2.000000000000000000e+00,0.000000000000000000e+00,0.000000000000000000e+00,0.000000000000000000e+00,-3.000000000000000000e+00,3.685913085937500000e-01,1.064453125000000000e-01,-9.232177734375000000e-01,-2.374267578125000000e-02
-9.000000000000000000e+00,-1.500000000000000000e+01,-6.000000000000000000e+00,-4.000000000000000000e+00,-7.000000000000000000e+00,-2.000000000000000000e+00,-3.000000000000000000e+00,-4.000000000000000000e+00,3.685913085937500000e-01,1.064453125000000000e-01,-9.232177734375000000e-01,-2.374267578125000000e-02
-6.000000000000000000e+00,-2.900000000000000000e+01,6.000000000000000000e+00,2.000000000000000000e+00,-2.000000000000000000e+00,-2.000000000000000000e+00,1.000000000000000000e+00,-7.000000000000000000e+00,3.685913085937500000e-01,1.064453125000000000e-01,-9.232177734375000000e-01,-2.374267578125000000e-02
1.000000000000000000e+00,3.000000000000000000e+00,-1.600000000000000000e+01,-9.000000000000000000e+00,-7.000000000000000000e+00,-3.000000000000000000e+00,-5.000000000000000000e+00,-2.000000000000000000e+00,3.685913085937500000e-01,1.064453125000000000e-01,-9.232177734375000000e-01,-2.374267578125000000e-02
9.000000000000000000e+00,1.200000000000000000e+01,1.000000000000000000e+00,5.000000000000000000e+00,4.000000000000000000e+00,4.000000000000000000e+00,-1.000000000000000000e+00,3.000000000000000000e+00,3.685913085937500000e-01,1.065063476562500000e-01,-9.232177734375000000e-01,-2.374267578125000000e-02
7.000000000000000000e+00,1.300000000000000000e+01,1.100000000000000000e+01,7.000000000000000000e+00,3.000000000000000000e+00,3.000000000000000000e+00,-3.000000000000000000e+00,3.000000000000000000e+00,3.685913085937500000e-01,1.065063476562500000e-01,-9.232177734375000000e-01,-2.374267578125000000e-02
1.000000000000000000e+00,7.000000000000000000e+00,-5.000000000000000000e+00,9.000000000000000000e+00,-2.000000000000000000e+00,-2.000000000000000000e+00,-2.000000000000000000e+00,1.000000000000000000e+00,3.685913085937500000e-01,1.065063476562500000e-01,-9.232177734375000000e-01,-2.374267578125000000e-02
-7.000000000000000000e+00,-6.000000000000000000e+00,-3.000000000000000000e+00,-8.000000000000000000e+00,5.000000000000000000e+00,2.000000000000000000e+00,-5.000000000000000000e+00,-2.000000000000000000e+00,3.685913085937500000e-01,1.065063476562500000e-01,-9.232177734375000000e-01,-2.374267578125000000e-02
5.000000000000000000e+00,4.000000000000000000e+00,8.000000000000000000e+00,-7.000000000000000000e+00,-5.000000000000000000e+00,-5.000000000000000000e+00,-2.000000000000000000e+00,-2.000000000000000000e+00,3.683471679687500000e-01,1.066894531250000000e-01,-9.232788085937500000e-01,-2.386474609375000000e-02
0.000000000000000000e+00,7.000000000000000000e+00,-8.000000000000000000e+00,-5.000000000000000000e+00,-2.000000000000000000e+00,-1.000000000000000000e+00,-1.000000000000000000e+01,-1.000000000000000000e+00,3.683471679687500000e-01,1.066894531250000000e-01,-9.232788085937500000e-01,-2.386474609375000000e-02
-4.000000000000000000e+00,0.000000000000000000e+00,-1.000000000000000000e+01,3.000000000000000000e+00,5.000000000000000000e+00,2.000000000000000000e+00,4.000000000000000000e+00,0.000000000000000000e+00,3.683471679687500000e-01,1.066894531250000000e-01,-9.232788085937500000e-01,-2.386474609375000000e-02
0.000000000000000000e+00,2.000000000000000000e+00,-7.000000000000000000e+00,-1.000000000000000000e+00,-8.000000000000000000e+00,-2.000000000000000000e+00,1.000000000000000000e+00,1.000000000000000000e+00,3.683471679687500000e-01,1.066894531250000000e-01,-9.232788085937500000e-01,-2.386474609375000000e-02
-1.800000000000000000e+01,-1.100000000000000000e+01,6.000000000000000000e+00,-1.000000000000000000e+00,4.000000000000000000e+00,-1.000000000000000000e+00,-6.000000000000000000e+00,-4.000000000000000000e+00,3.682250976562500000e-01,1.067504882812500000e-01,-9.232788085937500000e-01,-2.416992187500000000e-02
1.100000000000000000e+01,0.000000000000000000e+00,-3.000000000000000000e+01,-3.000000000000000000e+00,-2.000000000000000000e+00,-5.000000000000000000e+00,-1.000000000000000000e+00,-5.000000000000000000e+00,3.682250976562500000e-01,1.067504882812500000e-01,-9.232788085937500000e-01,-2.416992187500000000e-02
-3.000000000000000000e+00,-7.000000000000000000e+00,-1.300000000000000000e+01,-2.000000000000000000e+00,-1.000000000000000000e+00,-2.000000000000000000e+00,-4.000000000000000000e+00,-2.000000000000000000e+00,3.682250976562500000e-01,1.067504882812500000e-01,-9.232788085937500000e-01,-2.416992187500000000e-02
-8.000000000000000000e+00,-7.000000000000000000e+00,-1.000000000000000000e+00,1.200000000000000000e+01,2.000000000000000000e+00,1.000000000000000000e+00,1.000000000000000000e+00,-1.000000000000000000e+00,3.682250976562500000e-01,1.067504882812500000e-01,-9.232788085937500000e-01,-2.416992187500000000e-02
6.000000000000000000e+00,5.000000000000000000e+00,1.200000000000000000e+01,-1.000000000000000000e+00,1.000000000000000000e+00,0.000000000000000000e+00,-1.000000000000000000e+00,0.000000000000000000e+00,3.679809570312500000e-01,1.068725585937500000e-01,-9.233398437500000000e-01,-2.435302734375000000e-02
-1.000000000000000000e+00,7.000000000000000000e+00,0.000000000000000000e+00,2.000000000000000000e+00,-2.000000000000000000e+00,-1.000000000000000000e+00,2.000000000000000000e+00,0.000000000000000000e+00,3.679809570312500000e-01,1.068725585937500000e-01,-9.233398437500000000e-01,-2.435302734375000000e-02
0.000000000000000000e+00,7.000000000000000000e+00,-7.000000000000000000e+00,-4.000000000000000000e+00,0.000000000000000000e+00,2.000000000000000000e+00,-2.000000000000000000e+00,-1.000000000000000000e+00,3.679809570312500000e-01,1.068725585937500000e-01,-9.233398437500000000e-01,-2.435302734375000000e-02
-3.000000000000000000e+00,-6.000000000000000000e+00,4.000000000000000000e+00,-4.000000000000000000e+00,-3.000000000000000000e+00,1.000000000000000000e+00,2.000000000000000000e+00,-1.000000000000000000e+00,3.679809570312500000e-01,1.068725585937500000e-01,-9.233398437500000000e-01,-2.435302734375000000e-02
7.000000000000000000e+00,1.600000000000000000e+01,-1.000000000000000000e+01,-3.000000000000000000e+00,-3.000000000000000000e+00,-1.000000000000000000e+00,-1.000000000000000000e+00,-3.000000000000000000e+00,3.679809570312500000e-01,1.068725585937500000e-01,-9.233398437500000000e-01,-2.435302734375000000e-02
2.100000000000000000e+01,5.000000000000000000e+00,1.500000000000000000e+01,2.000000000000000000e+00,1.000000000000000000e+00,2.000000000000000000e+00,5.000000000000000000e+00,6.000000000000000000e+00,3.679809570312500000e-01,1.068725585937500000e-01,-9.233398437500000000e-01,-2.435302734375000000e-02
-5.400000000000000000e+01,-1.000000000000000000e+01,1.300000000000000000e+01,1.200000000000000000e+01,5.000000000000000000e+00,2.000000000000000000e+00,-3.000000000000000000e+00,-3.000000000000000000e+00,3.679809570312500000e-01,1.068725585937500000e-01,-9.233398437500000000e-01,-2.435302734375000000e-02
-1.900000000000000000e+01,-5.300000000000000000e+01,-6.000000000000000000e+01,-2.800000000000000000e+01,-1.000000000000000000e+01,-4.000000000000000000e+00,-8.000000000000000000e+00,-7.000000000000000000e+00,3.679809570312500000e-01,1.068725585937500000e-01,-9.233398437500000000e-01,-2.435302734375000000e-02
1.000000000000000000e+00,-1.200000000000000000e+01,0.000000000000000000e+00,4.000000000000000000e+00,-3.000000000000000000e+00,-7.000000000000000000e+00,-3.000000000000000000e+00,-3.000000000000000000e+00,3.679199218750000000e-01,1.072387695312500000e-01,-9.233398437500000000e-01,-2.416992187500000000e-02
1.000000000000000000e+01,1.200000000000000000e+01,1.500000000000000000e+01,-9.000000000000000000e+00,-5.000000000000000000e+00,-1.000000000000000000e+00,3.000000000000000000e+00,2.000000000000000000e+00,3.679199218750000000e-01,1.072387695312500000e-01,-9.233398437500000000e-01,-2.416992187500000000e-02
1.800000000000000000e+01,2.000000000000000000e+01,1.700000000000000000e+01,-2.000000000000000000e+00,0.000000000000000000e+00,-1.000000000000000000e+00,1.000000000000000000e+00,3.000000000000000000e+00,3.679199218750000000e-01,1.072387695312500000e-01,-9.233398437500000000e-01,-2.416992187500000000e-02
-2.000000000000000000e+00,6.000000000000000000e+00,3.000000000000000000e+00,6.000000000000000000e+00,1.000000000000000000e+00,-1.000000000000000000e+00,-5.000000000000000000e+00,1.000000000000000000e+00,3.679199218750000000e-01,1.072387695312500000e-01,-9.233398437500000000e-01,-2.416992187500000000e-02
3.000000000000000000e+00,2.000000000000000000e+00,-3.000000000000000000e+00,-5.000000000000000000e+00,-3.000000000000000000e+00,5.000000000000000000e+00,-6.000000000000000000e+00,-3.000000000000000000e+00,3.679199218750000000e-01,1.072998046875000000e-01,-9.233398437500000000e-01,-2.423095703125000000e-02
-3.000000000000000000e+00,1.000000000000000000e+00,-5.000000000000000000e+00,-1.000000000000000000e+00,3.000000000000000000e+00,1.000000000000000000e+00,2.000000000000000000e+00,-2.000000000000000000e+00,3.679199218750000000e-01,1.072998046875000000e-01,-9.233398437500000000e-01,-2.423095703125000000e-02
5.000000000000000000e+00,-6.000000000000000000e+00,-4.000000000000000000e+00,-6.000000000000000000e+00,9.000000000000000000e+00,1.000000000000000000e+00,0.000000000000000000e+00,1.000000000000000000e+00,3.679199218750000000e-01,1.072998046875000000e-01,-9.233398437500000000e-01,-2.423095703125000000e-02
-2.000000000000000000e+00,5.000000000000000000e+00,4.000000000000000000e+00,6.000000000000000000e+00,3.000000000000000000e+00,-1.000000000000000000e+00,-3.000000000000000000e+00,-5.000000000000000000e+00,3.679199218750000000e-01,1.072998046875000000e-01,-9.233398437500000000e-01,-2.423095703125000000e-02
1.100000000000000000e+01,1.400000000000000000e+01,5.000000000000000000e+00,-5.000000000000000000e+00,-1.000000000000000000e+01,-1.000000000000000000e+00,2.000000000000000000e+00,2.000000000000000000e+00,3.676147460937500000e-01,1.075439453125000000e-01,-9.234008789062500000e-01,-2.435302734375000000e-02
-6.000000000000000000e+00,-1.200000000000000000e+01,1.300000000000000000e+01,-7.000000000000000000e+00,2.000000000000000000e+00,1.000000000000000000e+00,-1.000000000000000000e+00,-1.000000000000000000e+00,3.676147460937500000e-01,1.075439453125000000e-01,-9.234008789062500000e-01,-2.435302734375000000e-02
9.000000000000000000e+00,6.000000000000000000e+00,1.300000000000000000e+01,1.200000000000000000e+01,-3.000000000000000000e+00,-1.000000000000000000e+00,-4.000000000000000000e+00,-5.000000000000000000e+00,3.676147460937500000e-01,1.075439453125000000e-01,-9.234008789062500000e-01,-2.435302734375000000e-02
-7.000000000000000000e+00,-6.000000000000000000e+00,-9.000000000000000000e+00,-9.000000000000000000e+00,-6.000000000000000000e+00,-3.000000000000000000e+00,-3.000000000000000000e+00,-4.000000000000000000e+00,3.676147460937500000e-01,1.075439453125000000e-01,-9.234008789062500000e-01,-2.435302734375000000e-02
-6.000000000000000000e+00,-1.400000000000000000e+01,3.000000000000000000e+00,4.000000000000000000e+00,1.000000000000000000e+00,-3.000000000000000000e+00,-2.000000000000000000e+00,-1.000000000000000000e+00,3.674316406250000000e-01,1.079101562500000000e-01,-9.234619140625000000e-01,-2.435302734375000000e-02
-9.000000000000000000e+00,-1.300000000000000000e+01,-3.000000000000000000e+00,3.000000000000000000e+00,-1.000000000000000000e+00,1.000000000000000000e+00,0.000000000000000000e+00,-1.000000000000000000e+00,3.674316406250000000e-01,1.079101562500000000e-01,-9.234619140625000000e-01,-2.435302734375000000e-02
8.000000000000000000e+00,9.000000000000000000e+00,3.000000000000000000e+00,-4.000000000000000000e+00,0.000000000000000000e+00,-2.000000000000000000e+00,0.000000000000000000e+00,3.000000000000000000e+00,3.674316406250000000e-01,1.079101562500000000e-01,-9.234619140625000000e-01,-2.435302734375000000e-02
3.000000000000000000e+00,1.200000000000000000e+01,6.000000000000000000e+00,2.000000000000000000e+00,-1.000000000000000000e+00,-3.000000000000000000e+00,-3.000000000000000000e+00,-1.000000000000000000e+00,3.674316406250000000e-01,1.079101562500000000e-01,-9.234619140625000000e-01,-2.435302734375000000e-02
0.000000000000000000e+00,2.000000000000000000e+00,4.000000000000000000e+00,-5.000000000000000000e+00,-4.000000000000000000e+00,0.000000000000000000e+00,2.000000000000000000e+00,-1.000000000000000000e+00,3.671264648437500000e-01,1.084594726562500000e-01,-9.235229492187500000e-01,-2.410888671875000000e-02
-4.000000000000000000e+00,1.500000000000000000e+01,3.000000000000000000e+00,2.000000000000000000e+01,8.000000000000000000e+00,4.000000000000000000e+00,4.000000000000000000e+00,0.000000000000000000e+00,3.671264648437500000e-01,1.084594726562500000e-01,-9.235229492187500000e-01,-2.410888671875000000e-02
1.700000000000000000e+01,2.000000000000000000e+00,-5.000000000000000000e+00,-3.000000000000000000e+00,4.000000000000000000e+00,-4.000000000000000000e+00,-6.000000000000000000e+00,3.000000000000000000e+00,3.671264648437500000e-01,1.084594726562500000e-01,-9.235229492187500000e-01,-2.410888671875000000e-02
-1.200000000000000000e+01,-1.000000000000000000e+01,-8.000000000000000000e+00,1.000000000000000000e+00,-7.000000000000000000e+00,-5.000000000000000000e+00,3.000000000000000000e+00,-4.000000000000000000e+00,3.671264648437500000e-01,1.084594726562500000e-01,-9.235229492187500000e-01,-2.410888671875000000e-02
-2.000000000000000000e+01,-2.900000000000000000e+01,1.800000000000000000e+01,-5.000000000000000000e+00,-5.000000000000000000e+00,-4.000000000000000000e+00,2.000000000000000000e+00,-2.000000000000000000e+00,3.670654296875000000e-01,1.091918945312500000e-01,-9.234619140625000000e-01,-2.380371093750000000e-02
-1.000000000000000000e+00,-6.000000000000000000e+00,-3.000000000000000000e+01,-7.000000000000000000e+00,-2.000000000000000000e+00,-5.000000000000000000e+00,-4.000000000000000000e+00,-4.000000000000000000e+00,3.670654296875000000e-01,1.091918945312500000e-01,-9.234619140625000000e-01,-2.380371093750000000e-02
0.000000000000000000e+00,1.900000000000000000e+01,-2.000000000000000000e+00,4.000000000000000000e+00,-2.000000000000000000e+00,0.000000000000000000e+00,1.000000000000000000e+00,0.000000000000000000e+00,3.670654296875000000e-01,1.091918945312500000e-01,-9.234619140625000000e-01,-2.380371093750000000e-02
7.000000000000000000e+00,-8.000000000000000000e+00,1.200000000000000000e+01,-2.000000000000000000e+00,2.000000000000000000e+00,1.000000000000000000e+00,4.000000000000000000e+00,7.000000000000000000e+00,3.670654296875000000e-01,1.091918945312500000e-01,-9.234619140625000000e-01,-2.380371093750000000e-02
1.000000000000000000e+00,1.000000000000000000e+00,-1.800000000000000000e+01,-3.000000000000000000e+00,1.000000000000000000e+00,-2.000000000000000000e+00,-2.000000000000000000e+00,0.000000000000000000e+00,3.670654296875000000e-01,1.094970703125000000e-01,-9.234619140625000000e-01,-2.368164062500000000e-02
-3.000000000000000000e+00,-1.000000000000000000e+00,4.000000000000000000e+00,1.000000000000000000e+00,-4.000000000000000000e+00,-3.000000000000000000e+00,-2.000000000000000000e+00,-1.000000000000000000e+00,3.670654296875000000e-01,1.094970703125000000e-01,-9.234619140625000000e-01,-2.368164062500000000e-02
0.000000000000000000e+00,-6.000000000000000000e+00,-4.000000000000000000e+00,-1.000000000000000000e+00,0.000000000000000000e+00,-3.000000000000000000e+00,-1.000000000000000000e+00,-4.000000000000000000e+00,3.670654296875000000e-01,1.094970703125000000e-01,-9.234619140625000000e-01,-2.368164062500000000e-02
1.200000000000000000e+01,1.400000000000000000e+01,1.100000000000000000e+01,5.000000000000000000e+00,-1.000000000000000000e+00,1.000000000000000000e+00,-1.000000000000000000e+00,1.000000000000000000e+00,3.670654296875000000e-01,1.094970703125000000e-01,-9.234619140625000000e-01,-2.368164062500000000e-02
