6.000000000000000000e+00,1.100000000000000000e+01,-2.000000000000000000e+01,-3.000000000000000000e+00,6.000000000000000000e+00,4.000000000000000000e+00,-6.000000000000000000e+00,2.000000000000000000e+00,3.899536132812500000e-01,1.589965820312500000e-01,-9.049072265625000000e-01,-6.176757812500000000e-02
-3.000000000000000000e+00,-1.400000000000000000e+01,-2.600000000000000000e+01,-4.200000000000000000e+01,-1.400000000000000000e+01,-5.000000000000000000e+00,-2.000000000000000000e+00,-4.000000000000000000e+00,3.899536132812500000e-01,1.589965820312500000e-01,-9.049072265625000000e-01,-6.176757812500000000e-02
-9.000000000000000000e+00,-5.000000000000000000e+00,2.400000000000000000e+01,1.200000000000000000e+01,1.000000000000000000e+00,2.000000000000000000e+00,6.000000000000000000e+00,0.000000000000000000e+00,3.901977539062500000e-01,1.593627929687500000e-01,-9.046630859375000000e-01,-6.274414062500000000e-02
-2.000000000000000000e+00,-5.000000000000000000e+00,6.000000000000000000e+00,2.000000000000000000e+00,3.000000000000000000e+00,0.000000000000000000e+00,4.000000000000000000e+00,-1.000000000000000000e+00,3.901977539062500000e-01,1.593627929687500000e-01,-9.046630859375000000e-01,-6.274414062500000000e-02
1.000000000000000000e+00,1.000000000000000000e+00,-1.400000000000000000e+01,4.000000000000000000e+00,1.200000000000000000e+01,8.000000000000000000e+00,-4.000000000000000000e+00,4.000000000000000000e+00,3.901977539062500000e-01,1.593627929687500000e-01,-9.046630859375000000e-01,-6.274414062500000000e-02
-4.000000000000000000e+00,-1.000000000000000000e+00,-5.100000000000000000e+01,-1.100000000000000000e+01,-8.000000000000000000e+00,-5.000000000000000000e+00,7.000000000000000000e+00,0.000000000000000000e+00,3.901977539062500000e-01,1.593627929687500000e-01,-9.046630859375000000e-01,-6.274414062500000000e-02
1.400000000000000000e+01,6.000000000000000000e+00,1.700000000000000000e+01,-1.000000000000000000e+01,1.000000000000000000e+00,-2.000000000000000000e+00,-1.500000000000000000e+01,2.000000000000000000e+00,3.898315429687500000e-01,1.600341796875000000e-01,-9.046020507812500000e-01,-6.372070312500000000e-02
-2.000000000000000000e+00,-8.000000000000000000e+00,6.000000000000000000e+01,-4.000000000000000000e+00,-6.000000000000000000e+00,-3.000000000000000000e+00,-7.000000000000000000e+00,-3.000000000000000000e+00,3.898315429687500000e-01,1.600341796875000000e-01,-9.046020507812500000e-01,-6.372070312500000000e-02
-3.000000000000000000e+00,2.000000000000000000e+00,2.500000000000000000e+01,7.000000000000000000e+00,-2.000000000000000000e+00,0.000000000000000000e+00,2.500000000000000000e+01,-1.000000000000000000e+00,3.898315429687500000e-01,1.600341796875000000e-01,-9.046020507812500000e-01,-6.372070312500000000e-02
1.000000000000000000e+00,6.000000000000000000e+00,2.700000000000000000e+01,2.500000000000000000e+01,8.000000000000000000e+00,1.000000000000000000e+00,-2.300000000000000000e+01,-1.000000000000000000e+00,3.898315429687500000e-01,1.600341796875000000e-01,-9.046020507812500000e-01,-6.372070312500000000e-02
-1.000000000000000000e+00,1.000000000000000000e+00,-1.800000000000000000e+01,-1.500000000000000000e+01,-7.000000000000000000e+00,-4.000000000000000000e+00,3.600000000000000000e+01,5.000000000000000000e+00,3.894042968750000000e-01,1.614379882812500000e-01,-9.045410156250000000e-01,-6.433105468750000000e-02
0.000000000000000000e+00,6.000000000000000000e+00,4.200000000000000000e+01,3.800000000000000000e+01,0.000000000000000000e+00,-1.000000000000000000e+00,-7.000000000000000000e+00,-9.000000000000000000e+00,3.894042968750000000e-01,1.614379882812500000e-01,-9.045410156250000000e-01,-6.433105468750000000e-02
-7.000000000000000000e+00,-1.500000000000000000e+01,-7.500000000000000000e+01,-3.700000000000000000e+01,-1.000000000000000000e+01,-5.000000000000000000e+00,0.000000000000000000e+00,1.000000000000000000e+01,3.894042968750000000e-01,1.614379882812500000e-01,-9.045410156250000000e-01,-6.433105468750000000e-02
-6.000000000000000000e+00,-1.000000000000000000e+00,2.900000000000000000e+01,1.900000000000000000e+01,-1.000000000000000000e+00,-3.000000000000000000e+00,-1.000000000000000000e+00,-8.000000000000000000e+00,3.894042968750000000e-01,1.614379882812500000e-01,-9.045410156250000000e-01,-6.433105468750000000e-02
-2.000000000000000000e+00,-1.000000000000000000e+00,3.000000000000000000e+00,-1.000000000000000000e+01,-3.000000000000000000e+00,-1.000000000000000000e+00,-8.000000000000000000e+00,-7.000000000000000000e+00,3.890380859375000000e-01,1.624755859375000000e-01,-9.044799804687500000e-01,-6.457519531250000000e-02
7.000000000000000000e+00,7.000000000000000000e+00,-9.000000000000000000e+00,6.000000000000000000e+00,3.000000000000000000e+00,2.000000000000000000e+00,-2.000000000000000000e+00,-1.000000000000000000e+00,3.890380859375000000e-01,1.624755859375000000e-01,-9.044799804687500000e-01,-6.457519531250000000e-02
-2.000000000000000000e+00,-2.000000000000000000e+00,2.800000000000000000e+01,-1.100000000000000000e+01,-1.000000000000000000e+01,-2.000000000000000000e+00,-5.000000000000000000e+00,-3.000000000000000000e+00,3.890380859375000000e-01,1.624755859375000000e-01,-9.044799804687500000e-01,-6.457519531250000000e-02
-1.000000000000000000e+00,1.000000000000000000e+00,3.800000000000000000e+01,2.000000000000000000e+01,5.000000000000000000e+00,3.000000000000000000e+00,-9.000000000000000000e+00,1.000000000000000000e+00,3.890380859375000000e-01,1.624755859375000000e-01,-9.044799804687500000e-01,-6.457519531250000000e-02
-7.000000000000000000e+00,-9.000000000000000000e+00,-7.200000000000000000e+01,-1.800000000000000000e+01,-3.000000000000000000e+00,8.000000000000000000e+00,1.000000000000000000e+01,-3.000000000000000000e+00,3.887939453125000000e-01,1.624145507812500000e-01,-9.046020507812500000e-01,-6.488037109375000000e-02
1.000000000000000000e+00,4.000000000000000000e+00,6.000000000000000000e+00,-1.200000000000000000e+01,-1.000000000000000000e+00,-2.000000000000000000e+00,4.000000000000000000e+00,2.000000000000000000e+00,3.887939453125000000e-01,1.624145507812500000e-01,-9.046020507812500000e-01,-6.488037109375000000e-02
-1.000000000000000000e+00,-1.000000000000000000e+01,-2.400000000000000000e+01,-8.000000000000000000e+00,-1.000000000000000000e+00,1.000000000000000000e+00,-9.000000000000000000e+00,-5.000000000000000000e+00,3.887939453125000000e-01,1.624145507812500000e-01,-9.046020507812500000e-01,-6.488037109375000000e-02
-8.000000000000000000e+00,-3.000000000000000000e+00,0.000000000000000000e+00,1.500000000000000000e+01,-1.000000000000000000e+00,-1.000000000000000000e+00,3.000000000000000000e+00,0.000000000000000000e+00,3.887939453125000000e-01,1.624145507812500000e-01,-9.046020507812500000e-01,-6.488037109375000000e-02
0.000000000000000000e+00,-6.000000000000000000e+00,-9.000000000000000000e+00,-2.000000000000000000e+00,-1.000000000000000000e+00,3.000000000000000000e+00,-3.000000000000000000e+00,3.000000000000000000e+00,3.885498046875000000e-01,1.622924804687500000e-01,-9.047241210937500000e-01,-6.506347656250000000e-02
2.000000000000000000e+00,1.000000000000000000e+00,-1.000000000000000000e+01,1.000000000000000000e+01,-1.000000000000000000e+00,-7.000000000000000000e+00,-2.300000000000000000e+01,4.000000000000000000e+00,3.885498046875000000e-01,1.622924804687500000e-01,-9.047241210937500000e-01,-6.506347656250000000e-02
1.000000000000000000e+00,-2.000000000000000000e+00,-7.400000000000000000e+01,-3.200000000000000000e+01,-8.000000000000000000e+00,-4.000000000000000000e+00,5.000000000000000000e+00,-1.200000000000000000e+01,3.885498046875000000e-01,1.622924804687500000e-01,-9.047241210937500000e-01,-6.506347656250000000e-02
-1.000000000000000000e+00,-4.000000000000000000e+00,7.000000000000000000e+00,-2.000000000000000000e+00,1.400000000000000000e+01,3.000000000000000000e+00,8.000000000000000000e+00,-2.000000000000000000e+00,3.885498046875000000e-01,1.622924804687500000e-01,-9.047241210937500000e-01,-6.506347656250000000e-02
-1.000000000000000000e+00,1.000000000000000000e+00,2.400000000000000000e+01,7.000000000000000000e+00,-5.000000000000000000e+00,-5.000000000000000000e+00,-1.200000000000000000e+01,-4.000000000000000000e+00,3.881835937500000000e-01,1.618652343750000000e-01,-9.049682617187500000e-01,-6.500244140625000000e-02
2.000000000000000000e+00,3.000000000000000000e+00,-1.700000000000000000e+01,-4.000000000000000000e+00,-3.000000000000000000e+00,0.000000000000000000e+00,-3.000000000000000000e+00,5.000000000000000000e+00,3.881835937500000000e-01,1.618652343750000000e-01,-9.049682617187500000e-01,-6.500244140625000000e-02
7.000000000000000000e+00,1.600000000000000000e+01,7.100000000000000000e+01,4.300000000000000000e+01,1.300000000000000000e+01,-1.000000000000000000e+00,-1.600000000000000000e+01,4.000000000000000000e+00,3.881835937500000000e-01,1.618652343750000000e-01,-9.049682617187500000e-01,-6.500244140625000000e-02
-7.000000000000000000e+00,-1.000000000000000000e+01,9.000000000000000000e+00,-1.400000000000000000e+01,-1.800000000000000000e+01,-6.000000000000000000e+00,2.100000000000000000e+01,-3.000000000000000000e+00,3.881835937500000000e-01,1.618652343750000000e-01,-9.049682617187500000e-01,-6.500244140625000000e-02
-8.000000000000000000e+00,-9.000000000000000000e+00,-1.030000000000000000e+02,-1.400000000000000000e+01,-2.000000000000000000e+00,-2.000000000000000000e+00,7.000000000000000000e+00,-5.000000000000000000e+00,3.876953125000000000e-01,1.620483398437500000e-01,-9.051513671875000000e-01,-6.494140625000000000e-02
1.000000000000000000e+00,0.000000000000000000e+00,9.000000000000000000e+00,3.000000000000000000e+00,6.000000000000000000e+00,7.000000000000000000e+00,2.400000000000000000e+01,2.000000000000000000e+00,3.876953125000000000e-01,1.620483398437500000e-01,-9.051513671875000000e-01,-6.494140625000000000e-02
1.000000000000000000e+00,5.000000000000000000e+00,1.300000000000000000e+01,-1.500000000000000000e+01,-2.000000000000000000e+00,-2.000000000000000000e+00,-1.400000000000000000e+01,0.000000000000000000e+00,3.876953125000000000e-01,1.620483398437500000e-01,-9.051513671875000000e-01,-6.494140625000000000e-02
4.000000000000000000e+00,4.000000000000000000e+00,5.600000000000000000e+01,9.000000000000000000e+00,3.000000000000000000e+00,3.000000000000000000e+00,2.000000000000000000e+00,2.000000000000000000e+00,3.876953125000000000e-01,1.620483398437500000e-01,-9.051513671875000000e-01,-6.494140625000000000e-02
-8.000000000000000000e+00,3.000000000000000000e+00,7.200000000000000000e+01,2.700000000000000000e+01,3.000000000000000000e+00,0.000000000000000000e+00,-1.100000000000000000e+01,3.000000000000000000e+00,3.875122070312500000e-01,1.616821289062500000e-01,-9.052734375000000000e-01,-6.506347656250000000e-02
-4.000000000000000000e+00,-1.100000000000000000e+01,-7.600000000000000000e+01,-2.000000000000000000e+01,-4.000000000000000000e+00,-1.000000000000000000e+00,-2.000000000000000000e+00,-7.000000000000000000e+00,3.875122070312500000e-01,1.616821289062500000e-01,-9.052734375000000000e-01,-6.506347656250000000e-02
6.000000000000000000e+00,1.300000000000000000e+01,1.700000000000000000e+01,-5.000000000000000000e+00,4.000000000000000000e+00,8.000000000000000000e+00,1.000000000000000000e+01,3.000000000000000000e+00,3.875122070312500000e-01,1.616821289062500000e-01,-9.052734375000000000e-01,-6.506347656250000000e-02
-8.000000000000000000e+00,-2.100000000000000000e+01,-8.900000000000000000e+01,-1.600000000000000000e+01,-1.600000000000000000e+01,-7.000000000000000000e+00,-3.000000000000000000e+00,-3.000000000000000000e+00,3.875122070312500000e-01,1.616821289062500000e-01,-9.052734375000000000e-01,-6.506347656250000000e-02
5.000000000000000000e+00,5.000000000000000000e+00,6.000000000000000000e+00,4.000000000000000000e+00,1.100000000000000000e+01,0.000000000000000000e+00,-3.000000000000000000e+00,1.000000000000000000e+00,3.876342773437500000e-01,1.609497070312500000e-01,-9.053344726562500000e-01,-6.506347656250000000e-02
1.000000000000000000e+00,2.000000000000000000e+00,-2.000000000000000000e+01,-2.400000000000000000e+01,-2.000000000000000000e+00,-1.000000000000000000e+00,-6.000000000000000000e+00,-1.000000000000000000e+00,3.876342773437500000e-01,1.609497070312500000e-01,-9.053344726562500000e-01,-6.506347656250000000e-02
3.000000000000000000e+00,6.000000000000000000e+00,-1.400000000000000000e+01,6.000000000000000000e+00,5.000000000000000000e+00,1.100000000000000000e+01,2.500000000000000000e+01,4.000000000000000000e+00,3.876342773437500000e-01,1.609497070312500000e-01,-9.053344726562500000e-01,-6.506347656250000000e-02
5.000000000000000000e+00,8.000000000000000000e+00,-1.700000000000000000e+01,-3.000000000000000000e+00,-4.000000000000000000e+00,-2.000000000000000000e+00,-1.700000000000000000e+01,-5.000000000000000000e+00,3.876342773437500000e-01,1.609497070312500000e-01,-9.053344726562500000e-01,-6.506347656250000000e-02
-3.000000000000000000e+00,0.000000000000000000e+00,2.800000000000000000e+01,6.000000000000000000e+00,-4.000000000000000000e+00,-7.000000000000000000e+00,-1.200000000000000000e+01,-4.000000000000000000e+00,3.878173828125000000e-01,1.607055664062500000e-01,-9.053344726562500000e-01,-6.469726562500000000e-02
-2.000000000000000000e+00,-4.000000000000000000e+00,-2.100000000000000000e+01,-1.700000000000000000e+01,-2.000000000000000000e+00,2.000000000000000000e+00,1.100000000000000000e+01,3.000000000000000000e+00,3.878173828125000000e-01,1.607055664062500000e-01,-9.053344726562500000e-01,-6.469726562500000000e-02
-7.000000000000000000e+00,-7.000000000000000000e+00,3.100000000000000000e+01,1.700000000000000000e+01,-3.000000000000000000e+00,0.000000000000000000e+00,4.900000000000000000e+01,-4.000000000000000000e+00,3.878173828125000000e-01,1.607055664062500000e-01,-9.053344726562500000e-01,-6.469726562500000000e-02
-1.000000000000000000e+00,3.000000000000000000e+00,-2.000000000000000000e+00,4.000000000000000000e+00,6.000000000000000000e+00,4.000000000000000000e+00,-4.000000000000000000e+00,1.000000000000000000e+00,3.878173828125000000e-01,1.607055664062500000e-01,-9.053344726562500000e-01,-6.469726562500000000e-02
9.000000000000000000e+00,-1.000000000000000000e+00,1.300000000000000000e+01,9.000000000000000000e+00,2.000000000000000000e+00,2.000000000000000000e+00,1.000000000000000000e+00,-1.000000000000000000e+00,3.881835937500000000e-01,1.611328125000000000e-01,-9.050903320312500000e-01,-6.445312500000000000e-02
-3.000000000000000000e+00,0.000000000000000000e+00,-1.900000000000000000e+01,-1.900000000000000000e+01,-2.000000000000000000e+00,1.000000000000000000e+00,7.000000000000000000e+00,-1.000000000000000000e+00,3.881835937500000000e-01,1.611328125000000000e-01,-9.050903320312500000e-01,-6.445312500000000000e-02
-2.000000000000000000e+00,0.000000000000000000e+00,4.900000000000000000e+01,2.900000000000000000e+01,1.000000000000000000e+00,0.000000000000000000e+00,-8.000000000000000000e+00,-1.000000000000000000e+00,3.881835937500000000e-01,1.611328125000000000e-01,-9.050903320312500000e-01,-6.445312500000000000e-02
1.000000000000000000e+00,-7.000000000000000000e+00,-6.600000000000000000e+01,-1.100000000000000000e+01,2.000000000000000000e+00,0.000000000000000000e+00,-2.000000000000000000e+00,2.000000000000000000e+00,3.881835937500000000e-01,1.611328125000000000e-01,-9.050903320312500000e-01,-6.445312500000000000e-02
-5.000000000000000000e+00,-2.000000000000000000e+00,2.600000000000000000e+01,1.000000000000000000e+00,0.000000000000000000e+00,1.000000000000000000e+00,-2.000000000000000000e+00,-2.000000000000000000e+00,3.885498046875000000e-01,1.610717773437500000e-01,-9.049682617187500000e-01,-6.457519531250000000e-02
-4.000000000000000000e+00,-8.000000000000000000e+00,-4.400000000000000000e+01,-1.300000000000000000e+01,-8.000000000000000000e+00,-7.000000000000000000e+00,-6.000000000000000000e+00,-8.000000000000000000e+00,3.885498046875000000e-01,1.610717773437500000e-01,-9.049682617187500000e-01,-6.457519531250000000e-02
0.000000000000000000e+00,-4.000000000000000000e+00,-2.900000000000000000e+01,-1.600000000000000000e+01,-2.000000000000000000e+00,0.000000000000000000e+00,-7.000000000000000000e+00,2.000000000000000000e+00,3.885498046875000000e-01,1.610717773437500000e-01,-9.049682617187500000e-01,-6.457519531250000000e-02
-4.000000000000000000e+00,7.000000000000000000e+00,9.200000000000000000e+01,3.100000000000000000e+01,-1.000000000000000000e+00,-7.000000000000000000e+00,-1.100000000000000000e+01,-7.000000000000000000e+00,3.885498046875000000e-01,1.610717773437500000e-01,-9.049682617187500000e-01,-6.457519531250000000e-02
2.000000000000000000e+00,-3.000000000000000000e+00,-5.400000000000000000e+01,-1.000000000000000000e+01,-3.000000000000000000e+00,3.000000000000000000e+00,1.000000000000000000e+00,1.000000000000000000e+00,3.888549804687500000e-01,1.610717773437500000e-01,-9.048461914062500000e-01,-6.457519531250000000e-02
-7.000000000000000000e+00,-1.300000000000000000e+01,-2.700000000000000000e+01,-3.600000000000000000e+01,-8.000000000000000000e+00,-2.000000000000000000e+00,-1.000000000000000000e+01,-5.000000000000000000e+00,3.888549804687500000e-01,1.610717773437500000e-01,-9.048461914062500000e-01,-6.457519531250000000e-02
-8.000000000000000000e+00,-6.000000000000000000e+00,2.200000000000000000e+01,2.000000000000000000e+00,-9.000000000000000000e+00,-9.000000000000000000e+00,-7.000000000000000000e+00,-3.000000000000000000e+00,3.888549804687500000e-01,1.610717773437500000e-01,-9.048461914062500000e-01,-6.457519531250000000e-02
6.000000000000000000e+00,5.000000000000000000e+00,-5.900000000000000000e+01,6.000000000000000000e+00,6.000000000000000000e+00,5.000000000000000000e+00,2.100000000000000000e+01,3.000000000000000000e+00,3.888549804687500000e-01,1.610717773437500000e-01,-9.048461914062500000e-01,-6.457519531250000000e-02
-6.000000000000000000e+00,-9.000000000000000000e+00,1.300000000000000000e+01,-1.900000000000000000e+01,-5.000000000000000000e+00,-1.000000000000000000e+01,-1.300000000000000000e+01,-6.000000000000000000e+00,3.890991210937500000e-01,1.615600585937500000e-01,-9.046630859375000000e-01,-6.427001953125000000e-02
1.000000000000000000e+00,1.000000000000000000e+01,3.700000000000000000e+01,2.200000000000000000e+01,2.000000000000000000e+00,0.000000000000000000e+00,2.000000000000000000e+01,3.000000000000000000e+00,3.890991210937500000e-01,1.615600585937500000e-01,-9.046630859375000000e-01,-6.427001953125000000e-02
0.000000000000000000e+00,-6.000000000000000000e+00,2.100000000000000000e+01,8.000000000000000000e+00,-1.000000000000000000e+00,-8.000000000000000000e+00,-2.200000000000000000e+01,-2.000000000000000000e+00,3.890991210937500000e-01,1.615600585937500000e-01,-9.046630859375000000e-01,-6.427001953125000000e-02
-2.000000000000000000e+00,1.100000000000000000e+01,1.500000000000000000e+01,-1.100000000000000000e+01,0.000000000000000000e+00,0.000000000000000000e+00,-8.000000000000000000e+00,3.000000000000000000e+00,3.890991210937500000e-01,1.615600585937500000e-01,-9.046630859375000000e-01,-6.427001953125000000e-02
6.000000000000000000e+00,0.000000000000000000e+00,-4.700000000000000000e+01,-8.000000000000000000e+00,1.000000000000000000e+00,1.000000000000000000e+00,3.800000000000000000e+01,1.000000000000000000e+00,3.891601562500000000e-01,1.619873046875000000e-01,-9.045410156250000000e-01,-6.396484375000000000e-02
-1.100000000000000000e+01,-1.700000000000000000e+01,4.500000000000000000e+01,2.800000000000000000e+01,-1.000000000000000000e+00,-8.000000000000000000e+00,-2.200000000000000000e+01,-5.000000000000000000e+00,3.891601562500000000e-01,1.619873046875000000e-01,-9.045410156250000000e-01,-6.396484375000000000e-02
-3.000000000000000000e+00,-5.000000000000000000e+00,-7.100000000000000000e+01,-1.900000000000000000e+01,-2.000000000000000000e+00,-4.000000000000000000e+00,-5.000000000000000000e+00,-3.000000000000000000e+00,3.891601562500000000e-01,1.619873046875000000e-01,-9.045410156250000000e-01,-6.396484375000000000e-02
2.000000000000000000e+00,8.000000000000000000e+00,3.900000000000000000e+01,9.000000000000000000e+00,-4.000000000000000000e+00,3.000000000000000000e+00,1.400000000000000000e+01,0.000000000000000000e+00,3.891601562500000000e-01,1.619873046875000000e-01,-9.045410156250000000e-01,-6.396484375000000000e-02
4.000000000000000000e+00,1.800000000000000000e+01,2.000000000000000000e+01,2.000000000000000000e+00,1.000000000000000000e+00,4.000000000000000000e+00,3.000000000000000000e+00,2.000000000000000000e+00,3.895263671875000000e-01,1.616210937500000000e-01,-9.044799804687500000e-01,-6.378173828125000000e-02
2.000000000000000000e+00,-2.000000000000000000e+00,-1.500000000000000000e+01,8.000000000000000000e+00,2.000000000000000000e+00,1.000000000000000000e+00,-6.000000000000000000e+00,-2.000000000000000000e+00,3.895263671875000000e-01,1.616210937500000000e-01,-9.044799804687500000e-01,-6.378173828125000000e-02
-5.000000000000000000e+00,-2.500000000000000000e+01,-3.100000000000000000e+01,-1.100000000000000000e+01,-3.000000000000000000e+00,-1.000000000000000000e+00,-3.000000000000000000e+00,-4.000000000000000000e+00,3.895263671875000000e-01,1.616210937500000000e-01,-9.044799804687500000e-01,-6.378173828125000000e-02
1.000000000000000000e+00,0.000000000000000000e+00,-2.600000000000000000e+01,-2.400000000000000000e+01,2.000000000000000000e+00,-4.000000000000000000e+00,-2.100000000000000000e+01,-2.000000000000000000e+00,3.895263671875000000e-01,1.616210937500000000e-01,-9.044799804687500000e-01,-6.378173828125000000e-02
-3.000000000000000000e+00,1.000000000000000000e+00,1.300000000000000000e+01,6.000000000000000000e+00,4.000000000000000000e+00,-1.000000000000000000e+00,-1.000000000000000000e+01,0.000000000000000000e+00,3.900146484375000000e-01,1.610717773437500000e-01,-9.044189453125000000e-01,-6.317138671875000000e-02
1.700000000000000000e+01,2.700000000000000000e+01,-7.000000000000000000e+00,1.000000000000000000e+00,0.000000000000000000e+00,0.000000000000000000e+00,-4.000000000000000000e+00,2.000000000000000000e+00,3.900146484375000000e-01,1.610717773437500000e-01,-9.044189453125000000e-01,-6.317138671875000000e-02
1.100000000000000000e+01,-6.000000000000000000e+00,1.500000000000000000e+01,1.600000000000000000e+01,-2.000000000000000000e+00,-2.000000000000000000e+00,-1.000000000000000000e+01,2.000000000000000000e+00,3.900146484375000000e-01,1.610717773437500000e-01,-9.044189453125000000e-01,-6.317138671875000000e-02
-2.000000000000000000e+01,-1.400000000000000000e+01,3.100000000000000000e+01,1.400000000000000000e+01,2.000000000000000000e+00,8.000000000000000000e+00,6.000000000000000000e+00,-2.000000000000000000e+00,3.900146484375000000e-01,1.610717773437500000e-01,-9.044189453125000000e-01,-6.317138671875000000e-02
-6.000000000000000000e+00,-1.300000000000000000e+01,-6.400000000000000000e+01,-3.700000000000000000e+01,-8.000000000000000000e+00,-4.000000000000000000e+00,-1.000000000000000000e+01,-2.000000000000000000e+00,3.903808593750000000e-01,1.609497070312500000e-01,-9.043579101562500000e-01,-6.225585937500000000e-02
2.000000000000000000e+00,1.100000000000000000e+01,1.800000000000000000e+01,1.300000000000000000e+01,1.000000000000000000e+01,1.000000000000000000e+00,1.000000000000000000e+00,4.000000000000000000e+00,3.903808593750000000e-01,1.609497070312500000e-01,-9.043579101562500000e-01,-6.225585937500000000e-02
-7.000000000000000000e+00,-1.600000000000000000e+01,-6.600000000000000000e+01,-5.200000000000000000e+01,-1.600000000000000000e+01,-5.000000000000000000e+00,0.000000000000000000e+00,-8.000000000000000000e+00,3.903808593750000000e-01,1.609497070312500000e-01,-9.043579101562500000e-01,-6.225585937500000000e-02
2.500000000000000000e+01,7.000000000000000000e+00,3.600000000000000000e+01,1.600000000000000000e+01,3.000000000000000000e+00,4.000000000000000000e+00,1.000000000000000000e+01,2.000000000000000000e+00,3.903808593750000000e-01,1.609497070312500000e-01,-9.043579101562500000e-01,-6.225585937500000000e-02
-3.000000000000000000e+00,0.000000000000000000e+00,6.200000000000000000e+01,5.000000000000000000e+00,-1.000000000000000000e+00,-6.000000000000000000e+00,-1.300000000000000000e+01,2.000000000000000000e+00,3.909912109375000000e-01,1.615600585937500000e-01,-9.040527343750000000e-01,-6.152343750000000000e-02
3.000000000000000000e+00,-1.000000000000000000e+00,9.000000000000000000e+00,3.000000000000000000e+00,0.000000000000000000e+00,4.000000000000000000e+00,1.000000000000000000e+00,0.000000000000000000e+00,3.909912109375000000e-01,1.615600585937500000e-01,-9.040527343750000000e-01,-6.152343750000000000e-02
-6.000000000000000000e+00,1.600000000000000000e+01,3.600000000000000000e+01,2.700000000000000000e+01,5.000000000000000000e+00,0.000000000000000000e+00,-1.200000000000000000e+01,2.000000000000000000e+00,3.909912109375000000e-01,1.615600585937500000e-01,-9.040527343750000000e-01,-6.152343750000000000e-02
-5.000000000000000000e+00,-6.000000000000000000e+00,-7.000000000000000000e+00,-1.400000000000000000e+01,-8.000000000000000000e+00,-1.300000000000000000e+01,-1.600000000000000000e+01,-2.000000000000000000e+00,3.909912109375000000e-01,1.615600585937500000e-01,-9.040527343750000000e-01,-6.152343750000000000e-02
-4.000000000000000000e+00,-8.000000000000000000e+00,-1.500000000000000000e+01,-6.000000000000000000e+00,2.000000000000000000e+00,2.000000000000000000e+00,-2.000000000000000000e+01,-3.000000000000000000e+00,3.916625976562500000e-01,1.613159179687500000e-01,-9.038085937500000000e-01,-6.115722656250000000e-02
-2.000000000000000000e+00,-5.000000000000000000e+00,-4.000000000000000000e+00,-8.000000000000000000e+00,-1.000000000000000000e+01,-6.000000000000000000e+00,1.700000000000000000e+01,2.000000000000000000e+00,3.916625976562500000e-01,1.613159179687500000e-01,-9.038085937500000000e-01,-6.115722656250000000e-02
4.000000000000000000e+00,1.000000000000000000e+01,4.200000000000000000e+01,1.900000000000000000e+01,8.000000000000000000e+00,0.000000000000000000e+00,-4.200000000000000000e+01,-4.000000000000000000e+00,3.916625976562500000e-01,1.613159179687500000e-01,-9.038085937500000000e-01,-6.115722656250000000e-02
-5.000000000000000000e+00,2.000000000000000000e+00,1.000000000000000000e+00,6.000000000000000000e+00,-2.000000000000000000e+00,1.000000000000000000e+00,3.500000000000000000e+01,-1.000000000000000000e+00,3.916625976562500000e-01,1.613159179687500000e-01,-9.038085937500000000e-01,-6.115722656250000000e-02
0.000000000000000000e+00,-1.400000000000000000e+01,-4.800000000000000000e+01,-1.100000000000000000e+01,-4.000000000000000000e+00,0.000000000000000000e+00,0.000000000000000000e+00,-2.000000000000000000e+00,3.919677734375000000e-01,1.609497070312500000e-01,-9.038085937500000000e-01,-6.042480468750000000e-02
-3.000000000000000000e+00,-2.000000000000000000e+00,7.600000000000000000e+01,2.900000000000000000e+01,-1.000000000000000000e+00,-5.000000000000000000e+00,-2.000000000000000000e+00,0.000000000000000000e+00,3.919677734375000000e-01,1.609497070312500000e-01,-9.038085937500000000e-01,-6.042480468750000000e-02
6.000000000000000000e+00,9.000000000000000000e+00,-3.700000000000000000e+01,-2.900000000000000000e+01,-1.000000000000000000e+00,0.000000000000000000e+00,1.000000000000000000e+01,7.000000000000000000e+00,3.919677734375000000e-01,1.609497070312500000e-01,-9.038085937500000000e-01,-6.042480468750000000e-02
-9.000000000000000000e+00,-1.800000000000000000e+01,-2.800000000000000000e+01,-3.300000000000000000e+01,-1.500000000000000000e+01,-1.000000000000000000e+01,-2.500000000000000000e+01,-8.000000000000000000e+00,3.919677734375000000e-01,1.609497070312500000e-01,-9.038085937500000000e-01,-6.042480468750000000e-02
5.000000000000000000e+00,1.900000000000000000e+01,8.700000000000000000e+01,7.100000000000000000e+01,1.200000000000000000e+01,1.100000000000000000e+01,4.000000000000000000e+00,-2.000000000000000000e+00,3.919677734375000000e-01,1.617431640625000000e-01,-9.037475585937500000e-01,-5.932617187500000000e-02
-1.100000000000000000e+01,-1.700000000000000000e+01,5.000000000000000000e+00,-2.400000000000000000e+01,-7.000000000000000000e+00,1.000000000000000000e+00,-1.000000000000000000e+00,-8.000000000000000000e+00,3.919677734375000000e-01,1.617431640625000000e-01,-9.037475585937500000e-01,-5.932617187500000000e-02
-3.000000000000000000e+00,0.000000000000000000e+00,1.800000000000000000e+01,2.500000000000000000e+01,-3.000000000000000000e+00,-2.000000000000000000e+00,1.300000000000000000e+01,1.000000000000000000e+00,3.919677734375000000e-01,1.617431640625000000e-01,-9.037475585937500000e-01,-5.932617187500000000e-02
9.000000000000000000e+00,8.000000000000000000e+00,-8.000000000000000000e+00,-1.800000000000000000e+01,5.000000000000000000e+00,4.000000000000000000e+00,-1.000000000000000000e+00,5.000000000000000000e+00,3.919677734375000000e-01,1.617431640625000000e-01,-9.037475585937500000e-01,-5.932617187500000000e-02
0.000000000000000000e+00,4.000000000000000000e+00,5.300000000000000000e+01,5.700000000000000000e+01,5.000000000000000000e+00,-5.000000000000000000e+00,0.000000000000000000e+00,1.000000000000000000e+00,3.919067382812500000e-01,1.630859375000000000e-01,-9.035644531250000000e-01,-5.847167968750000000e-02
-6.000000000000000000e+00,-4.000000000000000000e+00,-6.000000000000000000e+01,-4.400000000000000000e+01,-3.000000000000000000e+00,-3.000000000000000000e+00,-1.300000000000000000e+01,-3.000000000000000000e+00,3.919067382812500000e-01,1.630859375000000000e-01,-9.035644531250000000e-01,-5.847167968750000000e-02
2.000000000000000000e+00,6.000000000000000000e+00,2.400000000000000000e+01,-4.000000000000000000e+00,-4.000000000000000000e+00,0.000000000000000000e+00,-5.000000000000000000e+00,-3.000000000000000000e+00,3.919067382812500000e-01,1.630859375000000000e-01,-9.035644531250000000e-01,-5.847167968750000000e-02
1.300000000000000000e+01,1.000000000000000000e+00,-2.000000000000000000e+01,-2.200000000000000000e+01,-5.000000000000000000e+00,0.000000000000000000e+00,-5.000000000000000000e+00,5.000000000000000000e+00,3.919067382812500000e-01,1.630859375000000000e-01,-9.035644531250000000e-01,-5.847167968750000000e-02
-1.800000000000000000e+01,-6.000000000000000000e+00,1.100000000000000000e+01,8.000000000000000000e+00,-3.000000000000000000e+00,3.000000000000000000e+00,1.100000000000000000e+01,-7.000000000000000000e+00,3.921508789062500000e-01,1.632690429687500000e-01,-9.034423828125000000e-01,-5.810546875000000000e-02
1.300000000000000000e+01,3.000000000000000000e+00,3.000000000000000000e+01,2.000000000000000000e+01,0.000000000000000000e+00,-1.200000000000000000e+01,-1.900000000000000000e+01,8.000000000000000000e+00,3.921508789062500000e-01,1.632690429687500000e-01,-9.034423828125000000e-01,-5.810546875000000000e-02
-7.000000000000000000e+00,-6.000000000000000000e+00,-4.000000000000000000e+01,-6.000000000000000000e+00,-1.000000000000000000e+00,-1.000000000000000000e+00,1.700000000000000000e+01,-1.900000000000000000e+01,3.921508789062500000e-01,1.632690429687500000e-01,-9.034423828125000000e-01,-5.810546875000000000e-02
-1.800000000000000000e+01,-1.000000000000000000e+01,2.000000000000000000e+00,1.700000000000000000e+01,5.000000000000000000e+00,1.000000000000000000e+00,-7.000000000000000000e+00,-5.000000000000000000e+00,3.921508789062500000e-01,1.632690429687500000e-01,-9.034423828125000000e-01,-5.810546875000000000e-02
1.100000000000000000e+01,5.000000000000000000e+00,-5.300000000000000000e+01,-3.900000000000000000e+01,-3.000000000000000000e+00,-5.000000000000000000e+00,-1.100000000000000000e+01,0.000000000000000000e+00,3.923950195312500000e-01,1.630249023437500000e-01,-9.034423828125000000e-01,-5.749511718750000000e-02
1.000000000000000000e+00,-2.000000000000000000e+00,2.200000000000000000e+01,1.700000000000000000e+01,2.000000000000000000e+00,3.000000000000000000e+00,3.500000000000000000e+01,-4.000000000000000000e+00,3.923950195312500000e-01,1.630249023437500000e-01,-9.034423828125000000e-01,-5.749511718750000000e-02
-4.000000000000000000e+00,-3.000000000000000000e+00,0.000000000000000000e+00,-9.000000000000000000e+00,-7.000000000000000000e+00,-4.000000000000000000e+00,1.900000000000000000e+01,6.000000000000000000e+00,3.923950195312500000e-01,1.630249023437500000e-01,-9.034423828125000000e-01,-5.749511718750000000e-02
1.000000000000000000e+01,-2.000000000000000000e+00,-2.600000000000000000e+01,-8.000000000000000000e+00,3.000000000000000000e+00,3.000000000000000000e+00,1.000000000000000000e+00,5.000000000000000000e+00,3.923950195312500000e-01,1.630249023437500000e-01,-9.034423828125000000e-01,-5.749511718750000000e-02
-2.000000000000000000e+00,-5.000000000000000000e+00,-5.000000000000000000e+01,-3.400000000000000000e+01,-8.000000000000000000e+00,-4.000000000000000000e+00,1.000000000000000000e+00,2.000000000000000000e+00,3.929443359375000000e-01,1.632080078125000000e-01,-9.032592773437500000e-01,-5.615234375000000000e-02
-6.000000000000000000e+00,5.000000000000000000e+00,-1.000000000000000000e+00,2.800000000000000000e+01,-3.000000000000000000e+00,-6.000000000000000000e+00,-1.800000000000000000e+01,-9.000000000000000000e+00,3.929443359375000000e-01,1.632080078125000000e-01,-9.032592773437500000e-01,-5.615234375000000000e-02
-3.000000000000000000e+00,-6.000000000000000000e+00,7.000000000000000000e+00,1.100000000000000000e+01,7.000000000000000000e+00,-3.000000000000000000e+00,-1.500000000000000000e+01,-1.000000000000000000e+00,3.929443359375000000e-01,1.632080078125000000e-01,-9.032592773437500000e-01,-5.615234375000000000e-02
-2.000000000000000000e+00,2.000000000000000000e+00,2.900000000000000000e+01,1.600000000000000000e+01,-1.000000000000000000e+00,-1.000000000000000000e+00,6.000000000000000000e+00,-6.000000000000000000e+00,3.929443359375000000e-01,1.632080078125000000e-01,-9.032592773437500000e-01,-5.615234375000000000e-02
-4.000000000000000000e+00,-7.000000000000000000e+00,5.000000000000000000e+00,-2.400000000000000000e+01,-1.300000000000000000e+01,-1.300000000000000000e+01,-1.200000000000000000e+01,-3.000000000000000000e+00,3.934326171875000000e-01,1.635742187500000000e-01,-9.030761718750000000e-01,-5.462646484375000000e-02
-2.000000000000000000e+00,5.000000000000000000e+00,-5.000000000000000000e+01,2.200000000000000000e+01,7.000000000000000000e+00,4.000000000000000000e+00,6.000000000000000000e+00,1.100000000000000000e+01,3.934326171875000000e-01,1.635742187500000000e-01,-9.030761718750000000e-01,-5.462646484375000000e-02
1.000000000000000000e+00,6.000000000000000000e+00,1.300000000000000000e+01,-2.800000000000000000e+01,0.000000000000000000e+00,-4.000000000000000000e+00,-6.000000000000000000e+00,-1.100000000000000000e+01,3.934326171875000000e-01,1.635742187500000000e-01,-9.030761718750000000e-01,-5.462646484375000000e-02
-6.000000000000000000e+00,-5.000000000000000000e+00,-6.200000000000000000e+01,-3.100000000000000000e+01,-3.000000000000000000e+00,0.000000000000000000e+00,-2.000000000000000000e+00,0.000000000000000000e+00,3.934326171875000000e-01,1.635742187500000000e-01,-9.030761718750000000e-01,-5.462646484375000000e-02
1.000000000000000000e+00,-4.000000000000000000e+00,2.000000000000000000e+00,3.000000000000000000e+00,1.000000000000000000e+00,4.000000000000000000e+00,1.400000000000000000e+01,-5.000000000000000000e+00,3.939208984375000000e-01,1.635742187500000000e-01,-9.028930664062500000e-01,-5.389404296875000000e-02
-2.000000000000000000e+00,-4.000000000000000000e+00,2.000000000000000000e+00,-8.000000000000000000e+00,-1.000000000000000000e+00,-6.000000000000000000e+00,-2.600000000000000000e+01,3.000000000000000000e+00,3.939208984375000000e-01,1.635742187500000000e-01,-9.028930664062500000e-01,-5.389404296875000000e-02
1.000000000000000000e+00,-1.000000000000000000e+00,-5.000000000000000000e+00,2.600000000000000000e+01,6.000000000000000000e+00,0.000000000000000000e+00,4.000000000000000000e+00,8.000000000000000000e+00,3.939208984375000000e-01,1.635742187500000000e-01,-9.028930664062500000e-01,-5.389404296875000000e-02
3.000000000000000000e+00,1.000000000000000000e+01,-1.800000000000000000e+01,-4.800000000000000000e+01,-4.000000000000000000e+00,1.000000000000000000e+00,5.000000000000000000e+00,-1.000000000000000000e+00,3.939208984375000000e-01,1.635742187500000000e-01,-9.028930664062500000e-01,-5.389404296875000000e-02
-1.000000000000000000e+00,-4.000000000000000000e+00,3.300000000000000000e+01,1.700000000000000000e+01,-2.000000000000000000e+00,-9.000000000000000000e+00,-1.600000000000000000e+01,4.000000000000000000e+00,3.943481445312500000e-01,1.629028320312500000e-01,-9.028320312500000000e-01,-5.383300781250000000e-02
-3.000000000000000000e+00,-3.000000000000000000e+00,-3.000000000000000000e+00,-2.300000000000000000e+01,-3.000000000000000000e+00,6.000000000000000000e+00,3.200000000000000000e+01,-1.100000000000000000e+01,3.943481445312500000e-01,1.629028320312500000e-01,-9.028320312500000000e-01,-5.383300781250000000e-02
-8.000000000000000000e+00,-5.000000000000000000e+00,-4.200000000000000000e+01,-5.000000000000000000e+00,4.000000000000000000e+00,6.000000000000000000e+00,-5.000000000000000000e+00,4.000000000000000000e+00,3.943481445312500000e-01,1.629028320312500000e-01,-9.028320312500000000e-01,-5.383300781250000000e-02
2.000000000000000000e+01,2.000000000000000000e+00,-2.400000000000000000e+01,5.000000000000000000e+00,-1.000000000000000000e+00,-2.000000000000000000e+00,-4.000000000000000000e+00,1.000000000000000000e+00,3.943481445312500000e-01,1.629028320312500000e-01,-9.028320312500000000e-01,-5.383300781250000000e-02
-3.200000000000000000e+01,5.000000000000000000e+00,-1.100000000000000000e+01,8.000000000000000000e+00,6.000000000000000000e+00,7.000000000000000000e+00,5.000000000000000000e+00,0.000000000000000000e+00,3.948364257812500000e-01,1.623535156250000000e-01,-9.027099609375000000e-01,-5.352783203125000000e-02
-3.000000000000000000e+00,-4.000000000000000000e+00,3.900000000000000000e+01,-1.500000000000000000e+01,3.000000000000000000e+00,2.000000000000000000e+00,-7.000000000000000000e+00,6.000000000000000000e+00,3.948364257812500000e-01,1.623535156250000000e-01,-9.027099609375000000e-01,-5.352783203125000000e-02
-1.000000000000000000e+00,-3.000000000000000000e+00,-2.000000000000000000e+00,1.400000000000000000e+01,-3.000000000000000000e+00,-4.000000000000000000e+00,8.000000000000000000e+00,-1.000000000000000000e+00,3.948364257812500000e-01,1.623535156250000000e-01,-9.027099609375000000e-01,-5.352783203125000000e-02
-6.000000000000000000e+00,6.000000000000000000e+00,1.190000000000000000e+02,5.600000000000000000e+01,-1.000000000000000000e+00,-5.000000000000000000e+00,2.000000000000000000e+00,-4.000000000000000000e+00,3.948364257812500000e-01,1.623535156250000000e-01,-9.027099609375000000e-01,-5.352783203125000000e-02
1.200000000000000000e+01,-5.000000000000000000e+00,-2.000000000000000000e+00,-9.000000000000000000e+00,-5.000000000000000000e+00,0.000000000000000000e+00,-4.000000000000000000e+00,0.000000000000000000e+00,3.952636718750000000e-01,1.622924804687500000e-01,-9.025878906250000000e-01,-5.279541015625000000e-02
-6.000000000000000000e+00,1.000000000000000000e+00,-3.300000000000000000e+01,-8.000000000000000000e+00,2.000000000000000000e+00,1.000000000000000000e+00,-1.000000000000000000e+00,-3.000000000000000000e+00,3.952636718750000000e-01,1.622924804687500000e-01,-9.025878906250000000e-01,-5.279541015625000000e-02
2.000000000000000000e+00,3.000000000000000000e+00,5.800000000000000000e+01,1.200000000000000000e+01,6.000000000000000000e+00,8.000000000000000000e+00,3.000000000000000000e+00,2.000000000000000000e+00,3.952636718750000000e-01,1.622924804687500000e-01,-9.025878906250000000e-01,-5.279541015625000000e-02
-7.000000000000000000e+00,-9.000000000000000000e+00,1.800000000000000000e+01,-1.900000000000000000e+01,-9.000000000000000000e+00,-8.000000000000000000e+00,-7.000000000000000000e+00,0.000000000000000000e+00,3.952636718750000000e-01,1.622924804687500000e-01,-9.025878906250000000e-01,-5.279541015625000000e-02
3.000000000000000000e+00,-2.000000000000000000e+00,-2.200000000000000000e+01,-1.800000000000000000e+01,-5.000000000000000000e+00,-8.000000000000000000e+00,-5.000000000000000000e+01,-2.000000000000000000e+00,3.953857421875000000e-01,1.631469726562500000e-01,-9.024047851562500000e-01,-5.218505859375000000e-02
6.000000000000000000e+00,9.000000000000000000e+00,1.600000000000000000e+01,1.000000000000000000e+01,-3.000000000000000000e+00,2.000000000000000000e+00,1.400000000000000000e+01,-2.000000000000000000e+00,3.953857421875000000e-01,1.631469726562500000e-01,-9.024047851562500000e-01,-5.218505859375000000e-02
0.000000000000000000e+00,-1.100000000000000000e+01,-7.000000000000000000e+00,-2.100000000000000000e+01,-1.100000000000000000e+01,-1.100000000000000000e+01,3.000000000000000000e+00,-3.000000000000000000e+00,3.953857421875000000e-01,1.631469726562500000e-01,-9.024047851562500000e-01,-5.218505859375000000e-02
-4.000000000000000000e+00,-3.000000000000000000e+00,-5.200000000000000000e+01,-3.000000000000000000e+00,2.000000000000000000e+00,2.000000000000000000e+00,1.000000000000000000e+00,-1.000000000000000000e+00,3.953857421875000000e-01,1.631469726562500000e-01,-9.024047851562500000e-01,-5.218505859375000000e-02
9.000000000000000000e+00,5.000000000000000000e+00,4.300000000000000000e+01,4.300000000000000000e+01,1.400000000000000000e+01,5.000000000000000000e+00,1.400000000000000000e+01,5.000000000000000000e+00,3.952636718750000000e-01,1.640014648437500000e-01,-9.022827148437500000e-01,-5.255126953125000000e-02
1.000000000000000000e+00,-8.000000000000000000e+00,1.100000000000000000e+01,-1.300000000000000000e+01,-8.000000000000000000e+00,-1.000000000000000000e+00,-6.000000000000000000e+00,-2.000000000000000000e+00,3.952636718750000000e-01,1.640014648437500000e-01,-9.022827148437500000e-01,-5.255126953125000000e-02
-1.000000000000000000e+00,6.000000000000000000e+00,-3.000000000000000000e+00,-4.000000000000000000e+00,-4.000000000000000000e+00,-6.000000000000000000e+00,-1.200000000000000000e+01,1.000000000000000000e+00,3.952636718750000000e-01,1.640014648437500000e-01,-9.022827148437500000e-01,-5.255126953125000000e-02
-6.000000000000000000e+00,-5.000000000000000000e+00,4.300000000000000000e+01,3.000000000000000000e+01,-1.000000000000000000e+00,1.000000000000000000e+00,-1.000000000000000000e+01,-3.000000000000000000e+00,3.952636718750000000e-01,1.640014648437500000e-01,-9.022827148437500000e-01,-5.255126953125000000e-02
0.000000000000000000e+00,-7.000000000000000000e+00,-2.300000000000000000e+01,-2.100000000000000000e+01,-4.000000000000000000e+00,-1.000000000000000000e+00,1.600000000000000000e+01,-3.000000000000000000e+00,3.951416015625000000e-01,1.641845703125000000e-01,-9.022827148437500000e-01,-5.310058593750000000e-02
3.000000000000000000e+00,1.100000000000000000e+01,0.000000000000000000e+00,2.600000000000000000e+01,7.000000000000000000e+00,4.000000000000000000e+00,5.000000000000000000e+00,5.000000000000000000e+00,3.951416015625000000e-01,1.641845703125000000e-01,-9.022827148437500000e-01,-5.310058593750000000e-02
-1.300000000000000000e+01,-1.100000000000000000e+01,2.800000000000000000e+01,2.100000000000000000e+01,-5.000000000000000000e+00,-4.000000000000000000e+00,-4.000000000000000000e+00,-7.000000000000000000e+00,3.951416015625000000e-01,1.641845703125000000e-01,-9.022827148437500000e-01,-5.310058593750000000e-02
-1.000000000000000000e+00,-4.000000000000000000e+00,2.900000000000000000e+01,2.000000000000000000e+01,4.000000000000000000e+00,3.000000000000000000e+00,9.000000000000000000e+00,1.600000000000000000e+01,3.951416015625000000e-01,1.641845703125000000e-01,-9.022827148437500000e-01,-5.310058593750000000e-02
8.000000000000000000e+00,3.000000000000000000e+00,2.000000000000000000e+01,1.200000000000000000e+01,-1.000000000000000000e+00,-1.000000000000000000e+00,8.000000000000000000e+00,-5.000000000000000000e+00,3.951416015625000000e-01,1.642456054687500000e-01,-9.022827148437500000e-01,-5.310058593750000000e-02
-4.000000000000000000e+00,4.000000000000000000e+00,1.300000000000000000e+01,-2.700000000000000000e+01,0.000000000000000000e+00,4.000000000000000000e+00,-1.000000000000000000e+00,-4.000000000000000000e+00,3.951416015625000000e-01,1.642456054687500000e-01,-9.022827148437500000e-01,-5.310058593750000000e-02
4.000000000000000000e+00,7.000000000000000000e+00,4.600000000000000000e+01,5.400000000000000000e+01,1.400000000000000000e+01,1.000000000000000000e+01,1.100000000000000000e+01,3.000000000000000000e+00,3.951416015625000000e-01,1.642456054687500000e-01,-9.022827148437500000e-01,-5.310058593750000000e-02
0.000000000000000000e+00,0.000000000000000000e+00,-6.000000000000000000e+00,-1.800000000000000000e+01,-8.000000000000000000e+00,-7.000000000000000000e+00,-2.300000000000000000e+01,-7.000000000000000000e+00,3.951416015625000000e-01,1.642456054687500000e-01,-9.022827148437500000e-01,-5.310058593750000000e-02
2.000000000000000000e+00,-3.000000000000000000e+00,-1.800000000000000000e+01,-1.700000000000000000e+01,-2.000000000000000000e+00,4.000000000000000000e+00,2.400000000000000000e+01,0.000000000000000000e+00,3.950195312500000000e-01,1.647949218750000000e-01,-9.022827148437500000e-01,-5.242919921875000000e-02
0.000000000000000000e+00,-1.200000000000000000e+01,-3.900000000000000000e+01,2.400000000000000000e+01,5.000000000000000000e+00,-4.000000000000000000e+00,3.000000000000000000e+00,2.000000000000000000e+00,3.950195312500000000e-01,1.647949218750000000e-01,-9.022827148437500000e-01,-5.242919921875000000e-02
0.000000000000000000e+00,4.000000000000000000e+00,-2.500000000000000000e+01,2.000000000000000000e+00,-4.000000000000000000e+00,-2.000000000000000000e+00,-3.000000000000000000e+00,-1.000000000000000000e+00,3.950195312500000000e-01,1.647949218750000000e-01,-9.022827148437500000e-01,-5.242919921875000000e-02
-9.000000000000000000e+00,-1.000000000000000000e+00,-2.000000000000000000e+00,-3.000000000000000000e+00,-1.000000000000000000e+00,-2.000000000000000000e+00,2.000000000000000000e+00,-2.000000000000000000e+00,3.950195312500000000e-01,1.647949218750000000e-01,-9.022827148437500000e-01,-5.242919921875000000e-02
-3.000000000000000000e+00,-9.000000000000000000e+00,-3.100000000000000000e+01,-1.600000000000000000e+01,-2.000000000000000000e+00,1.000000000000000000e+00,1.000000000000000000e+00,1.000000000000000000e+00,3.950195312500000000e-01,1.656494140625000000e-01,-9.021606445312500000e-01,-5.194091796875000000e-02
-1.000000000000000000e+00,1.000000000000000000e+00,2.000000000000000000e+00,-5.000000000000000000e+00,-4.000000000000000000e+00,-6.000000000000000000e+00,-1.300000000000000000e+01,-6.000000000000000000e+00,3.950195312500000000e-01,1.656494140625000000e-01,-9.021606445312500000e-01,-5.194091796875000000e-02
-2.000000000000000000e+00,-6.000000000000000000e+00,1.700000000000000000e+01,-3.000000000000000000e+00,-2.000000000000000000e+00,-2.000000000000000000e+00,-5.000000000000000000e+00,-4.000000000000000000e+00,3.950195312500000000e-01,1.656494140625000000e-01,-9.021606445312500000e-01,-5.194091796875000000e-02
1.000000000000000000e+00,-6.000000000000000000e+00,-1.900000000000000000e+01,-2.500000000000000000e+01,-5.000000000000000000e+00,-1.000000000000000000e+00,-3.000000000000000000e+00,-8.000000000000000000e+00,3.950195312500000000e-01,1.656494140625000000e-01,-9.021606445312500000e-01,-5.194091796875000000e-02
0.000000000000000000e+00,5.000000000000000000e+00,-2.700000000000000000e+01,7.000000000000000000e+00,2.000000000000000000e+00,-6.000000000000000000e+00,-5.000000000000000000e+00,-1.000000000000000000e+00,3.953247070312500000e-01,1.649169921875000000e-01,-9.021606445312500000e-01,-5.187988281250000000e-02
-1.000000000000000000e+00,-3.000000000000000000e+00,-1.800000000000000000e+01,-2.000000000000000000e+01,-1.000000000000000000e+00,-1.000000000000000000e+00,-2.000000000000000000e+00,0.000000000000000000e+00,3.953247070312500000e-01,1.649169921875000000e-01,-9.021606445312500000e-01,-5.187988281250000000e-02
1.000000000000000000e+00,-3.000000000000000000e+00,-5.000000000000000000e+00,-1.600000000000000000e+01,-7.000000000000000000e+00,-1.000000000000000000e+00,-1.000000000000000000e+00,1.000000000000000000e+00,3.953247070312500000e-01,1.649169921875000000e-01,-9.021606445312500000e-01,-5.187988281250000000e-02
2.000000000000000000e+00,4.000000000000000000e+00,-5.600000000000000000e+01,1.300000000000000000e+01,1.400000000000000000e+01,2.000000000000000000e+00,-1.100000000000000000e+01,2.000000000000000000e+00,3.953247070312500000e-01,1.649169921875000000e-01,-9.021606445312500000e-01,-5.187988281250000000e-02
-7.000000000000000000e+00,1.000000000000000000e+01,1.020000000000000000e+02,1.400000000000000000e+01,-7.000000000000000000e+00,-2.000000000000000000e+00,1.100000000000000000e+01,-2.000000000000000000e+00,3.955078125000000000e-01,1.641235351562500000e-01,-9.022216796875000000e-01,-5.169677734375000000e-02
1.400000000000000000e+01,-1.700000000000000000e+01,-7.700000000000000000e+01,-2.600000000000000000e+01,-8.000000000000000000e+00,-5.000000000000000000e+00,-1.000000000000000000e+01,-2.000000000000000000e+00,3.955078125000000000e-01,1.641235351562500000e-01,-9.022216796875000000e-01,-5.169677734375000000e-02
-1.900000000000000000e+01,-5.000000000000000000e+00,1.300000000000000000e+01,-2.000000000000000000e+00,1.000000000000000000e+00,0.000000000000000000e+00,4.000000000000000000e+00,-3.000000000000000000e+00,3.955078125000000000e-01,1.641235351562500000e-01,-9.022216796875000000e-01,-5.169677734375000000e-02
0.000000000000000000e+00,-2.000000000000000000e+00,0.000000000000000000e+00,9.000000000000000000e+00,2.000000000000000000e+00,-3.000000000000000000e+00,-1.000000000000000000e+01,-1.000000000000000000e+00,3.955078125000000000e-01,1.641235351562500000e-01,-9.022216796875000000e-01,-5.169677734375000000e-02
-5.000000000000000000e+00,-3.000000000000000000e+00,-9.000000000000000000e+00,1.000000000000000000e+00,-1.000000000000000000e+00,-2.000000000000000000e+00,2.100000000000000000e+01,2.000000000000000000e+00,3.956298828125000000e-01,1.640014648437500000e-01,-9.022216796875000000e-01,-5.090332031250000000e-02
-4.000000000000000000e+00,4.000000000000000000e+00,3.900000000000000000e+01,9.000000000000000000e+00,-2.000000000000000000e+00,-3.000000000000000000e+00,1.000000000000000000e+00,-2.000000000000000000e+00,3.956298828125000000e-01,1.640014648437500000e-01,-9.022216796875000000e-01,-5.090332031250000000e-02
1.100000000000000000e+01,4.000000000000000000e+00,-3.700000000000000000e+01,-2.700000000000000000e+01,-2.000000000000000000e+00,0.000000000000000000e+00,-1.300000000000000000e+01,-3.000000000000000000e+00,3.956298828125000000e-01,1.640014648437500000e-01,-9.022216796875000000e-01,-5.090332031250000000e-02
1.000000000000000000e+00,-5.000000000000000000e+00,-5.000000000000000000e+00,4.000000000000000000e+00,4.000000000000000000e+00,-2.000000000000000000e+00,4.000000000000000000e+00,1.000000000000000000e+00,3.956298828125000000e-01,1.640014648437500000e-01,-9.022216796875000000e-01,-5.090332031250000000e-02
2.000000000000000000e+00,0.000000000000000000e+00,-2.200000000000000000e+01,-3.000000000000000000e+00,6.000000000000000000e+00,3.000000000000000000e+00,-1.100000000000000000e+01,4.000000000000000000e+00,3.955688476562500000e-01,1.643676757812500000e-01,-9.022216796875000000e-01,-5.029296875000000000e-02
0.000000000000000000e+00,-1.000000000000000000e+00,2.800000000000000000e+01,3.000000000000000000e+01,1.000000000000000000e+00,-4.000000000000000000e+00,-7.000000000000000000e+00,-4.000000000000000000e+00,3.955688476562500000e-01,1.643676757812500000e-01,-9.022216796875000000e-01,-5.029296875000000000e-02
1.000000000000000000e+00,-1.000000000000000000e+00,-4.000000000000000000e+00,6.000000000000000000e+00,4.000000000000000000e+00,1.000000000000000000e+00,-1.100000000000000000e+01,0.000000000000000000e+00,3.955688476562500000e-01,1.643676757812500000e-01,-9.022216796875000000e-01,-5.029296875000000000e-02
0.000000000000000000e+00,7.000000000000000000e+00,1.000000000000000000e+00,-1.800000000000000000e+01,-2.000000000000000000e+00,2.000000000000000000e+00,9.000000000000000000e+00,0.000000000000000000e+00,3.955688476562500000e-01,1.643676757812500000e-01,-9.022216796875000000e-01,-5.029296875000000000e-02
7.000000000000000000e+00,1.000000000000000000e+00,-5.000000000000000000e+01,-2.100000000000000000e+01,-2.000000000000000000e+00,4.000000000000000000e+00,4.000000000000000000e+00,2.000000000000000000e+00,3.954467773437500000e-01,1.645507812500000000e-01,-9.022216796875000000e-01,-5.023193359375000000e-02
-3.000000000000000000e+00,-1.000000000000000000e+00,5.200000000000000000e+01,6.000000000000000000e+00,-6.000000000000000000e+00,1.000000000000000000e+00,2.000000000000000000e+00,-4.000000000000000000e+00,3.954467773437500000e-01,1.645507812500000000e-01,-9.022216796875000000e-01,-5.023193359375000000e-02
1.000000000000000000e+00,6.000000000000000000e+00,1.000000000000000000e+00,7.000000000000000000e+00,1.000000000000000000e+00,-1.000000000000000000e+00,6.000000000000000000e+00,3.000000000000000000e+00,3.954467773437500000e-01,1.645507812500000000e-01,-9.022216796875000000e-01,-5.023193359375000000e-02
-3.000000000000000000e+00,-3.000000000000000000e+00,-1.300000000000000000e+01,6.000000000000000000e+00,3.000000000000000000e+00,2.000000000000000000e+00,-1.000000000000000000e+01,-2.000000000000000000e+00,3.954467773437500000e-01,1.645507812500000000e-01,-9.022216796875000000e-01,-5.023193359375000000e-02
-1.000000000000000000e+00,-7.000000000000000000e+00,-8.000000000000000000e+00,-7.000000000000000000e+00,-4.000000000000000000e+00,-3.000000000000000000e+00,-2.000000000000000000e+00,-4.000000000000000000e+00,3.953857421875000000e-01,1.642456054687500000e-01,-9.022827148437500000e-01,-5.059814453125000000e-02
-3.000000000000000000e+00,-1.000000000000000000e+00,0.000000000000000000e+00,-2.000000000000000000e+00,-1.000000000000000000e+00,1.000000000000000000e+00,3.000000000000000000e+00,3.000000000000000000e+00,3.953857421875000000e-01,1.642456054687500000e-01,-9.022827148437500000e-01,-5.059814453125000000e-02
2.000000000000000000e+00,2.000000000000000000e+00,-1.100000000000000000e+01,-4.000000000000000000e+00,-3.000000000000000000e+00,0.000000000000000000e+00,-1.000000000000000000e+00,0.000000000000000000e+00,3.953857421875000000e-01,1.642456054687500000e-01,-9.022827148437500000e-01,-5.059814453125000000e-02
6.000000000000000000e+00,1.200000000000000000e+01,1.400000000000000000e+01,9.000000000000000000e+00,2.000000000000000000e+00,1.000000000000000000e+00,8.000000000000000000e+00,1.000000000000000000e+00,3.953857421875000000e-01,1.642456054687500000e-01,-9.022827148437500000e-01,-5.059814453125000000e-02
-7.000000000000000000e+00,-1.100000000000000000e+01,-4.300000000000000000e+01,-3.600000000000000000e+01,-8.000000000000000000e+00,-7.000000000000000000e+00,-1.700000000000000000e+01,-5.000000000000000000e+00,3.950195312500000000e-01,1.642456054687500000e-01,-9.024658203125000000e-01,-5.084228515625000000e-02
-6.000000000000000000e+00,-6.000000000000000000e+00,-2.300000000000000000e+01,-9.000000000000000000e+00,0.000000000000000000e+00,-1.000000000000000000e+00,-2.000000000000000000e+01,-4.000000000000000000e+00,3.950195312500000000e-01,1.642456054687500000e-01,-9.024658203125000000e-01,-5.084228515625000000e-02
2.000000000000000000e+00,0.000000000000000000e+00,-1.500000000000000000e+01,-1.400000000000000000e+01,-5.000000000000000000e+00,-1.000000000000000000e+00,4.100000000000000000e+01,2.000000000000000000e+00,3.950195312500000000e-01,1.642456054687500000e-01,-9.024658203125000000e-01,-5.084228515625000000e-02
1.000000000000000000e+00,-1.000000000000000000e+00,9.000000000000000000e+00,2.100000000000000000e+01,1.000000000000000000e+01,4.000000000000000000e+00,1.200000000000000000e+01,-1.000000000000000000e+00,3.950195312500000000e-01,1.642456054687500000e-01,-9.024658203125000000e-01,-5.084228515625000000e-02
6.000000000000000000e+00,8.000000000000000000e+00,3.200000000000000000e+01,1.700000000000000000e+01,0.000000000000000000e+00,-3.000000000000000000e+00,-1.000000000000000000e+00,4.000000000000000000e+00,3.947143554687500000e-01,1.647338867187500000e-01,-9.024658203125000000e-01,-5.084228515625000000e-02
-4.000000000000000000e+00,-2.000000000000000000e+00,2.000000000000000000e+00,-4.000000000000000000e+00,-2.000000000000000000e+00,-1.000000000000000000e+00,-9.000000000000000000e+00,-2.000000000000000000e+00,3.947143554687500000e-01,1.647338867187500000e-01,-9.024658203125000000e-01,-5.084228515625000000e-02
4.000000000000000000e+00,2.000000000000000000e+00,-6.000000000000000000e+00,5.000000000000000000e+00,2.000000000000000000e+00,4.000000000000000000e+00,-1.800000000000000000e+01,5.000000000000000000e+00,3.947143554687500000e-01,1.647338867187500000e-01,-9.024658203125000000e-01,-5.084228515625000000e-02
6.000000000000000000e+00,-1.600000000000000000e+01,-5.800000000000000000e+01,-7.900000000000000000e+01,-1.100000000000000000e+01,7.000000000000000000e+00,2.400000000000000000e+01,-5.000000000000000000e+00,3.947143554687500000e-01,1.647338867187500000e-01,-9.024658203125000000e-01,-5.084228515625000000e-02
-3.000000000000000000e+01,-1.000000000000000000e+01,-1.800000000000000000e+01,-1.700000000000000000e+01,-1.600000000000000000e+01,-1.900000000000000000e+01,-1.300000000000000000e+01,-1.000000000000000000e+01,3.943481445312500000e-01,1.652221679687500000e-01,-9.025268554687500000e-01,-5.078125000000000000e-02
1.000000000000000000e+00,7.000000000000000000e+00,-8.000000000000000000e+00,-2.000000000000000000e+00,6.000000000000000000e+00,5.000000000000000000e+00,2.000000000000000000e+00,-3.000000000000000000e+00,3.943481445312500000e-01,1.652221679687500000e-01,-9.025268554687500000e-01,-5.078125000000000000e-02
0.000000000000000000e+00,-4.000000000000000000e+00,-1.700000000000000000e+01,-7.000000000000000000e+00,1.000000000000000000e+00,-1.000000000000000000e+00,-1.000000000000000000e+01,-3.000000000000000000e+00,3.943481445312500000e-01,1.652221679687500000e-01,-9.025268554687500000e-01,-5.078125000000000000e-02
-1.000000000000000000e+00,6.000000000000000000e+00,1.300000000000000000e+01,1.800000000000000000e+01,3.000000000000000000e+00,3.000000000000000000e+00,5.000000000000000000e+00,1.000000000000000000e+00,3.943481445312500000e-01,1.652221679687500000e-01,-9.025268554687500000e-01,-5.078125000000000000e-02
8.000000000000000000e+00,3.000000000000000000e+00,6.000000000000000000e+00,2.000000000000000000e+00,-1.000000000000000000e+00,2.000000000000000000e+00,-1.000000000000000000e+01,1.000000000000000000e+00,3.943481445312500000e-01,1.652832031250000000e-01,-9.025878906250000000e-01,-5.084228515625000000e-02
-3.000000000000000000e+00,-8.000000000000000000e+00,-2.500000000000000000e+01,-1.300000000000000000e+01,-1.000000000000000000e+00,-1.000000000000000000e+00,5.000000000000000000e+00,-3.000000000000000000e+00,3.943481445312500000e-01,1.652832031250000000e-01,-9.025878906250000000e-01,-5.084228515625000000e-02
-5.000000000000000000e+00,-2.000000000000000000e+00,-3.000000000000000000e+00,-4.000000000000000000e+00,-3.000000000000000000e+00,-3.000000000000000000e+00,-2.000000000000000000e+00,1.000000000000000000e+00,3.943481445312500000e-01,1.652832031250000000e-01,-9.025878906250000000e-01,-5.084228515625000000e-02
4.000000000000000000e+00,1.000000000000000000e+01,3.200000000000000000e+01,1.600000000000000000e+01,0.000000000000000000e+00,-4.000000000000000000e+00,-1.000000000000000000e+01,0.000000000000000000e+00,3.943481445312500000e-01,1.652832031250000000e-01,-9.025878906250000000e-01,-5.084228515625000000e-02
2.000000000000000000e+00,-3.000000000000000000e+00,6.000000000000000000e+00,1.300000000000000000e+01,7.000000000000000000e+00,5.000000000000000000e+00,6.000000000000000000e+00,0.000000000000000000e+00,3.944702148437500000e-01,1.646118164062500000e-01,-9.026489257812500000e-01,-5.078125000000000000e-02
-1.600000000000000000e+01,-2.100000000000000000e+01,-5.700000000000000000e+01,-5.700000000000000000e+01,-2.500000000000000000e+01,-1.300000000000000000e+01,-5.000000000000000000e+00,-1.800000000000000000e+01,3.944702148437500000e-01,1.646118164062500000e-01,-9.026489257812500000e-01,-5.078125000000000000e-02
7.000000000000000000e+00,4.000000000000000000e+00,3.000000000000000000e+01,-3.000000000000000000e+00,-1.000000000000000000e+00,1.000000000000000000e+00,8.000000000000000000e+00,5.000000000000000000e+00,3.944702148437500000e-01,1.646118164062500000e-01,-9.026489257812500000e-01,-5.078125000000000000e-02
-6.000000000000000000e+00,1.000000000000000000e+00,-1.000000000000000000e+01,2.000000000000000000e+00,1.000000000000000000e+00,-4.000000000000000000e+00,5.000000000000000000e+00,1.000000000000000000e+00,3.944702148437500000e-01,1.646118164062500000e-01,-9.026489257812500000e-01,-5.078125000000000000e-02
7.000000000000000000e+00,2.000000000000000000e+00,-3.000000000000000000e+00,-6.000000000000000000e+00,5.000000000000000000e+00,3.000000000000000000e+00,-6.000000000000000000e+00,0.000000000000000000e+00,3.948974609375000000e-01,1.640625000000000000e-01,-9.025878906250000000e-01,-5.053710937500000000e-02
3.000000000000000000e+00,6.000000000000000000e+00,6.000000000000000000e+00,8.000000000000000000e+00,7.000000000000000000e+00,7.000000000000000000e+00,7.000000000000000000e+00,4.000000000000000000e+00,3.948974609375000000e-01,1.640625000000000000e-01,-9.025878906250000000e-01,-5.053710937500000000e-02
-7.000000000000000000e+00,-1.400000000000000000e+01,-5.000000000000000000e+00,-1.000000000000000000e+01,-8.000000000000000000e+00,-5.000000000000000000e+00,-1.100000000000000000e+01,-5.000000000000000000e+00,3.948974609375000000e-01,1.640625000000000000e-01,-9.025878906250000000e-01,-5.053710937500000000e-02
-5.000000000000000000e+00,-5.000000000000000000e+00,-1.900000000000000000e+01,-4.000000000000000000e+00,-5.000000000000000000e+00,-2.000000000000000000e+00,-8.000000000000000000e+00,-5.000000000000000000e+00,3.948974609375000000e-01,1.640625000000000000e-01,-9.025878906250000000e-01,-5.053710937500000000e-02
0.000000000000000000e+00,2.000000000000000000e+00,2.000000000000000000e+00,6.000000000000000000e+00,2.000000000000000000e+00,2.000000000000000000e+00,4.000000000000000000e+00,1.000000000000000000e+00,3.950805664062500000e-01,1.633911132812500000e-01,-9.025878906250000000e-01,-5.017089843750000000e-02
5.000000000000000000e+00,4.000000000000000000e+00,2.600000000000000000e+01,1.500000000000000000e+01,2.000000000000000000e+00,1.000000000000000000e+00,-1.000000000000000000e+00,5.000000000000000000e+00,3.950805664062500000e-01,1.633911132812500000e-01,-9.025878906250000000e-01,-5.017089843750000000e-02
-1.000000000000000000e+00,-3.000000000000000000e+00,-1.200000000000000000e+01,-8.000000000000000000e+00,-7.000000000000000000e+00,-2.000000000000000000e+00,-4.000000000000000000e+00,-4.000000000000000000e+00,3.950805664062500000e-01,1.633911132812500000e-01,-9.025878906250000000e-01,-5.017089843750000000e-02
-4.000000000000000000e+00,1.000000000000000000e+00,2.200000000000000000e+01,2.100000000000000000e+01,-3.000000000000000000e+00,-7.000000000000000000e+00,-1.000000000000000000e+01,-1.000000000000000000e+00,3.950805664062500000e-01,1.633911132812500000e-01,-9.025878906250000000e-01,-5.017089843750000000e-02
1.000000000000000000e+00,0.000000000000000000e+00,5.000000000000000000e+00,3.000000000000000000e+00,-4.000000000000000000e+00,-1.000000000000000000e+00,-1.000000000000000000e+00,-2.000000000000000000e+00,3.954467773437500000e-01,1.626586914062500000e-01,-9.025878906250000000e-01,-5.017089843750000000e-02
0.000000000000000000e+00,1.000000000000000000e+00,1.800000000000000000e+01,1.000000000000000000e+01,3.000000000000000000e+00,-1.000000000000000000e+00,-8.000000000000000000e+00,-1.000000000000000000e+00,3.954467773437500000e-01,1.626586914062500000e-01,-9.025878906250000000e-01,-5.017089843750000000e-02
7.000000000000000000e+00,3.000000000000000000e+00,-3.200000000000000000e+01,-1.700000000000000000e+01,1.700000000000000000e+01,8.000000000000000000e+00,8.000000000000000000e+00,6.000000000000000000e+00,3.954467773437500000e-01,1.626586914062500000e-01,-9.025878906250000000e-01,-5.017089843750000000e-02
-8.000000000000000000e+00,-1.000000000000000000e+01,-1.100000000000000000e+01,-6.000000000000000000e+00,-4.000000000000000000e+00,-5.000000000000000000e+00,0.000000000000000000e+00,-6.000000000000000000e+00,3.954467773437500000e-01,1.626586914062500000e-01,-9.025878906250000000e-01,-5.017089843750000000e-02
-1.000000000000000000e+00,-2.000000000000000000e+00,4.600000000000000000e+01,1.100000000000000000e+01,-8.000000000000000000e+00,0.000000000000000000e+00,2.000000000000000000e+00,-3.000000000000000000e+00,3.955078125000000000e-01,1.616210937500000000e-01,-9.027709960937500000e-01,-5.010986328125000000e-02
3.000000000000000000e+00,3.000000000000000000e+00,-3.200000000000000000e+01,-4.000000000000000000e+00,0.000000000000000000e+00,-2.000000000000000000e+00,-1.000000000000000000e+00,0.000000000000000000e+00,3.955078125000000000e-01,1.616210937500000000e-01,-9.027709960937500000e-01,-5.010986328125000000e-02
0.000000000000000000e+00,-1.000000000000000000e+00,-2.300000000000000000e+01,-6.000000000000000000e+00,-1.000000000000000000e+00,-1.000000000000000000e+00,-6.000000000000000000e+00,1.000000000000000000e+00,3.955078125000000000e-01,1.616210937500000000e-01,-9.027709960937500000e-01,-5.010986328125000000e-02
2.000000000000000000e+00,0.000000000000000000e+00,7.000000000000000000e+00,4.000000000000000000e+00,-6.000000000000000000e+00,-6.000000000000000000e+00,-5.000000000000000000e+00,1.000000000000000000e+00,3.955078125000000000e-01,1.616210937500000000e-01,-9.027709960937500000e-01,-5.010986328125000000e-02
0.000000000000000000e+00,1.000000000000000000e+00,-1.700000000000000000e+01,-4.000000000000000000e+00,6.000000000000000000e+00,6.000000000000000000e+00,2.000000000000000000e+00,0.000000000000000000e+00,3.953247070312500000e-01,1.624755859375000000e-01,-9.027099609375000000e-01,-4.992675781250000000e-02
0.000000000000000000e+00,0.000000000000000000e+00,2.000000000000000000e+01,1.400000000000000000e+01,7.000000000000000000e+00,6.000000000000000000e+00,4.000000000000000000e+00,4.000000000000000000e+00,3.953247070312500000e-01,1.624755859375000000e-01,-9.027099609375000000e-01,-4.992675781250000000e-02
0.000000000000000000e+00,-1.000000000000000000e+00,1.200000000000000000e+01,1.300000000000000000e+01,1.000000000000000000e+00,1.000000000000000000e+00,-2.000000000000000000e+00,-3.000000000000000000e+00,3.953247070312500000e-01,1.624755859375000000e-01,-9.027099609375000000e-01,-4.992675781250000000e-02
-1.000000000000000000e+00,3.000000000000000000e+00,3.600000000000000000e+01,3.000000000000000000e+00,-5.000000000000000000e+00,-7.000000000000000000e+00,-1.600000000000000000e+01,1.000000000000000000e+00,3.953247070312500000e-01,1.624755859375000000e-01,-9.027099609375000000e-01,-4.992675781250000000e-02
1.000000000000000000e+00,-2.000000000000000000e+00,-7.800000000000000000e+01,-1.100000000000000000e+01,-4.000000000000000000e+00,-7.000000000000000000e+00,-1.200000000000000000e+01,-5.000000000000000000e+00,3.947753906250000000e-01,1.629638671875000000e-01,-9.028320312500000000e-01,-5.059814453125000000e-02
-8.000000000000000000e+00,-5.000000000000000000e+00,3.100000000000000000e+01,-1.000000000000000000e+01,-1.000000000000000000e+01,-3.000000000000000000e+00,1.000000000000000000e+01,-4.000000000000000000e+00,3.947753906250000000e-01,1.629638671875000000e-01,-9.028320312500000000e-01,-5.059814453125000000e-02
1.000000000000000000e+00,2.000000000000000000e+00,1.200000000000000000e+01,3.000000000000000000e+00,-2.000000000000000000e+00,-3.000000000000000000e+00,-1.000000000000000000e+00,-3.000000000000000000e+00,3.947753906250000000e-01,1.629638671875000000e-01,-9.028320312500000000e-01,-5.059814453125000000e-02
-2.000000000000000000e+00,-7.000000000000000000e+00,-1.000000000000000000e+01,-2.400000000000000000e+01,-3.000000000000000000e+00,0.000000000000000000e+00,-2.000000000000000000e+00,-2.000000000000000000e+00,3.947753906250000000e-01,1.629638671875000000e-01,-9.028320312500000000e-01,-5.059814453125000000e-02
7.000000000000000000e+00,8.000000000000000000e+00,1.000000000000000000e+01,1.100000000000000000e+01,1.200000000000000000e+01,7.000000000000000000e+00,1.000000000000000000e+00,6.000000000000000000e+00,3.944702148437500000e-01,1.640014648437500000e-01,-9.027099609375000000e-01,-5.151367187500000000e-02
7.000000000000000000e+00,1.200000000000000000e+01,4.800000000000000000e+01,2.100000000000000000e+01,1.000000000000000000e+00,0.000000000000000000e+00,-3.000000000000000000e+00,4.000000000000000000e+00,3.944702148437500000e-01,1.640014648437500000e-01,-9.027099609375000000e-01,-5.151367187500000000e-02
3.000000000000000000e+00,-1.200000000000000000e+01,7.000000000000000000e+00,-6.000000000000000000e+00,-5.000000000000000000e+00,-2.000000000000000000e+00,2.000000000000000000e+00,-4.000000000000000000e+00,3.944702148437500000e-01,1.640014648437500000e-01,-9.027099609375000000e-01,-5.151367187500000000e-02
-4.000000000000000000e+00,6.000000000000000000e+00,-2.300000000000000000e+01,9.000000000000000000e+00,1.000000000000000000e+00,4.000000000000000000e+00,-1.000000000000000000e+00,-1.000000000000000000e+00,3.944702148437500000e-01,1.640014648437500000e-01,-9.027099609375000000e-01,-5.151367187500000000e-02
-8.000000000000000000e+00,5.000000000000000000e+00,5.600000000000000000e+01,2.400000000000000000e+01,-2.000000000000000000e+00,-3.000000000000000000e+00,3.000000000000000000e+00,-2.000000000000000000e+00,3.939819335937500000e-01,1.640014648437500000e-01,-9.028930664062500000e-01,-5.236816406250000000e-02
8.000000000000000000e+00,3.000000000000000000e+00,-1.300000000000000000e+01,-6.000000000000000000e+00,-1.000000000000000000e+00,1.000000000000000000e+00,6.000000000000000000e+00,-1.000000000000000000e+00,3.939819335937500000e-01,1.640014648437500000e-01,-9.028930664062500000e-01,-5.236816406250000000e-02
3.000000000000000000e+00,3.000000000000000000e+00,3.000000000000000000e+01,7.000000000000000000e+00,-1.000000000000000000e+00,-1.000000000000000000e+00,-1.200000000000000000e+01,-2.000000000000000000e+00,3.939819335937500000e-01,1.640014648437500000e-01,-9.028930664062500000e-01,-5.236816406250000000e-02
6.000000000000000000e+00,-1.000000000000000000e+00,-2.100000000000000000e+01,0.000000000000000000e+00,-2.000000000000000000e+00,1.000000000000000000e+00,3.000000000000000000e+00,0.000000000000000000e+00,3.939819335937500000e-01,1.640014648437500000e-01,-9.028930664062500000e-01,-5.236816406250000000e-02
-6.000000000000000000e+00,-9.000000000000000000e+00,1.800000000000000000e+01,-6.000000000000000000e+00,-6.000000000000000000e+00,-1.000000000000000000e+00,3.000000000000000000e+00,0.000000000000000000e+00,3.936157226562500000e-01,1.646118164062500000e-01,-9.028930664062500000e-01,-5.261230468750000000e-02
0.000000000000000000e+00,-1.000000000000000000e+00,-5.000000000000000000e+00,-3.000000000000000000e+00,-2.000000000000000000e+00,-5.000000000000000000e+00,-1.500000000000000000e+01,4.000000000000000000e+00,3.936157226562500000e-01,1.646118164062500000e-01,-9.028930664062500000e-01,-5.261230468750000000e-02
-4.000000000000000000e+00,3.000000000000000000e+00,-1.800000000000000000e+01,1.000000000000000000e+00,3.000000000000000000e+00,1.000000000000000000e+00,7.000000000000000000e+00,1.000000000000000000e+00,3.936157226562500000e-01,1.646118164062500000e-01,-9.028930664062500000e-01,-5.261230468750000000e-02
-1.000000000000000000e+00,-7.000000000000000000e+00,4.000000000000000000e+00,1.000000000000000000e+00,0.000000000000000000e+00,1.000000000000000000e+00,1.000000000000000000e+00,-1.000000000000000000e+00,3.936157226562500000e-01,1.646118164062500000e-01,-9.028930664062500000e-01,-5.261230468750000000e-02
0.000000000000000000e+00,-2.000000000000000000e+00,-2.400000000000000000e+01,-1.400000000000000000e+01,2.000000000000000000e+00,-2.000000000000000000e+00,0.000000000000000000e+00,-3.000000000000000000e+00,3.935546875000000000e-01,1.648559570312500000e-01,-9.028930664062500000e-01,-5.242919921875000000e-02
-5.000000000000000000e+00,-4.000000000000000000e+00,2.100000000000000000e+01,2.600000000000000000e+01,-6.000000000000000000e+00,-4.000000000000000000e+00,5.000000000000000000e+00,1.000000000000000000e+00,3.935546875000000000e-01,1.648559570312500000e-01,-9.028930664062500000e-01,-5.242919921875000000e-02
-2.000000000000000000e+00,3.000000000000000000e+00,1.300000000000000000e+01,1.000000000000000000e+01,-2.000000000000000000e+00,-2.000000000000000000e+00,-3.000000000000000000e+00,-3.000000000000000000e+00,3.935546875000000000e-01,1.648559570312500000e-01,-9.028930664062500000e-01,-5.242919921875000000e-02
-7.000000000000000000e+00,2.000000000000000000e+00,7.000000000000000000e+00,-6.000000000000000000e+00,-2.000000000000000000e+00,1.000000000000000000e+00,1.000000000000000000e+00,-3.000000000000000000e+00,3.935546875000000000e-01,1.648559570312500000e-01,-9.028930664062500000e-01,-5.242919921875000000e-02
1.000000000000000000e+01,5.000000000000000000e+00,4.600000000000000000e+01,-6.000000000000000000e+00,-1.000000000000000000e+00,0.000000000000000000e+00,0.000000000000000000e+00,6.000000000000000000e+00,3.936767578125000000e-01,1.651611328125000000e-01,-9.028320312500000000e-01,-5.206298828125000000e-02
-7.000000000000000000e+00,-2.000000000000000000e+00,2.400000000000000000e+01,3.200000000000000000e+01,2.000000000000000000e+00,0.000000000000000000e+00,-6.000000000000000000e+00,-5.000000000000000000e+00,3.936767578125000000e-01,1.651611328125000000e-01,-9.028320312500000000e-01,-5.206298828125000000e-02
-1.100000000000000000e+01,-1.300000000000000000e+01,-3.500000000000000000e+01,-2.500000000000000000e+01,-8.000000000000000000e+00,-6.000000000000000000e+00,-4.000000000000000000e+00,-4.000000000000000000e+00,3.936767578125000000e-01,1.651611328125000000e-01,-9.028320312500000000e-01,-5.206298828125000000e-02
-2.000000000000000000e+00,-1.000000000000000000e+00,5.000000000000000000e+00,7.000000000000000000e+00,0.000000000000000000e+00,0.000000000000000000e+00,1.000000000000000000e+00,-3.000000000000000000e+00,3.936767578125000000e-01,1.651611328125000000e-01,-9.028320312500000000e-01,-5.206298828125000000e-02
2.000000000000000000e+00,0.000000000000000000e+00,-1.500000000000000000e+01,7.000000000000000000e+00,1.000000000000000000e+00,1.000000000000000000e+00,0.000000000000000000e+00,1.000000000000000000e+00,3.939208984375000000e-01,1.647949218750000000e-01,-9.027709960937500000e-01,-5.169677734375000000e-02
-3.000000000000000000e+00,2.000000000000000000e+00,-3.500000000000000000e+01,-4.300000000000000000e+01,-9.000000000000000000e+00,-8.000000000000000000e+00,-3.500000000000000000e+01,-4.000000000000000000e+00,3.939208984375000000e-01,1.647949218750000000e-01,-9.027709960937500000e-01,-5.169677734375000000e-02
3.000000000000000000e+00,3.000000000000000000e+00,2.000000000000000000e+01,7.000000000000000000e+00,-1.000000000000000000e+00,3.000000000000000000e+00,4.300000000000000000e+01,2.000000000000000000e+00,3.939208984375000000e-01,1.647949218750000000e-01,-9.027709960937500000e-01,-5.169677734375000000e-02
-1.000000000000000000e+00,0.000000000000000000e+00,4.100000000000000000e+01,1.200000000000000000e+01,1.000000000000000000e+00,-2.000000000000000000e+00,4.000000000000000000e+00,0.000000000000000000e+00,3.939208984375000000e-01,1.647949218750000000e-01,-9.027709960937500000e-01,-5.169677734375000000e-02
-4.000000000000000000e+00,-2.000000000000000000e+00,-2.400000000000000000e+01,-2.100000000000000000e+01,-4.000000000000000000e+00,-4.000000000000000000e+00,-6.000000000000000000e+00,-5.000000000000000000e+00,3.942871093750000000e-01,1.642456054687500000e-01,-9.027709960937500000e-01,-5.139160156250000000e-02
-9.000000000000000000e+00,-7.000000000000000000e+00,2.900000000000000000e+01,-5.000000000000000000e+00,-5.000000000000000000e+00,-4.000000000000000000e+00,6.000000000000000000e+00,-4.000000000000000000e+00,3.942871093750000000e-01,1.642456054687500000e-01,-9.027709960937500000e-01,-5.139160156250000000e-02
-3.000000000000000000e+00,-9.000000000000000000e+00,-6.800000000000000000e+01,-2.100000000000000000e+01,-6.000000000000000000e+00,-1.000000000000000000e+01,-3.200000000000000000e+01,-3.000000000000000000e+00,3.942871093750000000e-01,1.642456054687500000e-01,-9.027709960937500000e-01,-5.139160156250000000e-02
4.000000000000000000e+00,4.000000000000000000e+00,-1.300000000000000000e+01,-1.000000000000000000e+00,1.000000000000000000e+00,6.000000000000000000e+00,2.000000000000000000e+00,4.000000000000000000e+00,3.942871093750000000e-01,1.642456054687500000e-01,-9.027709960937500000e-01,-5.139160156250000000e-02
