-2.000000000000000000e+00,1.000000000000000000e+00,-1.900000000000000000e+01,-1.600000000000000000e+01,-4.000000000000000000e+00,-1.000000000000000000e+00,-2.000000000000000000e+00,-3.000000000000000000e+00,5.335083007812500000e-01,1.632080078125000000e-01,-8.296508789062500000e-01,1.898193359375000000e-02
-6.000000000000000000e+00,-8.000000000000000000e+00,-9.000000000000000000e+00,1.200000000000000000e+01,2.000000000000000000e+00,-1.000000000000000000e+00,-1.000000000000000000e+01,-3.000000000000000000e+00,5.335083007812500000e-01,1.632080078125000000e-01,-8.296508789062500000e-01,1.898193359375000000e-02
3.000000000000000000e+00,0.000000000000000000e+00,3.000000000000000000e+00,-1.800000000000000000e+01,-4.000000000000000000e+00,1.000000000000000000e+00,8.000000000000000000e+00,2.000000000000000000e+00,5.332641601562500000e-01,1.633300781250000000e-01,-8.297729492187500000e-01,1.940917968750000000e-02
-4.000000000000000000e+00,-3.000000000000000000e+00,-6.000000000000000000e+00,1.200000000000000000e+01,6.000000000000000000e+00,2.000000000000000000e+00,6.000000000000000000e+00,-1.000000000000000000e+01,5.332641601562500000e-01,1.633300781250000000e-01,-8.297729492187500000e-01,1.940917968750000000e-02
4.000000000000000000e+00,4.000000000000000000e+00,6.000000000000000000e+00,-3.000000000000000000e+00,-7.000000000000000000e+00,-1.000000000000000000e+00,1.000000000000000000e+00,3.000000000000000000e+00,5.332641601562500000e-01,1.633300781250000000e-01,-8.297729492187500000e-01,1.940917968750000000e-02
-4.000000000000000000e+00,0.000000000000000000e+00,1.000000000000000000e+00,7.000000000000000000e+00,-8.000000000000000000e+00,-2.000000000000000000e+00,4.000000000000000000e+00,0.000000000000000000e+00,5.332641601562500000e-01,1.633300781250000000e-01,-8.297729492187500000e-01,1.940917968750000000e-02
-5.000000000000000000e+00,-2.000000000000000000e+00,0.000000000000000000e+00,1.000000000000000000e+00,1.000000000000000000e+00,-2.000000000000000000e+00,-4.000000000000000000e+00,-5.000000000000000000e+00,5.329589843750000000e-01,1.638183593750000000e-01,-8.298950195312500000e-01,1.959228515625000000e-02
0.000000000000000000e+00,0.000000000000000000e+00,-3.000000000000000000e+00,-5.000000000000000000e+00,8.000000000000000000e+00,-5.000000000000000000e+00,-1.100000000000000000e+01,3.000000000000000000e+00,5.329589843750000000e-01,1.638183593750000000e-01,-8.298950195312500000e-01,1.959228515625000000e-02
-1.000000000000000000e+00,1.000000000000000000e+00,2.000000000000000000e+00,-3.000000000000000000e+00,-3.000000000000000000e+00,-1.000000000000000000e+00,-8.000000000000000000e+00,-3.000000000000000000e+00,5.329589843750000000e-01,1.638183593750000000e-01,-8.298950195312500000e-01,1.959228515625000000e-02
4.000000000000000000e+00,0.000000000000000000e+00,-8.000000000000000000e+00,-1.100000000000000000e+01,0.000000000000000000e+00,-2.000000000000000000e+00,5.000000000000000000e+00,7.000000000000000000e+00,5.329589843750000000e-01,1.638183593750000000e-01,-8.298950195312500000e-01,1.959228515625000000e-02
-1.000000000000000000e+01,-2.000000000000000000e+00,0.000000000000000000e+00,-1.200000000000000000e+01,-6.000000000000000000e+00,-1.000000000000000000e+00,-4.000000000000000000e+00,-3.000000000000000000e+00,5.327758789062500000e-01,1.640014648437500000e-01,-8.299560546875000000e-01,1.953125000000000000e-02
-2.000000000000000000e+00,-7.000000000000000000e+00,-5.000000000000000000e+00,-1.000000000000000000e+01,-5.000000000000000000e+00,-6.000000000000000000e+00,-8.000000000000000000e+00,-1.000000000000000000e+00,5.327758789062500000e-01,1.640014648437500000e-01,-8.299560546875000000e-01,1.953125000000000000e-02
-4.000000000000000000e+00,-2.000000000000000000e+00,-1.200000000000000000e+01,1.200000000000000000e+01,-5.000000000000000000e+00,-2.000000000000000000e+00,-4.000000000000000000e+00,-6.000000000000000000e+00,5.327758789062500000e-01,1.640014648437500000e-01,-8.299560546875000000e-01,1.953125000000000000e-02
1.000000000000000000e+00,0.000000000000000000e+00,6.000000000000000000e+00,4.000000000000000000e+00,1.000000000000000000e+01,1.000000000000000000e+00,-3.000000000000000000e+00,-1.000000000000000000e+00,5.327758789062500000e-01,1.640014648437500000e-01,-8.299560546875000000e-01,1.953125000000000000e-02
4.000000000000000000e+00,3.000000000000000000e+00,1.000000000000000000e+00,3.000000000000000000e+00,0.000000000000000000e+00,-3.000000000000000000e+00,-4.000000000000000000e+00,0.000000000000000000e+00,5.324707031250000000e-01,1.641235351562500000e-01,-8.301391601562500000e-01,1.983642578125000000e-02
-1.000000000000000000e+00,1.000000000000000000e+00,-4.000000000000000000e+00,-1.000000000000000000e+00,-3.000000000000000000e+00,-1.000000000000000000e+00,-2.000000000000000000e+01,2.000000000000000000e+00,5.324707031250000000e-01,1.641235351562500000e-01,-8.301391601562500000e-01,1.983642578125000000e-02
-3.000000000000000000e+00,-2.000000000000000000e+00,5.000000000000000000e+00,5.000000000000000000e+00,0.000000000000000000e+00,2.000000000000000000e+00,1.400000000000000000e+01,2.000000000000000000e+00,5.324707031250000000e-01,1.641235351562500000e-01,-8.301391601562500000e-01,1.983642578125000000e-02
3.000000000000000000e+00,5.000000000000000000e+00,4.000000000000000000e+00,3.000000000000000000e+00,4.000000000000000000e+00,-2.000000000000000000e+00,-3.000000000000000000e+00,-3.000000000000000000e+00,5.324707031250000000e-01,1.641235351562500000e-01,-8.301391601562500000e-01,1.983642578125000000e-02
-1.000000000000000000e+00,-1.000000000000000000e+00,-2.000000000000000000e+01,-9.000000000000000000e+00,-6.000000000000000000e+00,1.000000000000000000e+00,4.000000000000000000e+00,3.000000000000000000e+00,5.324096679687500000e-01,1.643676757812500000e-01,-8.301391601562500000e-01,2.038574218750000000e-02
-3.000000000000000000e+00,-4.000000000000000000e+00,1.600000000000000000e+01,-2.000000000000000000e+00,4.000000000000000000e+00,-1.000000000000000000e+00,-1.000000000000000000e+01,-2.000000000000000000e+00,5.324096679687500000e-01,1.643676757812500000e-01,-8.301391601562500000e-01,2.038574218750000000e-02
-5.000000000000000000e+00,-5.000000000000000000e+00,-1.100000000000000000e+01,1.000000000000000000e+00,-9.000000000000000000e+00,-5.000000000000000000e+00,-7.000000000000000000e+00,-2.000000000000000000e+00,5.324096679687500000e-01,1.643676757812500000e-01,-8.301391601562500000e-01,2.038574218750000000e-02
-6.000000000000000000e+00,-2.000000000000000000e+00,5.000000000000000000e+00,-9.000000000000000000e+00,-8.000000000000000000e+00,-1.000000000000000000e+00,-2.000000000000000000e+00,-1.000000000000000000e+00,5.324096679687500000e-01,1.643676757812500000e-01,-8.301391601562500000e-01,2.038574218750000000e-02
4.000000000000000000e+00,-1.000000000000000000e+00,-1.000000000000000000e+00,-7.000000000000000000e+00,1.200000000000000000e+01,4.000000000000000000e+00,1.000000000000000000e+00,-1.000000000000000000e+00,5.325317382812500000e-01,1.644287109375000000e-01,-8.300170898437500000e-01,2.081298828125000000e-02
4.000000000000000000e+00,3.000000000000000000e+00,1.000000000000000000e+00,-4.000000000000000000e+00,-1.600000000000000000e+01,-6.000000000000000000e+00,3.000000000000000000e+00,0.000000000000000000e+00,5.325317382812500000e-01,1.644287109375000000e-01,-8.300170898437500000e-01,2.081298828125000000e-02
1.000000000000000000e+00,0.000000000000000000e+00,3.000000000000000000e+00,-3.000000000000000000e+00,1.200000000000000000e+01,6.000000000000000000e+00,0.000000000000000000e+00,0.000000000000000000e+00,5.325317382812500000e-01,1.644287109375000000e-01,-8.300170898437500000e-01,2.081298828125000000e-02
0.000000000000000000e+00,0.000000000000000000e+00,2.000000000000000000e+00,2.600000000000000000e+01,1.300000000000000000e+01,-2.000000000000000000e+00,-5.000000000000000000e+00,-5.000000000000000000e+00,5.325317382812500000e-01,1.644287109375000000e-01,-8.300170898437500000e-01,2.081298828125000000e-02
-2.000000000000000000e+00,-3.000000000000000000e+00,-1.000000000000000000e+00,-1.100000000000000000e+01,-1.600000000000000000e+01,-1.000000000000000000e+00,9.000000000000000000e+00,4.000000000000000000e+00,5.328979492187500000e-01,1.640625000000000000e-01,-8.298339843750000000e-01,2.087402343750000000e-02
1.000000000000000000e+00,0.000000000000000000e+00,-3.000000000000000000e+00,-4.000000000000000000e+00,4.000000000000000000e+00,-3.000000000000000000e+00,-2.000000000000000000e+00,-3.000000000000000000e+00,5.328979492187500000e-01,1.640625000000000000e-01,-8.298339843750000000e-01,2.087402343750000000e-02
-1.000000000000000000e+00,4.000000000000000000e+00,6.000000000000000000e+00,2.100000000000000000e+01,-3.000000000000000000e+00,-6.000000000000000000e+00,3.000000000000000000e+00,1.000000000000000000e+00,5.328979492187500000e-01,1.640625000000000000e-01,-8.298339843750000000e-01,2.087402343750000000e-02
-3.000000000000000000e+00,-6.000000000000000000e+00,-9.000000000000000000e+00,-1.900000000000000000e+01,-1.000000000000000000e+00,4.000000000000000000e+00,-1.000000000000000000e+01,-4.000000000000000000e+00,5.328979492187500000e-01,1.640625000000000000e-01,-8.298339843750000000e-01,2.087402343750000000e-02
3.000000000000000000e+00,-5.000000000000000000e+00,-1.000000000000000000e+00,4.000000000000000000e+00,5.000000000000000000e+00,-3.000000000000000000e+00,-1.200000000000000000e+01,-3.000000000000000000e+00,5.331420898437500000e-01,1.637573242187500000e-01,-8.297729492187500000e-01,2.105712890625000000e-02
-2.000000000000000000e+00,0.000000000000000000e+00,-6.000000000000000000e+00,-3.000000000000000000e+00,4.000000000000000000e+00,6.000000000000000000e+00,2.100000000000000000e+01,2.000000000000000000e+00,5.331420898437500000e-01,1.637573242187500000e-01,-8.297729492187500000e-01,2.105712890625000000e-02
1.000000000000000000e+00,0.000000000000000000e+00,6.000000000000000000e+00,3.000000000000000000e+00,-6.000000000000000000e+00,-3.000000000000000000e+00,3.000000000000000000e+00,3.000000000000000000e+00,5.331420898437500000e-01,1.637573242187500000e-01,-8.297729492187500000e-01,2.105712890625000000e-02
-3.000000000000000000e+00,1.000000000000000000e+00,2.000000000000000000e+00,-5.000000000000000000e+00,-1.000000000000000000e+00,-1.000000000000000000e+00,-4.000000000000000000e+00,1.000000000000000000e+00,5.331420898437500000e-01,1.637573242187500000e-01,-8.297729492187500000e-01,2.105712890625000000e-02
-2.000000000000000000e+00,-1.000000000000000000e+00,2.000000000000000000e+00,2.000000000000000000e+00,-2.000000000000000000e+00,-1.000000000000000000e+00,-7.000000000000000000e+00,-3.000000000000000000e+00,5.333862304687500000e-01,1.635742187500000000e-01,-8.296508789062500000e-01,2.136230468750000000e-02
-2.000000000000000000e+00,1.000000000000000000e+00,-5.000000000000000000e+00,-3.000000000000000000e+00,-3.000000000000000000e+00,-2.000000000000000000e+00,-3.000000000000000000e+00,5.000000000000000000e+00,5.333862304687500000e-01,1.635742187500000000e-01,-8.296508789062500000e-01,2.136230468750000000e-02
-1.000000000000000000e+00,0.000000000000000000e+00,-3.000000000000000000e+00,-1.200000000000000000e+01,-4.000000000000000000e+00,-3.000000000000000000e+00,-3.000000000000000000e+00,-2.000000000000000000e+00,5.333862304687500000e-01,1.635742187500000000e-01,-8.296508789062500000e-01,2.136230468750000000e-02
0.000000000000000000e+00,1.000000000000000000e+00,4.000000000000000000e+00,2.000000000000000000e+00,-2.000000000000000000e+00,-4.000000000000000000e+00,-3.000000000000000000e+00,0.000000000000000000e+00,5.333862304687500000e-01,1.635742187500000000e-01,-8.296508789062500000e-01,2.136230468750000000e-02
0.000000000000000000e+00,-3.000000000000000000e+00,-5.000000000000000000e+00,-2.000000000000000000e+00,4.000000000000000000e+00,0.000000000000000000e+00,1.200000000000000000e+01,-3.000000000000000000e+00,5.336914062500000000e-01,1.633300781250000000e-01,-8.294677734375000000e-01,2.178955078125000000e-02
6.000000000000000000e+00,-1.000000000000000000e+00,-4.000000000000000000e+00,0.000000000000000000e+00,-2.000000000000000000e+00,0.000000000000000000e+00,-1.000000000000000000e+01,-5.000000000000000000e+00,5.336914062500000000e-01,1.633300781250000000e-01,-8.294677734375000000e-01,2.178955078125000000e-02
-1.200000000000000000e+01,-1.000000000000000000e+00,1.000000000000000000e+00,1.000000000000000000e+00,1.000000000000000000e+00,3.000000000000000000e+00,3.000000000000000000e+00,-1.000000000000000000e+00,5.336914062500000000e-01,1.633300781250000000e-01,-8.294677734375000000e-01,2.178955078125000000e-02
-1.100000000000000000e+01,-4.000000000000000000e+00,-5.000000000000000000e+00,-2.000000000000000000e+00,-1.000000000000000000e+00,-2.000000000000000000e+00,-1.000000000000000000e+00,-2.000000000000000000e+00,5.336914062500000000e-01,1.633300781250000000e-01,-8.294677734375000000e-01,2.178955078125000000e-02
-3.000000000000000000e+00,-4.000000000000000000e+00,1.000000000000000000e+00,-5.000000000000000000e+00,-1.200000000000000000e+01,-3.000000000000000000e+00,-3.000000000000000000e+00,-1.000000000000000000e+00,5.339965820312500000e-01,1.632080078125000000e-01,-8.292846679687500000e-01,2.221679687500000000e-02
-1.000000000000000000e+00,-4.000000000000000000e+00,-5.000000000000000000e+00,-6.000000000000000000e+00,-5.000000000000000000e+00,-4.000000000000000000e+00,-6.000000000000000000e+00,-2.000000000000000000e+00,5.339965820312500000e-01,1.632080078125000000e-01,-8.292846679687500000e-01,2.221679687500000000e-02
4.000000000000000000e+00,-2.000000000000000000e+00,9.000000000000000000e+00,-3.000000000000000000e+00,-5.000000000000000000e+00,2.000000000000000000e+00,-4.000000000000000000e+00,1.000000000000000000e+00,5.339965820312500000e-01,1.632080078125000000e-01,-8.292846679687500000e-01,2.221679687500000000e-02
5.000000000000000000e+00,2.000000000000000000e+00,-2.000000000000000000e+00,4.000000000000000000e+00,1.000000000000000000e+01,4.000000000000000000e+00,-8.000000000000000000e+00,-2.000000000000000000e+00,5.339965820312500000e-01,1.632080078125000000e-01,-8.292846679687500000e-01,2.221679687500000000e-02
0.000000000000000000e+00,4.000000000000000000e+00,6.000000000000000000e+00,9.000000000000000000e+00,1.100000000000000000e+01,-2.000000000000000000e+00,-1.300000000000000000e+01,4.000000000000000000e+00,5.339965820312500000e-01,1.631469726562500000e-01,-8.292846679687500000e-01,2.221679687500000000e-02
-2.000000000000000000e+00,1.000000000000000000e+00,4.000000000000000000e+00,1.300000000000000000e+01,-1.000000000000000000e+00,-1.000000000000000000e+00,9.000000000000000000e+00,2.000000000000000000e+00,5.339965820312500000e-01,1.631469726562500000e-01,-8.292846679687500000e-01,2.221679687500000000e-02
1.000000000000000000e+00,-6.000000000000000000e+00,-1.200000000000000000e+01,-1.100000000000000000e+01,-1.000000000000000000e+00,-2.000000000000000000e+00,-1.000000000000000000e+00,-3.000000000000000000e+00,5.339965820312500000e-01,1.631469726562500000e-01,-8.292846679687500000e-01,2.221679687500000000e-02
-2.000000000000000000e+00,-1.000000000000000000e+00,-2.000000000000000000e+00,-1.300000000000000000e+01,-7.000000000000000000e+00,-3.000000000000000000e+00,-4.000000000000000000e+00,-2.000000000000000000e+00,5.339965820312500000e-01,1.631469726562500000e-01,-8.292846679687500000e-01,2.221679687500000000e-02
0.000000000000000000e+00,-1.000000000000000000e+00,0.000000000000000000e+00,-4.000000000000000000e+00,-3.000000000000000000e+00,-3.000000000000000000e+00,-2.000000000000000000e+00,0.000000000000000000e+00,5.341186523437500000e-01,1.629028320312500000e-01,-8.292846679687500000e-01,2.197265625000000000e-02
-1.000000000000000000e+00,-2.000000000000000000e+00,-6.000000000000000000e+00,-3.000000000000000000e+00,-1.000000000000000000e+00,0.000000000000000000e+00,-1.000000000000000000e+00,-2.000000000000000000e+00,5.341186523437500000e-01,1.629028320312500000e-01,-8.292846679687500000e-01,2.197265625000000000e-02
1.000000000000000000e+00,1.000000000000000000e+00,1.000000000000000000e+00,6.000000000000000000e+00,-2.000000000000000000e+00,-2.000000000000000000e+00,-7.000000000000000000e+00,-3.000000000000000000e+00,5.341186523437500000e-01,1.629028320312500000e-01,-8.292846679687500000e-01,2.197265625000000000e-02
-3.000000000000000000e+00,2.000000000000000000e+00,-3.000000000000000000e+00,-1.900000000000000000e+01,-1.600000000000000000e+01,-1.000000000000000000e+01,3.000000000000000000e+00,0.000000000000000000e+00,5.341186523437500000e-01,1.629028320312500000e-01,-8.292846679687500000e-01,2.197265625000000000e-02
-3.000000000000000000e+00,-6.000000000000000000e+00,-5.000000000000000000e+00,2.300000000000000000e+01,1.500000000000000000e+01,1.000000000000000000e+00,2.000000000000000000e+00,-4.000000000000000000e+00,5.340576171875000000e-01,1.629028320312500000e-01,-8.292846679687500000e-01,2.197265625000000000e-02
0.000000000000000000e+00,-1.000000000000000000e+00,3.000000000000000000e+00,1.000000000000000000e+00,1.000000000000000000e+01,5.000000000000000000e+00,0.000000000000000000e+00,0.000000000000000000e+00,5.340576171875000000e-01,1.629028320312500000e-01,-8.292846679687500000e-01,2.197265625000000000e-02
1.000000000000000000e+00,0.000000000000000000e+00,9.000000000000000000e+00,-1.100000000000000000e+01,0.000000000000000000e+00,5.000000000000000000e+00,2.000000000000000000e+00,1.000000000000000000e+00,5.340576171875000000e-01,1.629028320312500000e-01,-8.292846679687500000e-01,2.197265625000000000e-02
-2.000000000000000000e+00,-7.000000000000000000e+00,-2.000000000000000000e+01,1.700000000000000000e+01,8.000000000000000000e+00,0.000000000000000000e+00,0.000000000000000000e+00,-1.000000000000000000e+00,5.340576171875000000e-01,1.629028320312500000e-01,-8.292846679687500000e-01,2.197265625000000000e-02
-4.000000000000000000e+00,0.000000000000000000e+00,1.000000000000000000e+01,-1.500000000000000000e+01,-1.300000000000000000e+01,-1.000000000000000000e+00,-2.000000000000000000e+00,-3.000000000000000000e+00,5.339355468750000000e-01,1.627807617187500000e-01,-8.294677734375000000e-01,2.191162109375000000e-02
-3.000000000000000000e+00,-4.000000000000000000e+00,-6.000000000000000000e+00,-1.000000000000000000e+00,-9.000000000000000000e+00,-3.000000000000000000e+00,-4.000000000000000000e+00,-2.000000000000000000e+00,5.339355468750000000e-01,1.627807617187500000e-01,-8.294677734375000000e-01,2.191162109375000000e-02
3.000000000000000000e+00,-3.000000000000000000e+00,1.000000000000000000e+00,1.000000000000000000e+00,1.000000000000000000e+00,-3.000000000000000000e+00,-4.000000000000000000e+00,-2.000000000000000000e+00,5.339355468750000000e-01,1.627807617187500000e-01,-8.294677734375000000e-01,2.191162109375000000e-02
2.000000000000000000e+00,0.000000000000000000e+00,5.000000000000000000e+00,0.000000000000000000e+00,-1.000000000000000000e+00,1.000000000000000000e+00,2.000000000000000000e+00,-1.000000000000000000e+00,5.339355468750000000e-01,1.627807617187500000e-01,-8.294677734375000000e-01,2.191162109375000000e-02
-1.000000000000000000e+00,2.000000000000000000e+00,-3.000000000000000000e+00,-9.000000000000000000e+00,-9.000000000000000000e+00,-4.000000000000000000e+00,5.000000000000000000e+00,-4.000000000000000000e+00,5.333862304687500000e-01,1.632690429687500000e-01,-8.297119140625000000e-01,2.215576171875000000e-02
0.000000000000000000e+00,3.000000000000000000e+00,-2.000000000000000000e+00,4.000000000000000000e+00,5.000000000000000000e+00,-1.000000000000000000e+00,-7.000000000000000000e+00,2.000000000000000000e+00,5.333862304687500000e-01,1.632690429687500000e-01,-8.297119140625000000e-01,2.215576171875000000e-02
2.000000000000000000e+00,2.000000000000000000e+00,-5.000000000000000000e+00,-2.000000000000000000e+00,3.000000000000000000e+00,2.000000000000000000e+00,6.000000000000000000e+00,-4.000000000000000000e+00,5.333862304687500000e-01,1.632690429687500000e-01,-8.297119140625000000e-01,2.215576171875000000e-02
0.000000000000000000e+00,-3.000000000000000000e+00,6.000000000000000000e+00,1.500000000000000000e+01,-1.000000000000000000e+00,-4.000000000000000000e+00,1.100000000000000000e+01,5.000000000000000000e+00,5.333862304687500000e-01,1.632690429687500000e-01,-8.297119140625000000e-01,2.215576171875000000e-02
-2.000000000000000000e+00,-4.000000000000000000e+00,-1.200000000000000000e+01,-2.600000000000000000e+01,-2.000000000000000000e+01,-3.000000000000000000e+00,-5.000000000000000000e+00,-3.000000000000000000e+00,5.329589843750000000e-01,1.634521484375000000e-01,-8.298950195312500000e-01,2.209472656250000000e-02
-1.300000000000000000e+01,-5.000000000000000000e+00,-8.000000000000000000e+00,9.000000000000000000e+00,7.000000000000000000e+00,3.000000000000000000e+00,0.000000000000000000e+00,-4.000000000000000000e+00,5.329589843750000000e-01,1.634521484375000000e-01,-8.298950195312500000e-01,2.209472656250000000e-02
-3.000000000000000000e+00,-1.000000000000000000e+00,-7.000000000000000000e+00,-1.000000000000000000e+00,1.100000000000000000e+01,-2.000000000000000000e+00,1.000000000000000000e+00,0.000000000000000000e+00,5.329589843750000000e-01,1.634521484375000000e-01,-8.298950195312500000e-01,2.209472656250000000e-02
2.000000000000000000e+00,2.000000000000000000e+00,7.000000000000000000e+00,-1.200000000000000000e+01,-1.600000000000000000e+01,-7.000000000000000000e+00,-1.000000000000000000e+01,-3.000000000000000000e+00,5.329589843750000000e-01,1.634521484375000000e-01,-8.298950195312500000e-01,2.209472656250000000e-02
4.000000000000000000e+00,1.000000000000000000e+00,3.000000000000000000e+00,2.300000000000000000e+01,6.000000000000000000e+00,5.000000000000000000e+00,-1.000000000000000000e+00,0.000000000000000000e+00,5.326538085937500000e-01,1.632690429687500000e-01,-8.301391601562500000e-01,2.191162109375000000e-02
4.000000000000000000e+00,4.000000000000000000e+00,7.000000000000000000e+00,7.000000000000000000e+00,-1.000000000000000000e+01,-3.000000000000000000e+00,0.000000000000000000e+00,0.000000000000000000e+00,5.326538085937500000e-01,1.632690429687500000e-01,-8.301391601562500000e-01,2.191162109375000000e-02
-1.000000000000000000e+00,-3.000000000000000000e+00,-1.400000000000000000e+01,-2.200000000000000000e+01,-2.000000000000000000e+00,0.000000000000000000e+00,-5.000000000000000000e+00,-3.000000000000000000e+00,5.326538085937500000e-01,1.632690429687500000e-01,-8.301391601562500000e-01,2.191162109375000000e-02
1.000000000000000000e+00,-3.000000000000000000e+00,-4.000000000000000000e+00,4.000000000000000000e+00,1.000000000000000000e+01,7.000000000000000000e+00,1.000000000000000000e+00,3.000000000000000000e+00,5.326538085937500000e-01,1.632690429687500000e-01,-8.301391601562500000e-01,2.191162109375000000e-02
-4.000000000000000000e+00,-1.000000000000000000e+00,2.000000000000000000e+00,-2.000000000000000000e+00,0.000000000000000000e+00,-1.000000000000000000e+00,-2.000000000000000000e+00,0.000000000000000000e+00,5.324096679687500000e-01,1.635742187500000000e-01,-8.302612304687500000e-01,2.209472656250000000e-02
3.000000000000000000e+00,2.000000000000000000e+00,3.000000000000000000e+00,-1.400000000000000000e+01,-9.000000000000000000e+00,1.000000000000000000e+00,0.000000000000000000e+00,-3.000000000000000000e+00,5.324096679687500000e-01,1.635742187500000000e-01,-8.302612304687500000e-01,2.209472656250000000e-02
-9.000000000000000000e+00,-6.000000000000000000e+00,0.000000000000000000e+00,1.300000000000000000e+01,2.000000000000000000e+00,-6.000000000000000000e+00,0.000000000000000000e+00,-2.000000000000000000e+00,5.324096679687500000e-01,1.635742187500000000e-01,-8.302612304687500000e-01,2.209472656250000000e-02
4.000000000000000000e+00,5.000000000000000000e+00,5.000000000000000000e+00,-9.000000000000000000e+00,-7.000000000000000000e+00,-4.000000000000000000e+00,-1.600000000000000000e+01,4.000000000000000000e+00,5.324096679687500000e-01,1.635742187500000000e-01,-8.302612304687500000e-01,2.209472656250000000e-02
-1.000000000000000000e+00,0.000000000000000000e+00,-5.000000000000000000e+00,1.000000000000000000e+01,-3.000000000000000000e+00,1.000000000000000000e+00,2.000000000000000000e+00,0.000000000000000000e+00,5.323486328125000000e-01,1.637573242187500000e-01,-8.302001953125000000e-01,2.239990234375000000e-02
-1.000000000000000000e+00,-2.000000000000000000e+00,-7.000000000000000000e+00,-1.200000000000000000e+01,1.300000000000000000e+01,5.000000000000000000e+00,1.000000000000000000e+01,0.000000000000000000e+00,5.323486328125000000e-01,1.637573242187500000e-01,-8.302001953125000000e-01,2.239990234375000000e-02
4.000000000000000000e+00,2.000000000000000000e+00,9.000000000000000000e+00,2.500000000000000000e+01,-1.700000000000000000e+01,-8.000000000000000000e+00,-9.000000000000000000e+00,-2.000000000000000000e+00,5.323486328125000000e-01,1.637573242187500000e-01,-8.302001953125000000e-01,2.239990234375000000e-02
-1.000000000000000000e+01,-4.000000000000000000e+00,-7.000000000000000000e+00,-1.100000000000000000e+01,1.100000000000000000e+01,1.000000000000000000e+00,-4.000000000000000000e+00,-3.000000000000000000e+00,5.323486328125000000e-01,1.637573242187500000e-01,-8.302001953125000000e-01,2.239990234375000000e-02
-3.000000000000000000e+00,-4.000000000000000000e+00,-2.000000000000000000e+01,-2.000000000000000000e+01,-1.100000000000000000e+01,-4.000000000000000000e+00,0.000000000000000000e+00,0.000000000000000000e+00,5.324096679687500000e-01,1.637573242187500000e-01,-8.302001953125000000e-01,2.258300781250000000e-02
1.000000000000000000e+00,1.000000000000000000e+00,4.000000000000000000e+00,1.000000000000000000e+00,-1.000000000000000000e+00,-5.000000000000000000e+00,-7.000000000000000000e+00,-3.000000000000000000e+00,5.324096679687500000e-01,1.637573242187500000e-01,-8.302001953125000000e-01,2.258300781250000000e-02
1.000000000000000000e+00,2.000000000000000000e+00,1.000000000000000000e+00,4.000000000000000000e+00,-2.000000000000000000e+00,3.000000000000000000e+00,1.000000000000000000e+00,3.000000000000000000e+00,5.324096679687500000e-01,1.637573242187500000e-01,-8.302001953125000000e-01,2.258300781250000000e-02
1.000000000000000000e+00,-2.000000000000000000e+00,5.000000000000000000e+00,0.000000000000000000e+00,-1.000000000000000000e+00,1.000000000000000000e+00,4.000000000000000000e+00,-3.000000000000000000e+00,5.324096679687500000e-01,1.637573242187500000e-01,-8.302001953125000000e-01,2.258300781250000000e-02
0.000000000000000000e+00,-3.000000000000000000e+00,-9.000000000000000000e+00,2.000000000000000000e+00,2.000000000000000000e+00,0.000000000000000000e+00,5.000000000000000000e+00,0.000000000000000000e+00,5.324096679687500000e-01,1.637573242187500000e-01,-8.302001953125000000e-01,2.258300781250000000e-02
-1.000000000000000000e+00,-4.000000000000000000e+00,1.200000000000000000e+01,1.000000000000000000e+00,-1.000000000000000000e+00,-2.000000000000000000e+00,-3.000000000000000000e+00,-3.000000000000000000e+00,5.324096679687500000e-01,1.637573242187500000e-01,-8.302001953125000000e-01,2.258300781250000000e-02
1.000000000000000000e+00,-6.000000000000000000e+00,-1.400000000000000000e+01,-6.000000000000000000e+00,-2.000000000000000000e+00,-4.000000000000000000e+00,1.000000000000000000e+00,5.000000000000000000e+00,5.324096679687500000e-01,1.637573242187500000e-01,-8.302001953125000000e-01,2.258300781250000000e-02
-9.000000000000000000e+00,-1.000000000000000000e+00,4.000000000000000000e+00,9.000000000000000000e+00,-1.000000000000000000e+00,1.000000000000000000e+00,5.000000000000000000e+00,1.000000000000000000e+00,5.324096679687500000e-01,1.637573242187500000e-01,-8.302001953125000000e-01,2.258300781250000000e-02
4.000000000000000000e+00,3.000000000000000000e+00,1.300000000000000000e+01,-5.000000000000000000e+00,4.000000000000000000e+00,-2.000000000000000000e+00,5.000000000000000000e+00,-3.000000000000000000e+00,5.322875976562500000e-01,1.637573242187500000e-01,-8.302612304687500000e-01,2.282714843750000000e-02
-5.000000000000000000e+00,-3.000000000000000000e+00,-1.300000000000000000e+01,3.000000000000000000e+00,-1.000000000000000000e+00,-2.000000000000000000e+00,1.000000000000000000e+00,-6.000000000000000000e+00,5.322875976562500000e-01,1.637573242187500000e-01,-8.302612304687500000e-01,2.282714843750000000e-02
2.000000000000000000e+00,3.000000000000000000e+00,7.000000000000000000e+00,-5.000000000000000000e+00,3.000000000000000000e+00,-1.000000000000000000e+00,-2.000000000000000000e+00,-2.000000000000000000e+00,5.322875976562500000e-01,1.637573242187500000e-01,-8.302612304687500000e-01,2.282714843750000000e-02
1.000000000000000000e+00,-1.000000000000000000e+00,-4.000000000000000000e+00,-1.000000000000000000e+00,-4.000000000000000000e+00,2.000000000000000000e+00,5.000000000000000000e+00,-4.000000000000000000e+00,5.322875976562500000e-01,1.637573242187500000e-01,-8.302612304687500000e-01,2.282714843750000000e-02
-1.000000000000000000e+00,-6.000000000000000000e+00,8.000000000000000000e+00,-4.000000000000000000e+00,-1.000000000000000000e+00,0.000000000000000000e+00,-3.000000000000000000e+00,0.000000000000000000e+00,5.324096679687500000e-01,1.634521484375000000e-01,-8.302001953125000000e-01,2.301025390625000000e-02
-1.000000000000000000e+00,1.000000000000000000e+00,-4.000000000000000000e+00,-7.000000000000000000e+00,4.000000000000000000e+00,3.000000000000000000e+00,1.000000000000000000e+00,-2.000000000000000000e+00,5.324096679687500000e-01,1.634521484375000000e-01,-8.302001953125000000e-01,2.301025390625000000e-02
-1.400000000000000000e+01,-5.000000000000000000e+00,-1.000000000000000000e+00,4.000000000000000000e+00,0.000000000000000000e+00,1.000000000000000000e+00,-3.000000000000000000e+00,-1.000000000000000000e+00,5.324096679687500000e-01,1.634521484375000000e-01,-8.302001953125000000e-01,2.301025390625000000e-02
5.000000000000000000e+00,1.000000000000000000e+00,-1.000000000000000000e+00,5.000000000000000000e+00,-2.000000000000000000e+00,-1.000000000000000000e+00,0.000000000000000000e+00,0.000000000000000000e+00,5.324096679687500000e-01,1.634521484375000000e-01,-8.302001953125000000e-01,2.301025390625000000e-02
-6.000000000000000000e+00,0.000000000000000000e+00,-3.000000000000000000e+00,-9.000000000000000000e+00,-3.000000000000000000e+00,1.000000000000000000e+00,-5.000000000000000000e+00,1.000000000000000000e+00,5.327758789062500000e-01,1.630859375000000000e-01,-8.300781250000000000e-01,2.325439453125000000e-02
3.000000000000000000e+00,1.000000000000000000e+00,-2.000000000000000000e+00,-4.000000000000000000e+00,6.000000000000000000e+00,-1.000000000000000000e+00,-3.000000000000000000e+00,0.000000000000000000e+00,5.327758789062500000e-01,1.630859375000000000e-01,-8.300781250000000000e-01,2.325439453125000000e-02
0.000000000000000000e+00,-1.000000000000000000e+00,-2.000000000000000000e+00,5.000000000000000000e+00,0.000000000000000000e+00,-2.000000000000000000e+00,-6.000000000000000000e+00,-3.000000000000000000e+00,5.327758789062500000e-01,1.630859375000000000e-01,-8.300781250000000000e-01,2.325439453125000000e-02
-2.000000000000000000e+00,-4.000000000000000000e+00,-1.000000000000000000e+01,2.000000000000000000e+00,-3.000000000000000000e+00,0.000000000000000000e+00,4.000000000000000000e+00,3.000000000000000000e+00,5.327758789062500000e-01,1.630859375000000000e-01,-8.300781250000000000e-01,2.325439453125000000e-02
-1.000000000000000000e+00,-1.000000000000000000e+00,1.700000000000000000e+01,8.000000000000000000e+00,-1.300000000000000000e+01,-4.000000000000000000e+00,-2.000000000000000000e+00,-2.000000000000000000e+00,5.330810546875000000e-01,1.627197265625000000e-01,-8.299560546875000000e-01,2.355957031250000000e-02
-2.000000000000000000e+00,-1.000000000000000000e+00,3.000000000000000000e+00,-8.000000000000000000e+00,7.000000000000000000e+00,1.000000000000000000e+00,0.000000000000000000e+00,5.000000000000000000e+00,5.330810546875000000e-01,1.627197265625000000e-01,-8.299560546875000000e-01,2.355957031250000000e-02
2.000000000000000000e+00,-3.000000000000000000e+00,-2.000000000000000000e+01,-4.000000000000000000e+00,0.000000000000000000e+00,1.000000000000000000e+00,5.000000000000000000e+00,0.000000000000000000e+00,5.330810546875000000e-01,1.627197265625000000e-01,-8.299560546875000000e-01,2.355957031250000000e-02
7.000000000000000000e+00,7.000000000000000000e+00,1.300000000000000000e+01,-5.000000000000000000e+00,-8.000000000000000000e+00,-3.000000000000000000e+00,-2.000000000000000000e+00,-4.000000000000000000e+00,5.330810546875000000e-01,1.627197265625000000e-01,-8.299560546875000000e-01,2.355957031250000000e-02
-1.000000000000000000e+00,-4.000000000000000000e+00,-1.000000000000000000e+01,1.100000000000000000e+01,7.000000000000000000e+00,0.000000000000000000e+00,1.000000000000000000e+00,-1.000000000000000000e+00,5.331420898437500000e-01,1.624145507812500000e-01,-8.299560546875000000e-01,2.374267578125000000e-02
-6.000000000000000000e+00,-5.000000000000000000e+00,-3.000000000000000000e+00,5.000000000000000000e+00,-4.000000000000000000e+00,0.000000000000000000e+00,6.000000000000000000e+00,-3.000000000000000000e+00,5.331420898437500000e-01,1.624145507812500000e-01,-8.299560546875000000e-01,2.374267578125000000e-02
3.000000000000000000e+00,0.000000000000000000e+00,8.000000000000000000e+00,-1.100000000000000000e+01,-4.000000000000000000e+00,-2.000000000000000000e+00,7.000000000000000000e+00,-5.000000000000000000e+00,5.331420898437500000e-01,1.624145507812500000e-01,-8.299560546875000000e-01,2.374267578125000000e-02
-1.100000000000000000e+01,-3.000000000000000000e+00,1.000000000000000000e+00,1.200000000000000000e+01,7.000000000000000000e+00,2.000000000000000000e+00,2.000000000000000000e+00,1.000000000000000000e+00,5.331420898437500000e-01,1.624145507812500000e-01,-8.299560546875000000e-01,2.374267578125000000e-02
4.000000000000000000e+00,-1.000000000000000000e+00,-3.000000000000000000e+00,-1.500000000000000000e+01,-3.000000000000000000e+00,-2.000000000000000000e+00,-1.000000000000000000e+00,-1.000000000000000000e+00,5.330810546875000000e-01,1.621093750000000000e-01,-8.300781250000000000e-01,2.374267578125000000e-02
-1.000000000000000000e+00,-1.000000000000000000e+00,0.000000000000000000e+00,2.000000000000000000e+00,-1.100000000000000000e+01,-5.000000000000000000e+00,-6.000000000000000000e+00,-1.000000000000000000e+00,5.330810546875000000e-01,1.621093750000000000e-01,-8.300781250000000000e-01,2.374267578125000000e-02
3.000000000000000000e+00,-1.000000000000000000e+00,-2.000000000000000000e+00,-4.000000000000000000e+00,4.000000000000000000e+00,2.000000000000000000e+00,1.000000000000000000e+00,2.000000000000000000e+00,5.330810546875000000e-01,1.621093750000000000e-01,-8.300781250000000000e-01,2.374267578125000000e-02
2.000000000000000000e+00,0.000000000000000000e+00,-5.000000000000000000e+00,-5.000000000000000000e+00,-3.000000000000000000e+00,-2.000000000000000000e+00,-2.000000000000000000e+00,-4.000000000000000000e+00,5.330810546875000000e-01,1.621093750000000000e-01,-8.300781250000000000e-01,2.374267578125000000e-02
0.000000000000000000e+00,0.000000000000000000e+00,1.000000000000000000e+00,-3.000000000000000000e+00,4.000000000000000000e+00,3.000000000000000000e+00,4.000000000000000000e+00,1.000000000000000000e+00,5.330200195312500000e-01,1.621093750000000000e-01,-8.300781250000000000e-01,2.374267578125000000e-02
-1.000000000000000000e+00,0.000000000000000000e+00,5.000000000000000000e+00,7.000000000000000000e+00,-8.000000000000000000e+00,-4.000000000000000000e+00,-7.000000000000000000e+00,2.000000000000000000e+00,5.330200195312500000e-01,1.621093750000000000e-01,-8.300781250000000000e-01,2.374267578125000000e-02
2.000000000000000000e+00,-5.000000000000000000e+00,-1.600000000000000000e+01,-1.200000000000000000e+01,-1.000000000000000000e+00,0.000000000000000000e+00,-8.000000000000000000e+00,-1.000000000000000000e+00,5.330200195312500000e-01,1.621093750000000000e-01,-8.300781250000000000e-01,2.374267578125000000e-02
-4.000000000000000000e+00,2.000000000000000000e+00,-6.000000000000000000e+00,-8.000000000000000000e+00,2.000000000000000000e+00,0.000000000000000000e+00,-1.000000000000000000e+00,2.000000000000000000e+00,5.330200195312500000e-01,1.621093750000000000e-01,-8.300781250000000000e-01,2.374267578125000000e-02
0.000000000000000000e+00,-2.000000000000000000e+00,1.000000000000000000e+00,7.000000000000000000e+00,5.000000000000000000e+00,-2.000000000000000000e+00,-5.000000000000000000e+00,-3.000000000000000000e+00,5.330200195312500000e-01,1.621093750000000000e-01,-8.300781250000000000e-01,2.374267578125000000e-02
3.000000000000000000e+00,1.000000000000000000e+00,4.000000000000000000e+00,0.000000000000000000e+00,-1.000000000000000000e+00,0.000000000000000000e+00,0.000000000000000000e+00,-2.000000000000000000e+00,5.330200195312500000e-01,1.621093750000000000e-01,-8.300781250000000000e-01,2.374267578125000000e-02
-1.000000000000000000e+00,2.000000000000000000e+00,5.000000000000000000e+00,4.000000000000000000e+00,2.000000000000000000e+00,-3.000000000000000000e+00,-6.000000000000000000e+00,2.000000000000000000e+00,5.330200195312500000e-01,1.621093750000000000e-01,-8.300781250000000000e-01,2.374267578125000000e-02
0.000000000000000000e+00,-1.000000000000000000e+00,6.000000000000000000e+00,1.000000000000000000e+00,0.000000000000000000e+00,1.000000000000000000e+00,3.000000000000000000e+00,-2.000000000000000000e+00,5.330200195312500000e-01,1.621093750000000000e-01,-8.300781250000000000e-01,2.374267578125000000e-02
8.000000000000000000e+00,5.000000000000000000e+00,-3.000000000000000000e+00,-5.000000000000000000e+00,-9.000000000000000000e+00,-3.000000000000000000e+00,0.000000000000000000e+00,0.000000000000000000e+00,5.330200195312500000e-01,1.621093750000000000e-01,-8.300781250000000000e-01,2.374267578125000000e-02
-1.200000000000000000e+01,-1.200000000000000000e+01,-2.200000000000000000e+01,2.000000000000000000e+00,4.000000000000000000e+00,-3.000000000000000000e+00,-7.000000000000000000e+00,-2.000000000000000000e+00,5.330200195312500000e-01,1.621093750000000000e-01,-8.300781250000000000e-01,2.374267578125000000e-02
-4.000000000000000000e+00,-2.000000000000000000e+00,3.000000000000000000e+00,-3.000000000000000000e+00,-3.000000000000000000e+00,3.000000000000000000e+00,1.700000000000000000e+01,-1.000000000000000000e+00,5.330200195312500000e-01,1.621093750000000000e-01,-8.300781250000000000e-01,2.374267578125000000e-02
0.000000000000000000e+00,-5.000000000000000000e+00,-4.000000000000000000e+00,0.000000000000000000e+00,7.000000000000000000e+00,0.000000000000000000e+00,-5.000000000000000000e+00,-3.000000000000000000e+00,5.330200195312500000e-01,1.621093750000000000e-01,-8.300781250000000000e-01,2.374267578125000000e-02
-4.000000000000000000e+00,4.000000000000000000e+00,1.100000000000000000e+01,1.500000000000000000e+01,-5.000000000000000000e+00,-1.000000000000000000e+00,-1.000000000000000000e+00,2.000000000000000000e+00,5.328369140625000000e-01,1.620483398437500000e-01,-8.302001953125000000e-01,2.355957031250000000e-02
4.000000000000000000e+00,2.000000000000000000e+00,5.000000000000000000e+00,-2.100000000000000000e+01,-7.000000000000000000e+00,-2.000000000000000000e+00,-3.000000000000000000e+00,0.000000000000000000e+00,5.328369140625000000e-01,1.620483398437500000e-01,-8.302001953125000000e-01,2.355957031250000000e-02
-3.000000000000000000e+00,-3.000000000000000000e+00,-1.200000000000000000e+01,7.000000000000000000e+00,-2.000000000000000000e+00,-3.000000000000000000e+00,-5.000000000000000000e+00,-5.000000000000000000e+00,5.328369140625000000e-01,1.620483398437500000e-01,-8.302001953125000000e-01,2.355957031250000000e-02
1.000000000000000000e+00,-2.000000000000000000e+00,-4.000000000000000000e+00,-3.000000000000000000e+00,-1.000000000000000000e+00,0.000000000000000000e+00,-3.000000000000000000e+00,3.000000000000000000e+00,5.328369140625000000e-01,1.620483398437500000e-01,-8.302001953125000000e-01,2.355957031250000000e-02
2.000000000000000000e+00,1.000000000000000000e+00,1.500000000000000000e+01,-1.100000000000000000e+01,3.000000000000000000e+00,0.000000000000000000e+00,4.000000000000000000e+00,-1.000000000000000000e+00,5.325927734375000000e-01,1.622314453125000000e-01,-8.303833007812500000e-01,2.331542968750000000e-02
1.000000000000000000e+00,1.000000000000000000e+00,2.000000000000000000e+00,0.000000000000000000e+00,-1.000000000000000000e+00,3.000000000000000000e+00,1.000000000000000000e+00,3.000000000000000000e+00,5.325927734375000000e-01,1.622314453125000000e-01,-8.303833007812500000e-01,2.331542968750000000e-02
0.000000000000000000e+00,0.000000000000000000e+00,-1.000000000000000000e+00,-3.000000000000000000e+00,-4.000000000000000000e+00,-4.000000000000000000e+00,-3.000000000000000000e+00,0.000000000000000000e+00,5.325927734375000000e-01,1.622314453125000000e-01,-8.303833007812500000e-01,2.331542968750000000e-02
0.000000000000000000e+00,0.000000000000000000e+00,0.000000000000000000e+00,7.000000000000000000e+00,-1.100000000000000000e+01,-4.000000000000000000e+00,-3.000000000000000000e+00,-2.000000000000000000e+00,5.325927734375000000e-01,1.622314453125000000e-01,-8.303833007812500000e-01,2.331542968750000000e-02
0.000000000000000000e+00,-3.000000000000000000e+00,-1.200000000000000000e+01,-7.000000000000000000e+00,8.000000000000000000e+00,-3.000000000000000000e+00,-1.000000000000000000e+01,-2.000000000000000000e+00,5.322265625000000000e-01,1.624755859375000000e-01,-8.305053710937500000e-01,2.301025390625000000e-02
-8.000000000000000000e+00,-1.000000000000000000e+00,-3.000000000000000000e+00,-2.000000000000000000e+00,-6.000000000000000000e+00,0.000000000000000000e+00,2.000000000000000000e+00,0.000000000000000000e+00,5.322265625000000000e-01,1.624755859375000000e-01,-8.305053710937500000e-01,2.301025390625000000e-02
7.000000000000000000e+00,2.000000000000000000e+00,1.200000000000000000e+01,5.000000000000000000e+00,6.000000000000000000e+00,2.000000000000000000e+00,-3.000000000000000000e+00,0.000000000000000000e+00,5.322265625000000000e-01,1.624755859375000000e-01,-8.305053710937500000e-01,2.301025390625000000e-02
0.000000000000000000e+00,1.000000000000000000e+00,-1.000000000000000000e+00,-2.000000000000000000e+00,-4.000000000000000000e+00,-1.000000000000000000e+00,2.000000000000000000e+00,0.000000000000000000e+00,5.322265625000000000e-01,1.624755859375000000e-01,-8.305053710937500000e-01,2.301025390625000000e-02
-2.000000000000000000e+00,-3.000000000000000000e+00,0.000000000000000000e+00,-3.000000000000000000e+00,-2.000000000000000000e+00,1.000000000000000000e+00,-1.000000000000000000e+00,-2.000000000000000000e+00,5.317993164062500000e-01,1.627197265625000000e-01,-8.308105468750000000e-01,2.301025390625000000e-02
-3.000000000000000000e+00,-2.000000000000000000e+00,2.000000000000000000e+00,2.000000000000000000e+00,3.000000000000000000e+00,0.000000000000000000e+00,-4.000000000000000000e+00,-4.000000000000000000e+00,5.317993164062500000e-01,1.627197265625000000e-01,-8.308105468750000000e-01,2.301025390625000000e-02
-2.000000000000000000e+00,1.000000000000000000e+00,6.000000000000000000e+00,-1.000000000000000000e+00,-8.000000000000000000e+00,-1.000000000000000000e+00,8.000000000000000000e+00,-3.000000000000000000e+00,5.317993164062500000e-01,1.627197265625000000e-01,-8.308105468750000000e-01,2.301025390625000000e-02
2.000000000000000000e+00,-1.000000000000000000e+00,4.000000000000000000e+00,-1.000000000000000000e+01,-7.000000000000000000e+00,-1.000000000000000000e+00,-4.000000000000000000e+00,-2.000000000000000000e+00,5.317993164062500000e-01,1.627197265625000000e-01,-8.308105468750000000e-01,2.301025390625000000e-02
-1.100000000000000000e+01,-5.000000000000000000e+00,-1.200000000000000000e+01,9.000000000000000000e+00,1.700000000000000000e+01,1.000000000000000000e+00,3.000000000000000000e+00,-1.000000000000000000e+00,5.313110351562500000e-01,1.630859375000000000e-01,-8.309936523437500000e-01,2.307128906250000000e-02
4.000000000000000000e+00,2.000000000000000000e+00,1.000000000000000000e+00,-9.000000000000000000e+00,-6.000000000000000000e+00,1.000000000000000000e+00,7.000000000000000000e+00,-1.000000000000000000e+00,5.313110351562500000e-01,1.630859375000000000e-01,-8.309936523437500000e-01,2.307128906250000000e-02
-1.000000000000000000e+00,-2.000000000000000000e+00,3.000000000000000000e+00,1.500000000000000000e+01,4.000000000000000000e+00,-2.000000000000000000e+00,-8.000000000000000000e+00,0.000000000000000000e+00,5.313110351562500000e-01,1.630859375000000000e-01,-8.309936523437500000e-01,2.307128906250000000e-02
-1.000000000000000000e+00,-2.000000000000000000e+00,-2.000000000000000000e+00,-5.000000000000000000e+00,-5.000000000000000000e+00,-4.000000000000000000e+00,-7.000000000000000000e+00,-1.000000000000000000e+00,5.313110351562500000e-01,1.630859375000000000e-01,-8.309936523437500000e-01,2.307128906250000000e-02
9.000000000000000000e+00,-2.000000000000000000e+00,-1.100000000000000000e+01,-1.900000000000000000e+01,-2.000000000000000000e+00,-4.000000000000000000e+00,2.000000000000000000e+00,4.000000000000000000e+00,5.309448242187500000e-01,1.633911132812500000e-01,-8.311767578125000000e-01,2.288818359375000000e-02
-6.000000000000000000e+00,0.000000000000000000e+00,6.000000000000000000e+00,-3.000000000000000000e+00,-6.000000000000000000e+00,-2.000000000000000000e+00,-8.000000000000000000e+00,-2.000000000000000000e+00,5.309448242187500000e-01,1.633911132812500000e-01,-8.311767578125000000e-01,2.288818359375000000e-02
-3.000000000000000000e+00,1.000000000000000000e+00,1.000000000000000000e+00,-1.300000000000000000e+01,-3.000000000000000000e+00,-1.000000000000000000e+00,-1.000000000000000000e+00,1.000000000000000000e+00,5.309448242187500000e-01,1.633911132812500000e-01,-8.311767578125000000e-01,2.288818359375000000e-02
-2.000000000000000000e+00,-6.000000000000000000e+00,-8.000000000000000000e+00,2.300000000000000000e+01,1.200000000000000000e+01,-2.000000000000000000e+00,0.000000000000000000e+00,-2.000000000000000000e+00,5.309448242187500000e-01,1.633911132812500000e-01,-8.311767578125000000e-01,2.288818359375000000e-02
-6.000000000000000000e+00,-1.000000000000000000e+00,-3.000000000000000000e+00,-4.000000000000000000e+00,-7.000000000000000000e+00,-1.000000000000000000e+00,-2.000000000000000000e+00,-3.000000000000000000e+00,5.305175781250000000e-01,1.636352539062500000e-01,-8.314208984375000000e-01,2.270507812500000000e-02
3.000000000000000000e+00,-1.000000000000000000e+00,-1.000000000000000000e+00,8.000000000000000000e+00,2.000000000000000000e+00,-1.000000000000000000e+00,1.000000000000000000e+00,-2.000000000000000000e+00,5.305175781250000000e-01,1.636352539062500000e-01,-8.314208984375000000e-01,2.270507812500000000e-02
1.000000000000000000e+00,1.000000000000000000e+00,-1.000000000000000000e+00,-1.700000000000000000e+01,-9.000000000000000000e+00,-5.000000000000000000e+00,-4.000000000000000000e+00,0.000000000000000000e+00,5.305175781250000000e-01,1.636352539062500000e-01,-8.314208984375000000e-01,2.270507812500000000e-02
-3.000000000000000000e+00,1.000000000000000000e+00,-1.000000000000000000e+00,6.000000000000000000e+00,1.000000000000000000e+00,1.000000000000000000e+00,5.000000000000000000e+00,-1.000000000000000000e+00,5.305175781250000000e-01,1.636352539062500000e-01,-8.314208984375000000e-01,2.270507812500000000e-02
-3.000000000000000000e+00,-4.000000000000000000e+00,6.000000000000000000e+00,1.000000000000000000e+01,-1.800000000000000000e+01,-1.000000000000000000e+00,-2.000000000000000000e+00,-3.000000000000000000e+00,5.301513671875000000e-01,1.638793945312500000e-01,-8.316040039062500000e-01,2.270507812500000000e-02
5.000000000000000000e+00,-3.000000000000000000e+00,-7.000000000000000000e+00,-3.000000000000000000e+00,2.000000000000000000e+01,2.000000000000000000e+00,-2.000000000000000000e+00,1.000000000000000000e+00,5.301513671875000000e-01,1.638793945312500000e-01,-8.316040039062500000e-01,2.270507812500000000e-02
-2.000000000000000000e+00,-3.000000000000000000e+00,6.000000000000000000e+00,3.000000000000000000e+00,4.000000000000000000e+00,3.000000000000000000e+00,0.000000000000000000e+00,-1.000000000000000000e+00,5.301513671875000000e-01,1.638793945312500000e-01,-8.316040039062500000e-01,2.270507812500000000e-02
-1.000000000000000000e+01,0.000000000000000000e+00,-6.000000000000000000e+00,3.000000000000000000e+00,-2.000000000000000000e+00,-4.000000000000000000e+00,-4.000000000000000000e+00,-5.000000000000000000e+00,5.301513671875000000e-01,1.638793945312500000e-01,-8.316040039062500000e-01,2.270507812500000000e-02
-2.000000000000000000e+00,-1.000000000000000000e+00,8.000000000000000000e+00,-1.200000000000000000e+01,-1.000000000000000000e+00,1.000000000000000000e+00,5.000000000000000000e+00,0.000000000000000000e+00,5.297241210937500000e-01,1.641845703125000000e-01,-8.318481445312500000e-01,2.288818359375000000e-02
1.000000000000000000e+00,-1.000000000000000000e+00,-5.000000000000000000e+00,-3.000000000000000000e+00,-5.000000000000000000e+00,-2.000000000000000000e+00,-4.000000000000000000e+00,-1.000000000000000000e+00,5.297241210937500000e-01,1.641845703125000000e-01,-8.318481445312500000e-01,2.288818359375000000e-02
4.000000000000000000e+00,1.000000000000000000e+00,-1.000000000000000000e+00,1.000000000000000000e+00,-1.000000000000000000e+00,0.000000000000000000e+00,-4.000000000000000000e+00,-4.000000000000000000e+00,5.297241210937500000e-01,1.641845703125000000e-01,-8.318481445312500000e-01,2.288818359375000000e-02
-5.000000000000000000e+00,-1.000000000000000000e+00,3.000000000000000000e+00,-4.000000000000000000e+00,0.000000000000000000e+00,-2.000000000000000000e+00,3.000000000000000000e+00,4.000000000000000000e+00,5.297241210937500000e-01,1.641845703125000000e-01,-8.318481445312500000e-01,2.288818359375000000e-02
-4.000000000000000000e+00,-7.000000000000000000e+00,-1.100000000000000000e+01,1.300000000000000000e+01,9.000000000000000000e+00,1.000000000000000000e+00,-3.000000000000000000e+00,-1.000000000000000000e+00,5.292358398437500000e-01,1.645507812500000000e-01,-8.320922851562500000e-01,2.294921875000000000e-02
-1.000000000000000000e+00,0.000000000000000000e+00,8.000000000000000000e+00,3.000000000000000000e+00,-6.000000000000000000e+00,-1.000000000000000000e+00,3.000000000000000000e+00,3.000000000000000000e+00,5.292358398437500000e-01,1.645507812500000000e-01,-8.320922851562500000e-01,2.294921875000000000e-02
-2.000000000000000000e+00,-3.000000000000000000e+00,-4.000000000000000000e+00,-3.000000000000000000e+00,0.000000000000000000e+00,-7.000000000000000000e+00,-2.000000000000000000e+01,-2.000000000000000000e+00,5.292358398437500000e-01,1.645507812500000000e-01,-8.320922851562500000e-01,2.294921875000000000e-02
1.000000000000000000e+00,3.000000000000000000e+00,4.000000000000000000e+00,-2.000000000000000000e+00,-9.000000000000000000e+00,-1.000000000000000000e+00,-1.000000000000000000e+00,-1.000000000000000000e+00,5.292358398437500000e-01,1.645507812500000000e-01,-8.320922851562500000e-01,2.294921875000000000e-02
-1.000000000000000000e+00,8.000000000000000000e+00,4.000000000000000000e+00,1.000000000000000000e+00,8.000000000000000000e+00,3.000000000000000000e+00,2.000000000000000000e+00,-1.000000000000000000e+00,5.289916992187500000e-01,1.647949218750000000e-01,-8.321533203125000000e-01,2.288818359375000000e-02
0.000000000000000000e+00,-7.000000000000000000e+00,-1.900000000000000000e+01,4.000000000000000000e+00,9.000000000000000000e+00,1.000000000000000000e+00,-1.000000000000000000e+00,-1.000000000000000000e+00,5.289916992187500000e-01,1.647949218750000000e-01,-8.321533203125000000e-01,2.288818359375000000e-02
-4.000000000000000000e+00,-4.000000000000000000e+00,9.000000000000000000e+00,-1.000000000000000000e+00,1.000000000000000000e+00,0.000000000000000000e+00,1.000000000000000000e+00,-1.000000000000000000e+00,5.289916992187500000e-01,1.647949218750000000e-01,-8.321533203125000000e-01,2.288818359375000000e-02
2.000000000000000000e+00,-4.000000000000000000e+00,-1.000000000000000000e+01,-6.000000000000000000e+00,-7.000000000000000000e+00,-4.000000000000000000e+00,-3.000000000000000000e+00,-1.000000000000000000e+00,5.289916992187500000e-01,1.647949218750000000e-01,-8.321533203125000000e-01,2.288818359375000000e-02
0.000000000000000000e+00,-1.000000000000000000e+00,-2.000000000000000000e+00,5.000000000000000000e+00,2.000000000000000000e+00,-4.000000000000000000e+00,-2.000000000000000000e+00,-1.000000000000000000e+00,5.288696289062500000e-01,1.648559570312500000e-01,-8.322143554687500000e-01,2.282714843750000000e-02
-3.000000000000000000e+00,2.000000000000000000e+00,0.000000000000000000e+00,-3.000000000000000000e+00,-7.000000000000000000e+00,-1.000000000000000000e+00,-1.000000000000000000e+00,-4.000000000000000000e+00,5.288696289062500000e-01,1.648559570312500000e-01,-8.322143554687500000e-01,2.282714843750000000e-02
0.000000000000000000e+00,-3.000000000000000000e+00,-6.000000000000000000e+00,1.000000000000000000e+00,-2.000000000000000000e+00,0.000000000000000000e+00,1.000000000000000000e+00,-2.000000000000000000e+00,5.288696289062500000e-01,1.648559570312500000e-01,-8.322143554687500000e-01,2.282714843750000000e-02
5.000000000000000000e+00,1.000000000000000000e+00,1.000000000000000000e+00,-7.000000000000000000e+00,-3.000000000000000000e+00,-3.000000000000000000e+00,2.000000000000000000e+00,3.000000000000000000e+00,5.288696289062500000e-01,1.648559570312500000e-01,-8.322143554687500000e-01,2.282714843750000000e-02
-7.000000000000000000e+00,-1.000000000000000000e+00,-5.000000000000000000e+00,-1.000000000000000000e+01,-1.700000000000000000e+01,-6.000000000000000000e+00,-1.100000000000000000e+01,-4.000000000000000000e+00,5.287475585937500000e-01,1.649780273437500000e-01,-8.322753906250000000e-01,2.294921875000000000e-02
-1.000000000000000000e+00,-4.000000000000000000e+00,5.000000000000000000e+00,2.500000000000000000e+01,2.100000000000000000e+01,4.000000000000000000e+00,2.000000000000000000e+00,1.000000000000000000e+00,5.287475585937500000e-01,1.649780273437500000e-01,-8.322753906250000000e-01,2.294921875000000000e-02
-2.000000000000000000e+00,1.000000000000000000e+00,6.000000000000000000e+00,-1.000000000000000000e+00,3.000000000000000000e+00,2.000000000000000000e+00,5.000000000000000000e+00,-1.000000000000000000e+00,5.287475585937500000e-01,1.649780273437500000e-01,-8.322753906250000000e-01,2.294921875000000000e-02
2.000000000000000000e+00,-1.000000000000000000e+00,-3.000000000000000000e+00,-5.000000000000000000e+00,0.000000000000000000e+00,6.000000000000000000e+00,5.000000000000000000e+00,2.000000000000000000e+00,5.287475585937500000e-01,1.649780273437500000e-01,-8.322753906250000000e-01,2.294921875000000000e-02
1.000000000000000000e+00,0.000000000000000000e+00,-4.000000000000000000e+00,-1.000000000000000000e+00,1.000000000000000000e+00,-4.000000000000000000e+00,-1.100000000000000000e+01,0.000000000000000000e+00,5.285034179687500000e-01,1.651000976562500000e-01,-8.323974609375000000e-01,2.313232421875000000e-02
1.000000000000000000e+00,1.000000000000000000e+00,0.000000000000000000e+00,-6.000000000000000000e+00,-1.700000000000000000e+01,-6.000000000000000000e+00,0.000000000000000000e+00,-1.000000000000000000e+00,5.285034179687500000e-01,1.651000976562500000e-01,-8.323974609375000000e-01,2.313232421875000000e-02
-7.000000000000000000e+00,-2.000000000000000000e+00,-4.000000000000000000e+00,-2.000000000000000000e+00,-5.000000000000000000e+00,-2.000000000000000000e+00,1.000000000000000000e+00,0.000000000000000000e+00,5.285034179687500000e-01,1.651000976562500000e-01,-8.323974609375000000e-01,2.313232421875000000e-02
2.000000000000000000e+00,-2.000000000000000000e+00,1.000000000000000000e+00,-1.000000000000000000e+00,7.000000000000000000e+00,-1.000000000000000000e+00,-8.000000000000000000e+00,-4.000000000000000000e+00,5.285034179687500000e-01,1.651000976562500000e-01,-8.323974609375000000e-01,2.313232421875000000e-02
2.000000000000000000e+00,1.000000000000000000e+00,-2.000000000000000000e+00,8.000000000000000000e+00,-7.000000000000000000e+00,-4.000000000000000000e+00,4.000000000000000000e+00,1.000000000000000000e+00,5.283203125000000000e-01,1.654052734375000000e-01,-8.324584960937500000e-01,2.325439453125000000e-02
3.000000000000000000e+00,5.000000000000000000e+00,1.200000000000000000e+01,-1.700000000000000000e+01,-8.000000000000000000e+00,-2.000000000000000000e+00,-1.000000000000000000e+01,-3.000000000000000000e+00,5.283203125000000000e-01,1.654052734375000000e-01,-8.324584960937500000e-01,2.325439453125000000e-02
5.000000000000000000e+00,0.000000000000000000e+00,6.000000000000000000e+00,-2.400000000000000000e+01,-1.500000000000000000e+01,0.000000000000000000e+00,7.000000000000000000e+00,4.000000000000000000e+00,5.283203125000000000e-01,1.654052734375000000e-01,-8.324584960937500000e-01,2.325439453125000000e-02
-8.000000000000000000e+00,-8.000000000000000000e+00,-1.800000000000000000e+01,2.700000000000000000e+01,2.500000000000000000e+01,7.000000000000000000e+00,7.000000000000000000e+00,-1.000000000000000000e+00,5.283203125000000000e-01,1.654052734375000000e-01,-8.324584960937500000e-01,2.325439453125000000e-02
-1.000000000000000000e+00,-2.000000000000000000e+00,-4.000000000000000000e+00,-7.000000000000000000e+00,1.200000000000000000e+01,3.000000000000000000e+00,1.000000000000000000e+00,1.000000000000000000e+00,5.280151367187500000e-01,1.655273437500000000e-01,-8.326416015625000000e-01,2.331542968750000000e-02
-2.000000000000000000e+00,-1.000000000000000000e+00,1.100000000000000000e+01,7.000000000000000000e+00,-4.000000000000000000e+00,1.000000000000000000e+00,3.000000000000000000e+00,-1.000000000000000000e+00,5.280151367187500000e-01,1.655273437500000000e-01,-8.326416015625000000e-01,2.331542968750000000e-02
4.000000000000000000e+00,3.000000000000000000e+00,-4.000000000000000000e+00,-5.000000000000000000e+00,-3.000000000000000000e+00,-4.000000000000000000e+00,-6.000000000000000000e+00,-1.000000000000000000e+00,5.280151367187500000e-01,1.655273437500000000e-01,-8.326416015625000000e-01,2.331542968750000000e-02
-1.000000000000000000e+00,-2.000000000000000000e+00,1.000000000000000000e+00,-1.200000000000000000e+01,-1.100000000000000000e+01,-6.000000000000000000e+00,-3.000000000000000000e+00,-2.000000000000000000e+00,5.280151367187500000e-01,1.655273437500000000e-01,-8.326416015625000000e-01,2.331542968750000000e-02
-1.000000000000000000e+00,0.000000000000000000e+00,2.000000000000000000e+00,6.000000000000000000e+00,-3.000000000000000000e+00,0.000000000000000000e+00,2.000000000000000000e+00,-3.000000000000000000e+00,5.278320312500000000e-01,1.657104492187500000e-01,-8.327026367187500000e-01,2.325439453125000000e-02
1.000000000000000000e+00,0.000000000000000000e+00,-5.000000000000000000e+00,-4.000000000000000000e+00,2.000000000000000000e+00,-2.000000000000000000e+00,-4.000000000000000000e+00,-1.000000000000000000e+00,5.278320312500000000e-01,1.657104492187500000e-01,-8.327026367187500000e-01,2.325439453125000000e-02
-2.000000000000000000e+00,0.000000000000000000e+00,-7.000000000000000000e+00,9.000000000000000000e+00,-1.000000000000000000e+00,-1.000000000000000000e+00,-4.000000000000000000e+00,0.000000000000000000e+00,5.278320312500000000e-01,1.657104492187500000e-01,-8.327026367187500000e-01,2.325439453125000000e-02
-5.000000000000000000e+00,-1.000000000000000000e+00,4.000000000000000000e+00,-7.000000000000000000e+00,-1.500000000000000000e+01,-7.000000000000000000e+00,-2.000000000000000000e+00,-5.000000000000000000e+00,5.278320312500000000e-01,1.657104492187500000e-01,-8.327026367187500000e-01,2.325439453125000000e-02
-2.000000000000000000e+00,1.000000000000000000e+00,1.000000000000000000e+00,1.100000000000000000e+01,2.200000000000000000e+01,3.000000000000000000e+00,-4.000000000000000000e+00,4.000000000000000000e+00,5.274658203125000000e-01,1.661987304687500000e-01,-8.328247070312500000e-01,2.343750000000000000e-02
-4.000000000000000000e+00,-4.000000000000000000e+00,-1.000000000000000000e+00,-1.200000000000000000e+01,-1.000000000000000000e+00,1.000000000000000000e+00,-3.000000000000000000e+00,1.000000000000000000e+00,5.274658203125000000e-01,1.661987304687500000e-01,-8.328247070312500000e-01,2.343750000000000000e-02
0.000000000000000000e+00,-3.000000000000000000e+00,-5.000000000000000000e+00,1.000000000000000000e+01,4.000000000000000000e+00,3.000000000000000000e+00,5.000000000000000000e+00,-1.000000000000000000e+00,5.274658203125000000e-01,1.661987304687500000e-01,-8.328247070312500000e-01,2.343750000000000000e-02
1.000000000000000000e+00,-2.000000000000000000e+00,-2.000000000000000000e+00,-4.000000000000000000e+00,1.000000000000000000e+00,0.000000000000000000e+00,-8.000000000000000000e+00,0.000000000000000000e+00,5.274658203125000000e-01,1.661987304687500000e-01,-8.328247070312500000e-01,2.343750000000000000e-02
2.000000000000000000e+00,3.000000000000000000e+00,7.000000000000000000e+00,-9.000000000000000000e+00,-1.200000000000000000e+01,-2.000000000000000000e+00,1.000000000000000000e+00,-4.000000000000000000e+00,5.274047851562500000e-01,1.661987304687500000e-01,-8.328857421875000000e-01,2.343750000000000000e-02
-3.000000000000000000e+00,-3.000000000000000000e+00,-9.000000000000000000e+00,0.000000000000000000e+00,-6.000000000000000000e+00,-3.000000000000000000e+00,2.000000000000000000e+00,-2.000000000000000000e+00,5.274047851562500000e-01,1.661987304687500000e-01,-8.328857421875000000e-01,2.343750000000000000e-02
-4.000000000000000000e+00,0.000000000000000000e+00,-1.000000000000000000e+00,5.000000000000000000e+00,-1.000000000000000000e+00,-1.000000000000000000e+00,-1.000000000000000000e+00,0.000000000000000000e+00,5.274047851562500000e-01,1.661987304687500000e-01,-8.328857421875000000e-01,2.343750000000000000e-02
3.000000000000000000e+00,4.000000000000000000e+00,1.200000000000000000e+01,-5.000000000000000000e+00,-2.000000000000000000e+00,-3.000000000000000000e+00,-5.000000000000000000e+00,-2.000000000000000000e+00,5.274047851562500000e-01,1.661987304687500000e-01,-8.328857421875000000e-01,2.343750000000000000e-02
-2.000000000000000000e+00,-5.000000000000000000e+00,-1.800000000000000000e+01,-1.100000000000000000e+01,-1.000000000000000000e+01,1.000000000000000000e+00,1.000000000000000000e+00,2.000000000000000000e+00,5.270996093750000000e-01,1.664428710937500000e-01,-8.330078125000000000e-01,2.355957031250000000e-02
-4.000000000000000000e+00,1.000000000000000000e+00,-8.000000000000000000e+00,1.000000000000000000e+00,5.000000000000000000e+00,5.000000000000000000e+00,3.000000000000000000e+00,-2.000000000000000000e+00,5.270996093750000000e-01,1.664428710937500000e-01,-8.330078125000000000e-01,2.355957031250000000e-02
-2.000000000000000000e+00,-7.000000000000000000e+00,4.000000000000000000e+00,3.000000000000000000e+00,5.000000000000000000e+00,1.000000000000000000e+00,0.000000000000000000e+00,-2.000000000000000000e+00,5.270996093750000000e-01,1.664428710937500000e-01,-8.330078125000000000e-01,2.355957031250000000e-02
0.000000000000000000e+00,3.000000000000000000e+00,-2.000000000000000000e+00,-1.500000000000000000e+01,-5.000000000000000000e+00,-1.000000000000000000e+00,-2.000000000000000000e+00,-3.000000000000000000e+00,5.270996093750000000e-01,1.664428710937500000e-01,-8.330078125000000000e-01,2.355957031250000000e-02
2.000000000000000000e+00,-1.000000000000000000e+00,3.000000000000000000e+00,1.000000000000000000e+00,-5.000000000000000000e+00,-3.000000000000000000e+00,0.000000000000000000e+00,-2.000000000000000000e+00,5.267944335937500000e-01,1.668090820312500000e-01,-8.331298828125000000e-01,2.368164062500000000e-02
-1.000000000000000000e+00,-1.000000000000000000e+00,-3.000000000000000000e+00,3.000000000000000000e+00,-9.000000000000000000e+00,-8.000000000000000000e+00,-3.000000000000000000e+00,1.000000000000000000e+00,5.267944335937500000e-01,1.668090820312500000e-01,-8.331298828125000000e-01,2.368164062500000000e-02
5.000000000000000000e+00,6.000000000000000000e+00,1.000000000000000000e+00,-9.000000000000000000e+00,7.000000000000000000e+00,0.000000000000000000e+00,-9.000000000000000000e+00,-2.000000000000000000e+00,5.267944335937500000e-01,1.668090820312500000e-01,-8.331298828125000000e-01,2.368164062500000000e-02
-4.000000000000000000e+00,0.000000000000000000e+00,3.000000000000000000e+00,2.900000000000000000e+01,3.000000000000000000e+00,2.000000000000000000e+00,-1.000000000000000000e+00,-5.000000000000000000e+00,5.267944335937500000e-01,1.668090820312500000e-01,-8.331298828125000000e-01,2.368164062500000000e-02
3.000000000000000000e+00,-1.000000000000000000e+01,-1.200000000000000000e+01,-1.300000000000000000e+01,2.000000000000000000e+00,2.000000000000000000e+00,1.000000000000000000e+01,7.000000000000000000e+00,5.265502929687500000e-01,1.669311523437500000e-01,-8.332519531250000000e-01,2.368164062500000000e-02
-9.000000000000000000e+00,-6.000000000000000000e+00,-1.300000000000000000e+01,-2.000000000000000000e+00,-3.000000000000000000e+00,-2.000000000000000000e+00,3.000000000000000000e+00,-2.000000000000000000e+00,5.265502929687500000e-01,1.669311523437500000e-01,-8.332519531250000000e-01,2.368164062500000000e-02
-2.000000000000000000e+00,-1.000000000000000000e+00,-5.000000000000000000e+00,-1.000000000000000000e+00,-2.000000000000000000e+00,-1.000000000000000000e+00,-4.000000000000000000e+00,-2.000000000000000000e+00,5.265502929687500000e-01,1.669311523437500000e-01,-8.332519531250000000e-01,2.368164062500000000e-02
-1.000000000000000000e+00,-1.000000000000000000e+00,3.000000000000000000e+00,-3.000000000000000000e+00,-1.000000000000000000e+00,-3.000000000000000000e+00,-4.000000000000000000e+00,-1.000000000000000000e+00,5.265502929687500000e-01,1.669311523437500000e-01,-8.332519531250000000e-01,2.368164062500000000e-02
0.000000000000000000e+00,1.000000000000000000e+00,0.000000000000000000e+00,8.000000000000000000e+00,-1.000000000000000000e+00,-4.000000000000000000e+00,-6.000000000000000000e+00,-6.000000000000000000e+00,5.265502929687500000e-01,1.669311523437500000e-01,-8.332519531250000000e-01,2.368164062500000000e-02
6.000000000000000000e+00,2.000000000000000000e+00,-2.000000000000000000e+00,-5.000000000000000000e+00,0.000000000000000000e+00,2.000000000000000000e+00,-1.000000000000000000e+00,-1.000000000000000000e+00,5.265502929687500000e-01,1.669311523437500000e-01,-8.332519531250000000e-01,2.368164062500000000e-02
-9.000000000000000000e+00,1.000000000000000000e+00,-1.000000000000000000e+00,-1.100000000000000000e+01,2.000000000000000000e+00,3.000000000000000000e+00,1.000000000000000000e+00,3.000000000000000000e+00,5.265502929687500000e-01,1.669311523437500000e-01,-8.332519531250000000e-01,2.368164062500000000e-02
0.000000000000000000e+00,-5.000000000000000000e+00,2.000000000000000000e+00,1.500000000000000000e+01,0.000000000000000000e+00,-1.000000000000000000e+00,-4.000000000000000000e+00,-1.000000000000000000e+00,5.265502929687500000e-01,1.669311523437500000e-01,-8.332519531250000000e-01,2.368164062500000000e-02
-4.000000000000000000e+00,-5.000000000000000000e+00,3.000000000000000000e+00,-1.000000000000000000e+00,4.000000000000000000e+00,0.000000000000000000e+00,-1.000000000000000000e+00,0.000000000000000000e+00,5.263671875000000000e-01,1.670532226562500000e-01,-8.333740234375000000e-01,2.374267578125000000e-02
2.000000000000000000e+00,1.000000000000000000e+00,-8.000000000000000000e+00,-1.000000000000000000e+00,-7.000000000000000000e+00,-8.000000000000000000e+00,-3.000000000000000000e+00,-1.000000000000000000e+00,5.263671875000000000e-01,1.670532226562500000e-01,-8.333740234375000000e-01,2.374267578125000000e-02
0.000000000000000000e+00,-2.000000000000000000e+00,-5.000000000000000000e+00,1.000000000000000000e+00,1.000000000000000000e+00,-1.000000000000000000e+00,-1.000000000000000000e+00,-2.000000000000000000e+00,5.263671875000000000e-01,1.670532226562500000e-01,-8.333740234375000000e-01,2.374267578125000000e-02
2.000000000000000000e+00,-2.000000000000000000e+00,-5.000000000000000000e+00,-1.500000000000000000e+01,-3.000000000000000000e+00,1.000000000000000000e+00,4.000000000000000000e+00,1.000000000000000000e+00,5.263671875000000000e-01,1.670532226562500000e-01,-8.333740234375000000e-01,2.374267578125000000e-02
-4.000000000000000000e+00,1.000000000000000000e+00,5.000000000000000000e+00,-4.000000000000000000e+00,-7.000000000000000000e+00,-1.000000000000000000e+00,-4.000000000000000000e+00,-2.000000000000000000e+00,5.263061523437500000e-01,1.672363281250000000e-01,-8.333740234375000000e-01,2.374267578125000000e-02
-1.000000000000000000e+00,0.000000000000000000e+00,4.000000000000000000e+00,1.000000000000000000e+00,-5.000000000000000000e+00,-3.000000000000000000e+00,-2.000000000000000000e+00,0.000000000000000000e+00,5.263061523437500000e-01,1.672363281250000000e-01,-8.333740234375000000e-01,2.374267578125000000e-02
-1.000000000000000000e+00,-1.000000000000000000e+00,-6.000000000000000000e+00,6.000000000000000000e+00,3.000000000000000000e+00,-1.000000000000000000e+00,3.000000000000000000e+00,-1.000000000000000000e+00,5.263061523437500000e-01,1.672363281250000000e-01,-8.333740234375000000e-01,2.374267578125000000e-02
-7.000000000000000000e+00,-1.000000000000000000e+00,-1.000000000000000000e+00,-6.000000000000000000e+00,1.000000000000000000e+00,0.000000000000000000e+00,4.000000000000000000e+00,2.000000000000000000e+00,5.263061523437500000e-01,1.672363281250000000e-01,-8.333740234375000000e-01,2.374267578125000000e-02
4.000000000000000000e+00,7.000000000000000000e+00,6.000000000000000000e+00,4.000000000000000000e+00,1.000000000000000000e+01,3.000000000000000000e+00,0.000000000000000000e+00,-1.000000000000000000e+00,5.261840820312500000e-01,1.675415039062500000e-01,-8.333740234375000000e-01,2.386474609375000000e-02
-4.000000000000000000e+00,-9.000000000000000000e+00,-1.000000000000000000e+01,-5.000000000000000000e+00,-2.000000000000000000e+00,-1.000000000000000000e+00,8.000000000000000000e+00,-2.000000000000000000e+00,5.261840820312500000e-01,1.675415039062500000e-01,-8.333740234375000000e-01,2.386474609375000000e-02
2.000000000000000000e+00,-5.000000000000000000e+00,-1.400000000000000000e+01,-3.000000000000000000e+00,-8.000000000000000000e+00,-3.000000000000000000e+00,-2.000000000000000000e+00,-2.000000000000000000e+00,5.261840820312500000e-01,1.675415039062500000e-01,-8.333740234375000000e-01,2.386474609375000000e-02
7.000000000000000000e+00,-3.000000000000000000e+00,4.000000000000000000e+00,-2.000000000000000000e+00,-3.000000000000000000e+00,-5.000000000000000000e+00,-3.000000000000000000e+00,-7.000000000000000000e+00,5.261840820312500000e-01,1.675415039062500000e-01,-8.333740234375000000e-01,2.386474609375000000e-02
9.000000000000000000e+00,2.000000000000000000e+00,-1.000000000000000000e+00,-3.000000000000000000e+00,-5.000000000000000000e+00,-2.000000000000000000e+00,-1.000000000000000000e+00,7.000000000000000000e+00,5.261840820312500000e-01,1.677856445312500000e-01,-8.333129882812500000e-01,2.398681640625000000e-02
-1.700000000000000000e+01,5.000000000000000000e+00,7.000000000000000000e+00,5.000000000000000000e+00,2.000000000000000000e+00,2.000000000000000000e+00,-1.000000000000000000e+00,1.000000000000000000e+00,5.261840820312500000e-01,1.677856445312500000e-01,-8.333129882812500000e-01,2.398681640625000000e-02
-3.000000000000000000e+00,-3.000000000000000000e+00,2.000000000000000000e+00,8.000000000000000000e+00,-1.000000000000000000e+00,-3.000000000000000000e+00,1.000000000000000000e+00,7.000000000000000000e+00,5.261840820312500000e-01,1.677856445312500000e-01,-8.333129882812500000e-01,2.398681640625000000e-02
-6.000000000000000000e+00,0.000000000000000000e+00,-3.000000000000000000e+00,-1.500000000000000000e+01,1.000000000000000000e+00,0.000000000000000000e+00,-2.000000000000000000e+00,0.000000000000000000e+00,5.261840820312500000e-01,1.677856445312500000e-01,-8.333129882812500000e-01,2.398681640625000000e-02
2.000000000000000000e+00,3.000000000000000000e+00,-1.000000000000000000e+00,5.000000000000000000e+00,-2.000000000000000000e+00,-4.000000000000000000e+00,-1.000000000000000000e+01,-5.000000000000000000e+00,5.261230468750000000e-01,1.677856445312500000e-01,-8.333740234375000000e-01,2.398681640625000000e-02
7.000000000000000000e+00,-2.000000000000000000e+00,-5.000000000000000000e+00,-1.700000000000000000e+01,-7.000000000000000000e+00,0.000000000000000000e+00,-7.000000000000000000e+00,3.000000000000000000e+00,5.261230468750000000e-01,1.677856445312500000e-01,-8.333740234375000000e-01,2.398681640625000000e-02
-8.000000000000000000e+00,-6.000000000000000000e+00,-1.700000000000000000e+01,1.200000000000000000e+01,1.000000000000000000e+00,-3.000000000000000000e+00,-5.000000000000000000e+00,-3.000000000000000000e+00,5.261230468750000000e-01,1.677856445312500000e-01,-8.333740234375000000e-01,2.398681640625000000e-02
-1.000000000000000000e+00,-2.000000000000000000e+00,-5.000000000000000000e+00,1.000000000000000000e+00,1.000000000000000000e+00,-1.000000000000000000e+00,-1.000000000000000000e+00,0.000000000000000000e+00,5.261230468750000000e-01,1.677856445312500000e-01,-8.333740234375000000e-01,2.398681640625000000e-02
-4.000000000000000000e+00,-2.000000000000000000e+00,7.000000000000000000e+00,-8.000000000000000000e+00,2.000000000000000000e+00,2.000000000000000000e+00,1.000000000000000000e+00,-4.000000000000000000e+00,5.261230468750000000e-01,1.677856445312500000e-01,-8.333740234375000000e-01,2.398681640625000000e-02
0.000000000000000000e+00,-2.000000000000000000e+00,0.000000000000000000e+00,9.000000000000000000e+00,9.000000000000000000e+00,-1.000000000000000000e+00,-2.000000000000000000e+00,-1.000000000000000000e+00,5.261230468750000000e-01,1.677856445312500000e-01,-8.333740234375000000e-01,2.398681640625000000e-02
-2.000000000000000000e+00,1.000000000000000000e+00,5.000000000000000000e+00,-1.000000000000000000e+00,-6.000000000000000000e+00,0.000000000000000000e+00,1.000000000000000000e+00,-3.000000000000000000e+00,5.261230468750000000e-01,1.677856445312500000e-01,-8.333740234375000000e-01,2.398681640625000000e-02
5.000000000000000000e+00,1.000000000000000000e+00,-3.000000000000000000e+00,-9.000000000000000000e+00,-3.000000000000000000e+00,-2.000000000000000000e+00,0.000000000000000000e+00,0.000000000000000000e+00,5.261230468750000000e-01,1.677856445312500000e-01,-8.333740234375000000e-01,2.398681640625000000e-02
-3.000000000000000000e+00,2.000000000000000000e+00,-1.000000000000000000e+00,5.000000000000000000e+00,-4.000000000000000000e+00,-4.000000000000000000e+00,-1.000000000000000000e+00,0.000000000000000000e+00,5.259399414062500000e-01,1.679077148437500000e-01,-8.334350585937500000e-01,2.410888671875000000e-02
1.000000000000000000e+00,-4.000000000000000000e+00,0.000000000000000000e+00,0.000000000000000000e+00,2.000000000000000000e+00,-2.000000000000000000e+00,-9.000000000000000000e+00,0.000000000000000000e+00,5.259399414062500000e-01,1.679077148437500000e-01,-8.334350585937500000e-01,2.410888671875000000e-02
2.000000000000000000e+00,-2.000000000000000000e+00,-6.000000000000000000e+00,2.000000000000000000e+00,-4.000000000000000000e+00,1.000000000000000000e+00,1.600000000000000000e+01,-2.000000000000000000e+00,5.256958007812500000e-01,1.680908203125000000e-01,-8.335571289062500000e-01,2.423095703125000000e-02
-2.000000000000000000e+00,0.000000000000000000e+00,-1.000000000000000000e+00,0.000000000000000000e+00,-3.000000000000000000e+00,0.000000000000000000e+00,0.000000000000000000e+00,-1.000000000000000000e+00,5.256958007812500000e-01,1.680908203125000000e-01,-8.335571289062500000e-01,2.423095703125000000e-02
-4.000000000000000000e+00,-5.000000000000000000e+00,0.000000000000000000e+00,-6.000000000000000000e+00,-2.000000000000000000e+00,-1.000000000000000000e+00,1.000000000000000000e+00,-2.000000000000000000e+00,5.256958007812500000e-01,1.680908203125000000e-01,-8.335571289062500000e-01,2.423095703125000000e-02
-1.000000000000000000e+00,3.000000000000000000e+00,1.000000000000000000e+01,8.000000000000000000e+00,0.000000000000000000e+00,1.000000000000000000e+00,-8.000000000000000000e+00,-2.000000000000000000e+00,5.256958007812500000e-01,1.680908203125000000e-01,-8.335571289062500000e-01,2.423095703125000000e-02
0.000000000000000000e+00,1.000000000000000000e+00,1.000000000000000000e+00,7.000000000000000000e+00,-7.000000000000000000e+00,-2.000000000000000000e+00,-5.000000000000000000e+00,0.000000000000000000e+00,5.255737304687500000e-01,1.680908203125000000e-01,-8.336181640625000000e-01,2.447509765625000000e-02
-1.000000000000000000e+00,-1.000000000000000000e+00,4.000000000000000000e+00,7.000000000000000000e+00,-5.000000000000000000e+00,-1.000000000000000000e+00,1.000000000000000000e+00,1.000000000000000000e+00,5.255737304687500000e-01,1.680908203125000000e-01,-8.336181640625000000e-01,2.447509765625000000e-02
