-8.000000000000000000e+00,4.000000000000000000e+00,-8.000000000000000000e+00,-5.000000000000000000e+00,-1.000000000000000000e+00,-1.000000000000000000e+00,-1.100000000000000000e+01,-2.000000000000000000e+00,3.901367187500000000e-01,8.422851562500000000e-02,-9.157104492187500000e-01,-4.724121093750000000e-02
1.800000000000000000e+01,1.600000000000000000e+01,3.000000000000000000e+00,1.000000000000000000e+01,0.000000000000000000e+00,-5.000000000000000000e+00,1.000000000000000000e+00,1.000000000000000000e+00,3.901367187500000000e-01,8.422851562500000000e-02,-9.157104492187500000e-01,-4.724121093750000000e-02
1.100000000000000000e+01,1.800000000000000000e+01,-6.000000000000000000e+00,5.000000000000000000e+00,9.000000000000000000e+00,1.000000000000000000e+00,1.000000000000000000e+01,7.000000000000000000e+00,3.914184570312500000e-01,8.410644531250000000e-02,-9.152221679687500000e-01,-4.663085937500000000e-02
-1.000000000000000000e+00,1.000000000000000000e+00,5.500000000000000000e+01,1.300000000000000000e+01,3.000000000000000000e+00,4.000000000000000000e+00,-1.000000000000000000e+00,2.000000000000000000e+00,3.914184570312500000e-01,8.410644531250000000e-02,-9.152221679687500000e-01,-4.663085937500000000e-02
-2.400000000000000000e+01,-1.300000000000000000e+01,3.000000000000000000e+00,-2.000000000000000000e+00,-2.000000000000000000e+00,-4.000000000000000000e+00,4.000000000000000000e+00,0.000000000000000000e+00,3.914184570312500000e-01,8.410644531250000000e-02,-9.152221679687500000e-01,-4.663085937500000000e-02
-1.500000000000000000e+01,-1.300000000000000000e+01,-1.800000000000000000e+01,1.000000000000000000e+00,-8.000000000000000000e+00,-6.000000000000000000e+00,0.000000000000000000e+00,-1.000000000000000000e+00,3.914184570312500000e-01,8.410644531250000000e-02,-9.152221679687500000e-01,-4.663085937500000000e-02
2.000000000000000000e+00,-1.600000000000000000e+01,1.000000000000000000e+01,-9.000000000000000000e+00,-7.000000000000000000e+00,-9.000000000000000000e+00,-1.700000000000000000e+01,-2.000000000000000000e+00,3.922119140625000000e-01,8.398437500000000000e-02,-9.148559570312500000e-01,-4.626464843750000000e-02
1.200000000000000000e+01,3.300000000000000000e+01,2.000000000000000000e+01,1.000000000000000000e+01,7.000000000000000000e+00,4.000000000000000000e+00,7.000000000000000000e+00,3.000000000000000000e+00,3.922119140625000000e-01,8.398437500000000000e-02,-9.148559570312500000e-01,-4.626464843750000000e-02
5.000000000000000000e+00,-2.500000000000000000e+01,-3.400000000000000000e+01,-1.200000000000000000e+01,-7.000000000000000000e+00,-1.000000000000000000e+00,4.000000000000000000e+00,-2.000000000000000000e+00,3.922119140625000000e-01,8.398437500000000000e-02,-9.148559570312500000e-01,-4.626464843750000000e-02
-2.600000000000000000e+01,-6.000000000000000000e+00,4.000000000000000000e+00,-2.000000000000000000e+00,-1.000000000000000000e+00,-4.000000000000000000e+00,3.000000000000000000e+00,-5.000000000000000000e+00,3.922119140625000000e-01,8.398437500000000000e-02,-9.148559570312500000e-01,-4.626464843750000000e-02
8.000000000000000000e+00,1.900000000000000000e+01,6.000000000000000000e+00,3.000000000000000000e+00,0.000000000000000000e+00,-1.000000000000000000e+00,-5.000000000000000000e+00,0.000000000000000000e+00,3.927612304687500000e-01,8.422851562500000000e-02,-9.146118164062500000e-01,-4.589843750000000000e-02
1.300000000000000000e+01,1.000000000000000000e+01,0.000000000000000000e+00,-2.000000000000000000e+00,-2.000000000000000000e+00,-2.000000000000000000e+00,-1.300000000000000000e+01,-5.000000000000000000e+00,3.927612304687500000e-01,8.422851562500000000e-02,-9.146118164062500000e-01,-4.589843750000000000e-02
4.000000000000000000e+00,1.700000000000000000e+01,2.600000000000000000e+01,2.000000000000000000e+00,-3.000000000000000000e+00,1.000000000000000000e+00,-8.000000000000000000e+00,4.000000000000000000e+00,3.927612304687500000e-01,8.422851562500000000e-02,-9.146118164062500000e-01,-4.589843750000000000e-02
9.000000000000000000e+00,4.000000000000000000e+00,-2.000000000000000000e+01,-7.000000000000000000e+00,-2.000000000000000000e+00,0.000000000000000000e+00,1.000000000000000000e+00,-2.000000000000000000e+00,3.927612304687500000e-01,8.422851562500000000e-02,-9.146118164062500000e-01,-4.589843750000000000e-02
-1.100000000000000000e+01,-2.600000000000000000e+01,1.200000000000000000e+01,-3.000000000000000000e+00,3.000000000000000000e+00,2.000000000000000000e+00,3.000000000000000000e+00,-4.000000000000000000e+00,3.933105468750000000e-01,8.471679687500000000e-02,-9.144287109375000000e-01,-4.498291015625000000e-02
-2.000000000000000000e+00,2.000000000000000000e+00,-3.000000000000000000e+01,-1.000000000000000000e+00,-1.000000000000000000e+00,-3.000000000000000000e+00,-3.500000000000000000e+01,-1.000000000000000000e+00,3.933105468750000000e-01,8.471679687500000000e-02,-9.144287109375000000e-01,-4.498291015625000000e-02
1.600000000000000000e+01,2.100000000000000000e+01,1.400000000000000000e+01,-1.100000000000000000e+01,-3.000000000000000000e+00,-2.000000000000000000e+00,6.000000000000000000e+00,2.000000000000000000e+00,3.933105468750000000e-01,8.471679687500000000e-02,-9.144287109375000000e-01,-4.498291015625000000e-02
-2.000000000000000000e+01,-1.900000000000000000e+01,-1.500000000000000000e+01,-3.000000000000000000e+00,7.000000000000000000e+00,-1.000000000000000000e+00,1.000000000000000000e+00,-4.000000000000000000e+00,3.933105468750000000e-01,8.471679687500000000e-02,-9.144287109375000000e-01,-4.498291015625000000e-02
-2.000000000000000000e+00,1.000000000000000000e+00,1.400000000000000000e+01,3.000000000000000000e+00,-3.000000000000000000e+00,-3.000000000000000000e+00,8.000000000000000000e+00,-1.000000000000000000e+00,3.938598632812500000e-01,8.483886718750000000e-02,-9.141845703125000000e-01,-4.388427734375000000e-02
1.200000000000000000e+01,-4.000000000000000000e+00,-4.100000000000000000e+01,-1.400000000000000000e+01,-5.000000000000000000e+00,-6.000000000000000000e+00,-3.000000000000000000e+00,1.000000000000000000e+00,3.938598632812500000e-01,8.483886718750000000e-02,-9.141845703125000000e-01,-4.388427734375000000e-02
-1.800000000000000000e+01,-1.100000000000000000e+01,-9.000000000000000000e+00,-4.000000000000000000e+00,-1.000000000000000000e+00,-1.000000000000000000e+00,-2.000000000000000000e+00,-5.000000000000000000e+00,3.938598632812500000e-01,8.483886718750000000e-02,-9.141845703125000000e-01,-4.388427734375000000e-02
2.000000000000000000e+00,-5.000000000000000000e+00,1.900000000000000000e+01,1.100000000000000000e+01,7.000000000000000000e+00,9.000000000000000000e+00,1.100000000000000000e+01,2.000000000000000000e+00,3.938598632812500000e-01,8.483886718750000000e-02,-9.141845703125000000e-01,-4.388427734375000000e-02
-8.000000000000000000e+00,8.000000000000000000e+00,2.200000000000000000e+01,3.000000000000000000e+00,0.000000000000000000e+00,-5.000000000000000000e+00,-1.200000000000000000e+01,-1.000000000000000000e+00,3.944091796875000000e-01,8.496093750000000000e-02,-9.140014648437500000e-01,-4.296875000000000000e-02
4.000000000000000000e+00,-2.000000000000000000e+00,-2.300000000000000000e+01,-6.000000000000000000e+00,-3.000000000000000000e+00,-3.000000000000000000e+00,8.000000000000000000e+00,2.000000000000000000e+00,3.944091796875000000e-01,8.496093750000000000e-02,-9.140014648437500000e-01,-4.296875000000000000e-02
1.000000000000000000e+01,1.500000000000000000e+01,1.400000000000000000e+01,3.000000000000000000e+00,-3.000000000000000000e+00,-2.000000000000000000e+00,1.400000000000000000e+01,5.000000000000000000e+00,3.944091796875000000e-01,8.496093750000000000e-02,-9.140014648437500000e-01,-4.296875000000000000e-02
3.000000000000000000e+00,-1.300000000000000000e+01,-3.800000000000000000e+01,-7.000000000000000000e+00,-6.000000000000000000e+00,-8.000000000000000000e+00,-1.000000000000000000e+00,-2.000000000000000000e+00,3.944091796875000000e-01,8.496093750000000000e-02,-9.140014648437500000e-01,-4.296875000000000000e-02
9.000000000000000000e+00,6.000000000000000000e+00,1.600000000000000000e+01,3.000000000000000000e+00,4.000000000000000000e+00,4.000000000000000000e+00,1.000000000000000000e+01,1.000000000000000000e+00,3.946533203125000000e-01,8.514404296875000000e-02,-9.138793945312500000e-01,-4.235839843750000000e-02
0.000000000000000000e+00,0.000000000000000000e+00,5.000000000000000000e+00,0.000000000000000000e+00,0.000000000000000000e+00,0.000000000000000000e+00,-6.000000000000000000e+00,0.000000000000000000e+00,3.946533203125000000e-01,8.514404296875000000e-02,-9.138793945312500000e-01,-4.235839843750000000e-02
1.000000000000000000e+00,-1.200000000000000000e+01,5.000000000000000000e+00,3.000000000000000000e+00,3.000000000000000000e+00,8.000000000000000000e+00,1.600000000000000000e+01,-3.000000000000000000e+00,3.946533203125000000e-01,8.514404296875000000e-02,-9.138793945312500000e-01,-4.235839843750000000e-02
7.000000000000000000e+00,-1.000000000000000000e+00,-1.900000000000000000e+01,-5.000000000000000000e+00,-7.000000000000000000e+00,-3.000000000000000000e+00,2.000000000000000000e+00,-2.000000000000000000e+00,3.946533203125000000e-01,8.514404296875000000e-02,-9.138793945312500000e-01,-4.235839843750000000e-02
1.000000000000000000e+00,1.800000000000000000e+01,2.500000000000000000e+01,6.000000000000000000e+00,-2.000000000000000000e+00,0.000000000000000000e+00,5.000000000000000000e+00,0.000000000000000000e+00,3.948364257812500000e-01,8.496093750000000000e-02,-9.138793945312500000e-01,-4.193115234375000000e-02
1.100000000000000000e+01,-1.300000000000000000e+01,-4.600000000000000000e+01,-1.500000000000000000e+01,-1.000000000000000000e+01,-6.000000000000000000e+00,1.300000000000000000e+01,4.000000000000000000e+00,3.948364257812500000e-01,8.496093750000000000e-02,-9.138793945312500000e-01,-4.193115234375000000e-02
-1.200000000000000000e+01,-2.700000000000000000e+01,-1.200000000000000000e+01,0.000000000000000000e+00,4.000000000000000000e+00,-5.000000000000000000e+00,-1.000000000000000000e+01,-4.000000000000000000e+00,3.948364257812500000e-01,8.496093750000000000e-02,-9.138793945312500000e-01,-4.193115234375000000e-02
1.100000000000000000e+01,1.200000000000000000e+01,2.500000000000000000e+01,1.000000000000000000e+00,5.000000000000000000e+00,7.000000000000000000e+00,2.000000000000000000e+00,4.000000000000000000e+00,3.948364257812500000e-01,8.496093750000000000e-02,-9.138793945312500000e-01,-4.193115234375000000e-02
-1.300000000000000000e+01,-1.400000000000000000e+01,-2.000000000000000000e+00,7.000000000000000000e+00,-1.100000000000000000e+01,-2.000000000000000000e+00,-1.100000000000000000e+01,-5.000000000000000000e+00,3.948364257812500000e-01,8.471679687500000000e-02,-9.139404296875000000e-01,-4.125976562500000000e-02
2.000000000000000000e+00,3.000000000000000000e+01,4.600000000000000000e+01,1.300000000000000000e+01,1.200000000000000000e+01,5.000000000000000000e+00,2.000000000000000000e+00,3.000000000000000000e+00,3.948364257812500000e-01,8.471679687500000000e-02,-9.139404296875000000e-01,-4.125976562500000000e-02
-4.000000000000000000e+00,-3.000000000000000000e+01,1.700000000000000000e+01,-1.700000000000000000e+01,-1.500000000000000000e+01,-5.000000000000000000e+00,-4.000000000000000000e+00,-3.000000000000000000e+00,3.948364257812500000e-01,8.471679687500000000e-02,-9.139404296875000000e-01,-4.125976562500000000e-02
-1.900000000000000000e+01,-1.500000000000000000e+01,-1.200000000000000000e+01,6.000000000000000000e+00,2.000000000000000000e+00,-4.000000000000000000e+00,-1.300000000000000000e+01,-6.000000000000000000e+00,3.948364257812500000e-01,8.471679687500000000e-02,-9.139404296875000000e-01,-4.125976562500000000e-02
1.100000000000000000e+01,2.400000000000000000e+01,-6.000000000000000000e+00,-4.000000000000000000e+00,0.000000000000000000e+00,2.000000000000000000e+00,1.000000000000000000e+00,1.000000000000000000e+00,3.945922851562500000e-01,8.526611328125000000e-02,-9.140014648437500000e-01,-4.034423828125000000e-02
-1.000000000000000000e+01,-2.300000000000000000e+01,1.000000000000000000e+00,7.000000000000000000e+00,2.000000000000000000e+00,3.000000000000000000e+00,-3.000000000000000000e+00,-2.000000000000000000e+00,3.945922851562500000e-01,8.526611328125000000e-02,-9.140014648437500000e-01,-4.034423828125000000e-02
1.700000000000000000e+01,1.800000000000000000e+01,2.700000000000000000e+01,8.000000000000000000e+00,1.000000000000000000e+00,1.000000000000000000e+00,-7.000000000000000000e+00,0.000000000000000000e+00,3.945922851562500000e-01,8.526611328125000000e-02,-9.140014648437500000e-01,-4.034423828125000000e-02
-1.000000000000000000e+01,-6.000000000000000000e+00,-5.700000000000000000e+01,-2.000000000000000000e+01,-7.000000000000000000e+00,-6.000000000000000000e+00,-4.000000000000000000e+00,-2.000000000000000000e+00,3.945922851562500000e-01,8.526611328125000000e-02,-9.140014648437500000e-01,-4.034423828125000000e-02
-6.000000000000000000e+00,1.200000000000000000e+01,-1.900000000000000000e+01,-1.000000000000000000e+00,2.000000000000000000e+00,-2.000000000000000000e+00,8.000000000000000000e+00,-5.000000000000000000e+00,3.943481445312500000e-01,8.508300781250000000e-02,-9.141845703125000000e-01,-3.961181640625000000e-02
-1.000000000000000000e+01,-2.300000000000000000e+01,2.500000000000000000e+01,3.000000000000000000e+00,6.000000000000000000e+00,-3.000000000000000000e+00,5.000000000000000000e+00,0.000000000000000000e+00,3.943481445312500000e-01,8.508300781250000000e-02,-9.141845703125000000e-01,-3.961181640625000000e-02
-3.000000000000000000e+00,1.900000000000000000e+01,1.300000000000000000e+01,-1.000000000000000000e+00,2.000000000000000000e+00,1.000000000000000000e+00,-1.000000000000000000e+00,-1.000000000000000000e+00,3.943481445312500000e-01,8.508300781250000000e-02,-9.141845703125000000e-01,-3.961181640625000000e-02
2.000000000000000000e+00,-1.600000000000000000e+01,2.100000000000000000e+01,-3.000000000000000000e+00,-9.000000000000000000e+00,-1.000000000000000000e+00,-2.000000000000000000e+00,-2.000000000000000000e+00,3.943481445312500000e-01,8.508300781250000000e-02,-9.141845703125000000e-01,-3.961181640625000000e-02
-6.000000000000000000e+00,-4.000000000000000000e+00,-4.000000000000000000e+00,1.000000000000000000e+00,1.000000000000000000e+00,-3.000000000000000000e+00,-9.000000000000000000e+00,-2.000000000000000000e+00,3.941650390625000000e-01,8.459472656250000000e-02,-9.143676757812500000e-01,-3.863525390625000000e-02
-6.000000000000000000e+00,7.000000000000000000e+00,-2.100000000000000000e+01,-6.000000000000000000e+00,0.000000000000000000e+00,0.000000000000000000e+00,-4.000000000000000000e+00,0.000000000000000000e+00,3.941650390625000000e-01,8.459472656250000000e-02,-9.143676757812500000e-01,-3.863525390625000000e-02
3.000000000000000000e+00,7.000000000000000000e+00,0.000000000000000000e+00,1.000000000000000000e+00,3.000000000000000000e+00,2.000000000000000000e+00,6.000000000000000000e+00,5.000000000000000000e+00,3.941650390625000000e-01,8.459472656250000000e-02,-9.143676757812500000e-01,-3.863525390625000000e-02
1.700000000000000000e+01,1.300000000000000000e+01,3.000000000000000000e+00,-2.000000000000000000e+00,4.000000000000000000e+00,-6.000000000000000000e+00,-1.600000000000000000e+01,0.000000000000000000e+00,3.941650390625000000e-01,8.459472656250000000e-02,-9.143676757812500000e-01,-3.863525390625000000e-02
-1.400000000000000000e+01,-1.800000000000000000e+01,2.200000000000000000e+01,1.000000000000000000e+00,2.000000000000000000e+00,7.000000000000000000e+00,4.800000000000000000e+01,1.000000000000000000e+00,3.939208984375000000e-01,8.410644531250000000e-02,-9.144897460937500000e-01,-3.778076171875000000e-02
6.000000000000000000e+00,8.000000000000000000e+00,-4.700000000000000000e+01,-1.500000000000000000e+01,-1.000000000000000000e+00,4.000000000000000000e+00,1.000000000000000000e+00,-9.000000000000000000e+00,3.939208984375000000e-01,8.410644531250000000e-02,-9.144897460937500000e-01,-3.778076171875000000e-02
-3.000000000000000000e+00,-1.200000000000000000e+01,2.100000000000000000e+01,2.000000000000000000e+01,-3.000000000000000000e+00,-3.000000000000000000e+00,-6.000000000000000000e+00,-2.000000000000000000e+00,3.939208984375000000e-01,8.410644531250000000e-02,-9.144897460937500000e-01,-3.778076171875000000e-02
-1.200000000000000000e+01,2.000000000000000000e+00,1.000000000000000000e+01,1.000000000000000000e+00,3.000000000000000000e+00,2.000000000000000000e+00,6.000000000000000000e+00,-1.000000000000000000e+00,3.939208984375000000e-01,8.410644531250000000e-02,-9.144897460937500000e-01,-3.778076171875000000e-02
1.000000000000000000e+00,-2.000000000000000000e+01,3.000000000000000000e+00,-6.000000000000000000e+00,-5.000000000000000000e+00,-4.000000000000000000e+00,-1.900000000000000000e+01,0.000000000000000000e+00,3.934936523437500000e-01,8.380126953125000000e-02,-9.147338867187500000e-01,-3.704833984375000000e-02
-5.000000000000000000e+00,1.500000000000000000e+01,2.500000000000000000e+01,4.000000000000000000e+00,2.000000000000000000e+00,8.000000000000000000e+00,1.700000000000000000e+01,6.000000000000000000e+00,3.934936523437500000e-01,8.380126953125000000e-02,-9.147338867187500000e-01,-3.704833984375000000e-02
7.000000000000000000e+00,8.000000000000000000e+00,-4.600000000000000000e+01,-8.000000000000000000e+00,-4.000000000000000000e+00,-1.000000000000000000e+00,5.000000000000000000e+00,-1.000000000000000000e+00,3.934936523437500000e-01,8.380126953125000000e-02,-9.147338867187500000e-01,-3.704833984375000000e-02
-2.400000000000000000e+01,-5.000000000000000000e+00,-1.000000000000000000e+00,-6.000000000000000000e+00,-2.000000000000000000e+00,2.000000000000000000e+00,-6.000000000000000000e+00,-4.000000000000000000e+00,3.934936523437500000e-01,8.380126953125000000e-02,-9.147338867187500000e-01,-3.704833984375000000e-02
2.000000000000000000e+00,-6.000000000000000000e+00,1.500000000000000000e+01,3.000000000000000000e+00,1.000000000000000000e+00,-2.000000000000000000e+00,-4.000000000000000000e+00,1.000000000000000000e+00,3.930664062500000000e-01,8.343505859375000000e-02,-9.149780273437500000e-01,-3.662109375000000000e-02
1.000000000000000000e+00,2.500000000000000000e+01,2.200000000000000000e+01,2.600000000000000000e+01,1.000000000000000000e+00,0.000000000000000000e+00,-2.000000000000000000e+00,0.000000000000000000e+00,3.930664062500000000e-01,8.343505859375000000e-02,-9.149780273437500000e-01,-3.662109375000000000e-02
7.000000000000000000e+00,-2.300000000000000000e+01,-7.000000000000000000e+01,-2.400000000000000000e+01,-2.000000000000000000e+00,-6.000000000000000000e+00,-1.100000000000000000e+01,-2.000000000000000000e+00,3.930664062500000000e-01,8.343505859375000000e-02,-9.149780273437500000e-01,-3.662109375000000000e-02
4.000000000000000000e+00,-1.300000000000000000e+01,2.100000000000000000e+01,-4.000000000000000000e+00,-2.000000000000000000e+00,2.000000000000000000e+00,6.000000000000000000e+00,-1.000000000000000000e+00,3.930664062500000000e-01,8.343505859375000000e-02,-9.149780273437500000e-01,-3.662109375000000000e-02
-6.000000000000000000e+00,-6.000000000000000000e+00,9.000000000000000000e+00,0.000000000000000000e+00,-5.000000000000000000e+00,-2.000000000000000000e+00,-8.000000000000000000e+00,0.000000000000000000e+00,3.925781250000000000e-01,8.312988281250000000e-02,-9.152221679687500000e-01,-3.637695312500000000e-02
-2.000000000000000000e+00,-1.900000000000000000e+01,0.000000000000000000e+00,-2.000000000000000000e+00,-1.000000000000000000e+00,1.000000000000000000e+00,-8.000000000000000000e+00,-4.000000000000000000e+00,3.925781250000000000e-01,8.312988281250000000e-02,-9.152221679687500000e-01,-3.637695312500000000e-02
-6.000000000000000000e+00,2.300000000000000000e+01,-1.000000000000000000e+00,6.000000000000000000e+00,8.000000000000000000e+00,2.000000000000000000e+00,1.000000000000000000e+00,1.000000000000000000e+00,3.925781250000000000e-01,8.312988281250000000e-02,-9.152221679687500000e-01,-3.637695312500000000e-02
1.700000000000000000e+01,2.200000000000000000e+01,-1.000000000000000000e+00,1.000000000000000000e+00,-5.000000000000000000e+00,1.000000000000000000e+00,4.000000000000000000e+00,1.000000000000000000e+00,3.925781250000000000e-01,8.312988281250000000e-02,-9.152221679687500000e-01,-3.637695312500000000e-02
-1.100000000000000000e+01,-4.000000000000000000e+00,2.000000000000000000e+00,3.000000000000000000e+00,-5.000000000000000000e+00,-4.000000000000000000e+00,-8.000000000000000000e+00,-1.000000000000000000e+00,3.921508789062500000e-01,8.331298828125000000e-02,-9.154052734375000000e-01,-3.601074218750000000e-02
8.000000000000000000e+00,0.000000000000000000e+00,2.500000000000000000e+01,-1.000000000000000000e+00,2.000000000000000000e+00,-2.000000000000000000e+00,0.000000000000000000e+00,0.000000000000000000e+00,3.921508789062500000e-01,8.331298828125000000e-02,-9.154052734375000000e-01,-3.601074218750000000e-02
-1.600000000000000000e+01,-2.900000000000000000e+01,-3.500000000000000000e+01,-1.800000000000000000e+01,-1.200000000000000000e+01,-1.100000000000000000e+01,-6.000000000000000000e+00,-6.000000000000000000e+00,3.921508789062500000e-01,8.331298828125000000e-02,-9.154052734375000000e-01,-3.601074218750000000e-02
1.700000000000000000e+01,2.200000000000000000e+01,2.200000000000000000e+01,8.000000000000000000e+00,6.000000000000000000e+00,7.000000000000000000e+00,5.000000000000000000e+00,-1.000000000000000000e+00,3.921508789062500000e-01,8.331298828125000000e-02,-9.154052734375000000e-01,-3.601074218750000000e-02
-1.700000000000000000e+01,1.000000000000000000e+00,-1.800000000000000000e+01,-3.000000000000000000e+00,-2.000000000000000000e+00,-1.000000000000000000e+00,-1.200000000000000000e+01,-2.000000000000000000e+00,3.916015625000000000e-01,8.404541015625000000e-02,-9.155883789062500000e-01,-3.570556640625000000e-02
1.500000000000000000e+01,-2.000000000000000000e+01,-1.000000000000000000e+00,-5.000000000000000000e+00,-3.000000000000000000e+00,-1.000000000000000000e+00,2.000000000000000000e+00,0.000000000000000000e+00,3.916015625000000000e-01,8.404541015625000000e-02,-9.155883789062500000e-01,-3.570556640625000000e-02
-3.500000000000000000e+01,9.000000000000000000e+00,1.500000000000000000e+01,6.000000000000000000e+00,3.000000000000000000e+00,1.000000000000000000e+00,-7.000000000000000000e+00,-3.000000000000000000e+00,3.916015625000000000e-01,8.404541015625000000e-02,-9.155883789062500000e-01,-3.570556640625000000e-02
1.100000000000000000e+01,-3.000000000000000000e+00,-1.100000000000000000e+01,0.000000000000000000e+00,-7.000000000000000000e+00,-6.000000000000000000e+00,4.000000000000000000e+00,-1.000000000000000000e+00,3.916015625000000000e-01,8.404541015625000000e-02,-9.155883789062500000e-01,-3.570556640625000000e-02
-8.000000000000000000e+00,-8.000000000000000000e+00,-2.000000000000000000e+01,-1.400000000000000000e+01,-7.000000000000000000e+00,-5.000000000000000000e+00,-7.000000000000000000e+00,-6.000000000000000000e+00,3.906860351562500000e-01,8.514404296875000000e-02,-9.158935546875000000e-01,-3.527832031250000000e-02
2.000000000000000000e+00,1.000000000000000000e+00,-1.200000000000000000e+01,-2.000000000000000000e+00,2.000000000000000000e+00,0.000000000000000000e+00,-7.000000000000000000e+00,0.000000000000000000e+00,3.906860351562500000e-01,8.514404296875000000e-02,-9.158935546875000000e-01,-3.527832031250000000e-02
0.000000000000000000e+00,2.000000000000000000e+00,2.000000000000000000e+00,0.000000000000000000e+00,-2.000000000000000000e+00,0.000000000000000000e+00,0.000000000000000000e+00,1.000000000000000000e+00,3.906860351562500000e-01,8.514404296875000000e-02,-9.158935546875000000e-01,-3.527832031250000000e-02
1.000000000000000000e+00,-9.000000000000000000e+00,1.000000000000000000e+01,5.000000000000000000e+00,-5.000000000000000000e+00,0.000000000000000000e+00,7.000000000000000000e+00,-1.000000000000000000e+00,3.906860351562500000e-01,8.514404296875000000e-02,-9.158935546875000000e-01,-3.527832031250000000e-02
1.300000000000000000e+01,1.800000000000000000e+01,9.000000000000000000e+00,3.000000000000000000e+00,4.000000000000000000e+00,0.000000000000000000e+00,-2.000000000000000000e+00,-1.000000000000000000e+00,3.897094726562500000e-01,8.581542968750000000e-02,-9.163208007812500000e-01,-3.411865234375000000e-02
-1.100000000000000000e+01,3.000000000000000000e+00,-1.600000000000000000e+01,-4.000000000000000000e+00,-4.000000000000000000e+00,-5.000000000000000000e+00,1.000000000000000000e+00,-1.000000000000000000e+00,3.897094726562500000e-01,8.581542968750000000e-02,-9.163208007812500000e-01,-3.411865234375000000e-02
5.000000000000000000e+00,-1.000000000000000000e+01,-8.000000000000000000e+00,2.000000000000000000e+00,2.000000000000000000e+00,3.000000000000000000e+00,-3.000000000000000000e+00,0.000000000000000000e+00,3.897094726562500000e-01,8.581542968750000000e-02,-9.163208007812500000e-01,-3.411865234375000000e-02
8.000000000000000000e+00,1.100000000000000000e+01,6.000000000000000000e+00,3.000000000000000000e+00,1.000000000000000000e+01,-5.000000000000000000e+00,-1.100000000000000000e+01,-1.000000000000000000e+00,3.897094726562500000e-01,8.581542968750000000e-02,-9.163208007812500000e-01,-3.411865234375000000e-02
-1.100000000000000000e+01,-1.000000000000000000e+00,-8.000000000000000000e+00,-7.000000000000000000e+00,-6.000000000000000000e+00,1.000000000000000000e+00,6.000000000000000000e+00,-1.000000000000000000e+00,3.883666992187500000e-01,8.612060546875000000e-02,-9.169311523437500000e-01,-3.216552734375000000e-02
-1.500000000000000000e+01,-1.000000000000000000e+01,1.000000000000000000e+01,0.000000000000000000e+00,-6.000000000000000000e+00,-3.000000000000000000e+00,7.000000000000000000e+00,-1.000000000000000000e+00,3.883666992187500000e-01,8.612060546875000000e-02,-9.169311523437500000e-01,-3.216552734375000000e-02
7.000000000000000000e+00,1.900000000000000000e+01,8.000000000000000000e+00,-5.000000000000000000e+00,-6.000000000000000000e+00,-4.000000000000000000e+00,0.000000000000000000e+00,4.000000000000000000e+00,3.883666992187500000e-01,8.612060546875000000e-02,-9.169311523437500000e-01,-3.216552734375000000e-02
-2.100000000000000000e+01,-2.200000000000000000e+01,-2.100000000000000000e+01,-2.000000000000000000e+00,2.000000000000000000e+00,0.000000000000000000e+00,4.000000000000000000e+00,0.000000000000000000e+00,3.883666992187500000e-01,8.612060546875000000e-02,-9.169311523437500000e-01,-3.216552734375000000e-02
8.000000000000000000e+00,-1.000000000000000000e+00,-5.000000000000000000e+00,-2.000000000000000000e+00,-1.000000000000000000e+00,1.000000000000000000e+00,-1.000000000000000000e+00,-1.000000000000000000e+00,3.868408203125000000e-01,8.624267578125000000e-02,-9.176025390625000000e-01,-2.972412109375000000e-02
-1.000000000000000000e+00,0.000000000000000000e+00,-1.200000000000000000e+01,-5.000000000000000000e+00,-3.000000000000000000e+00,-3.000000000000000000e+00,-6.000000000000000000e+00,-6.000000000000000000e+00,3.868408203125000000e-01,8.624267578125000000e-02,-9.176025390625000000e-01,-2.972412109375000000e-02
2.000000000000000000e+00,5.000000000000000000e+00,-1.000000000000000000e+00,2.000000000000000000e+00,-2.000000000000000000e+00,1.000000000000000000e+00,-2.000000000000000000e+00,0.000000000000000000e+00,3.868408203125000000e-01,8.624267578125000000e-02,-9.176025390625000000e-01,-2.972412109375000000e-02
0.000000000000000000e+00,4.000000000000000000e+00,9.000000000000000000e+00,1.000000000000000000e+00,0.000000000000000000e+00,0.000000000000000000e+00,-5.000000000000000000e+00,-1.000000000000000000e+00,3.868408203125000000e-01,8.624267578125000000e-02,-9.176025390625000000e-01,-2.972412109375000000e-02
1.700000000000000000e+01,2.600000000000000000e+01,3.800000000000000000e+01,1.600000000000000000e+01,1.000000000000000000e+01,3.000000000000000000e+00,1.000000000000000000e+00,1.000000000000000000e+00,3.859252929687500000e-01,8.520507812500000000e-02,-9.182128906250000000e-01,-2.734375000000000000e-02
1.100000000000000000e+01,1.000000000000000000e+00,-5.600000000000000000e+01,-2.800000000000000000e+01,-8.000000000000000000e+00,-4.000000000000000000e+00,2.000000000000000000e+00,1.000000000000000000e+00,3.859252929687500000e-01,8.520507812500000000e-02,-9.182128906250000000e-01,-2.734375000000000000e-02
-1.800000000000000000e+01,-3.600000000000000000e+01,1.800000000000000000e+01,-2.000000000000000000e+00,-7.000000000000000000e+00,-6.000000000000000000e+00,-5.000000000000000000e+00,-1.100000000000000000e+01,3.859252929687500000e-01,8.520507812500000000e-02,-9.182128906250000000e-01,-2.734375000000000000e-02
-1.000000000000000000e+00,-3.000000000000000000e+01,-9.000000000000000000e+00,-6.000000000000000000e+00,-7.000000000000000000e+00,-6.000000000000000000e+00,-4.000000000000000000e+00,-2.000000000000000000e+00,3.859252929687500000e-01,8.520507812500000000e-02,-9.182128906250000000e-01,-2.734375000000000000e-02
-1.000000000000000000e+00,-5.000000000000000000e+00,5.000000000000000000e+00,4.000000000000000000e+00,1.000000000000000000e+00,1.000000000000000000e+00,-2.000000000000000000e+00,1.000000000000000000e+00,3.856811523437500000e-01,8.349609375000000000e-02,-9.185180664062500000e-01,-2.545166015625000000e-02
1.000000000000000000e+01,7.000000000000000000e+00,2.000000000000000000e+00,5.000000000000000000e+00,0.000000000000000000e+00,-1.000000000000000000e+00,1.000000000000000000e+00,2.000000000000000000e+00,3.856811523437500000e-01,8.349609375000000000e-02,-9.185180664062500000e-01,-2.545166015625000000e-02
5.000000000000000000e+00,2.300000000000000000e+01,4.000000000000000000e+00,-1.000000000000000000e+00,8.000000000000000000e+00,2.000000000000000000e+00,-1.000000000000000000e+00,3.000000000000000000e+00,3.856811523437500000e-01,8.349609375000000000e-02,-9.185180664062500000e-01,-2.545166015625000000e-02
3.000000000000000000e+00,2.000000000000000000e+00,5.000000000000000000e+00,1.000000000000000000e+00,-1.000000000000000000e+00,-2.000000000000000000e+00,-9.000000000000000000e+00,-1.000000000000000000e+00,3.856811523437500000e-01,8.349609375000000000e-02,-9.185180664062500000e-01,-2.545166015625000000e-02
1.200000000000000000e+01,1.700000000000000000e+01,-1.700000000000000000e+01,-3.000000000000000000e+00,-2.000000000000000000e+00,0.000000000000000000e+00,-2.000000000000000000e+00,2.000000000000000000e+00,3.856201171875000000e-01,8.184814453125000000e-02,-9.187622070312500000e-01,-2.392578125000000000e-02
-5.000000000000000000e+00,1.900000000000000000e+01,-1.300000000000000000e+01,-4.000000000000000000e+00,-2.000000000000000000e+00,-3.000000000000000000e+00,-8.000000000000000000e+00,2.000000000000000000e+00,3.856201171875000000e-01,8.184814453125000000e-02,-9.187622070312500000e-01,-2.392578125000000000e-02
-6.000000000000000000e+00,-3.800000000000000000e+01,-1.400000000000000000e+01,-5.000000000000000000e+00,-1.000000000000000000e+00,3.000000000000000000e+00,1.100000000000000000e+01,-5.000000000000000000e+00,3.856201171875000000e-01,8.184814453125000000e-02,-9.187622070312500000e-01,-2.392578125000000000e-02
-1.500000000000000000e+01,-1.300000000000000000e+01,2.000000000000000000e+01,5.000000000000000000e+00,0.000000000000000000e+00,1.000000000000000000e+00,4.000000000000000000e+00,-4.000000000000000000e+00,3.856201171875000000e-01,8.184814453125000000e-02,-9.187622070312500000e-01,-2.392578125000000000e-02
-1.800000000000000000e+01,-1.400000000000000000e+01,-5.000000000000000000e+00,-5.000000000000000000e+00,-4.000000000000000000e+00,-8.000000000000000000e+00,-2.000000000000000000e+00,1.000000000000000000e+00,3.856201171875000000e-01,8.197021484375000000e-02,-9.187622070312500000e-01,-2.258300781250000000e-02
-3.000000000000000000e+00,1.100000000000000000e+01,1.700000000000000000e+01,8.000000000000000000e+00,3.000000000000000000e+00,3.000000000000000000e+00,0.000000000000000000e+00,-1.000000000000000000e+00,3.856201171875000000e-01,8.197021484375000000e-02,-9.187622070312500000e-01,-2.258300781250000000e-02
1.000000000000000000e+01,1.700000000000000000e+01,-2.000000000000000000e+00,-2.000000000000000000e+00,-6.000000000000000000e+00,-5.000000000000000000e+00,-3.000000000000000000e+00,2.000000000000000000e+00,3.856201171875000000e-01,8.197021484375000000e-02,-9.187622070312500000e-01,-2.258300781250000000e-02
2.300000000000000000e+01,2.300000000000000000e+01,4.000000000000000000e+00,1.000000000000000000e+01,3.000000000000000000e+00,-1.000000000000000000e+00,-4.000000000000000000e+00,2.000000000000000000e+00,3.856201171875000000e-01,8.197021484375000000e-02,-9.187622070312500000e-01,-2.258300781250000000e-02
5.000000000000000000e+00,-8.000000000000000000e+00,-6.000000000000000000e+00,-2.000000000000000000e+00,6.000000000000000000e+00,3.000000000000000000e+00,-3.000000000000000000e+00,1.000000000000000000e+00,3.857421875000000000e-01,8.337402343750000000e-02,-9.185791015625000000e-01,-2.166748046875000000e-02
-2.700000000000000000e+01,-3.800000000000000000e+01,-1.900000000000000000e+01,-5.000000000000000000e+00,-4.000000000000000000e+00,-3.000000000000000000e+00,-4.000000000000000000e+00,-1.000000000000000000e+01,3.857421875000000000e-01,8.337402343750000000e-02,-9.185791015625000000e-01,-2.166748046875000000e-02
0.000000000000000000e+00,1.200000000000000000e+01,4.000000000000000000e+00,2.000000000000000000e+00,-1.000000000000000000e+00,0.000000000000000000e+00,-8.000000000000000000e+00,-3.000000000000000000e+00,3.857421875000000000e-01,8.337402343750000000e-02,-9.185791015625000000e-01,-2.166748046875000000e-02
-7.000000000000000000e+00,-1.700000000000000000e+01,2.300000000000000000e+01,-4.000000000000000000e+00,-7.000000000000000000e+00,1.000000000000000000e+00,6.000000000000000000e+00,-1.000000000000000000e+00,3.857421875000000000e-01,8.337402343750000000e-02,-9.185791015625000000e-01,-2.166748046875000000e-02
-2.000000000000000000e+00,-1.500000000000000000e+01,-3.700000000000000000e+01,-1.300000000000000000e+01,-1.200000000000000000e+01,-7.000000000000000000e+00,-5.000000000000000000e+00,-2.000000000000000000e+00,3.861694335937500000e-01,8.483886718750000000e-02,-9.182739257812500000e-01,-2.142333984375000000e-02
1.000000000000000000e+01,3.000000000000000000e+00,2.900000000000000000e+01,4.000000000000000000e+00,-5.000000000000000000e+00,3.000000000000000000e+00,4.000000000000000000e+00,4.000000000000000000e+00,3.861694335937500000e-01,8.483886718750000000e-02,-9.182739257812500000e-01,-2.142333984375000000e-02
3.000000000000000000e+00,5.000000000000000000e+00,1.500000000000000000e+01,3.000000000000000000e+00,9.000000000000000000e+00,-4.000000000000000000e+00,-4.000000000000000000e+00,1.000000000000000000e+00,3.861694335937500000e-01,8.483886718750000000e-02,-9.182739257812500000e-01,-2.142333984375000000e-02
9.000000000000000000e+00,3.400000000000000000e+01,3.300000000000000000e+01,8.000000000000000000e+00,5.000000000000000000e+00,9.000000000000000000e+00,3.000000000000000000e+00,2.000000000000000000e+00,3.861694335937500000e-01,8.483886718750000000e-02,-9.182739257812500000e-01,-2.142333984375000000e-02
5.000000000000000000e+00,-7.000000000000000000e+00,-2.000000000000000000e+01,-4.000000000000000000e+00,1.000000000000000000e+00,-6.000000000000000000e+00,3.000000000000000000e+00,2.000000000000000000e+00,3.862915039062500000e-01,8.691406250000000000e-02,-9.180297851562500000e-01,-2.221679687500000000e-02
1.000000000000000000e+00,-1.000000000000000000e+01,6.000000000000000000e+00,-7.000000000000000000e+00,-7.000000000000000000e+00,-2.000000000000000000e+00,1.000000000000000000e+00,-7.000000000000000000e+00,3.862915039062500000e-01,8.691406250000000000e-02,-9.180297851562500000e-01,-2.221679687500000000e-02
-1.700000000000000000e+01,1.700000000000000000e+01,-1.000000000000000000e+00,-7.000000000000000000e+00,-9.000000000000000000e+00,-2.000000000000000000e+00,4.000000000000000000e+00,0.000000000000000000e+00,3.862915039062500000e-01,8.691406250000000000e-02,-9.180297851562500000e-01,-2.221679687500000000e-02
4.000000000000000000e+00,0.000000000000000000e+00,-3.300000000000000000e+01,6.000000000000000000e+00,7.000000000000000000e+00,5.000000000000000000e+00,0.000000000000000000e+00,4.000000000000000000e+00,3.862915039062500000e-01,8.691406250000000000e-02,-9.180297851562500000e-01,-2.221679687500000000e-02
-2.000000000000000000e+01,2.000000000000000000e+00,2.900000000000000000e+01,7.000000000000000000e+00,0.000000000000000000e+00,-3.000000000000000000e+00,0.000000000000000000e+00,-2.000000000000000000e+00,3.862915039062500000e-01,8.959960937500000000e-02,-9.177246093750000000e-01,-2.368164062500000000e-02
-1.400000000000000000e+01,-2.100000000000000000e+01,-3.500000000000000000e+01,-1.400000000000000000e+01,0.000000000000000000e+00,-1.000000000000000000e+00,-4.000000000000000000e+00,-5.000000000000000000e+00,3.862915039062500000e-01,8.959960937500000000e-02,-9.177246093750000000e-01,-2.368164062500000000e-02
9.000000000000000000e+00,-6.000000000000000000e+00,-9.000000000000000000e+00,-9.000000000000000000e+00,-5.000000000000000000e+00,-7.000000000000000000e+00,-9.000000000000000000e+00,-1.000000000000000000e+00,3.862915039062500000e-01,8.959960937500000000e-02,-9.177246093750000000e-01,-2.368164062500000000e-02
-7.000000000000000000e+00,-6.000000000000000000e+00,-7.000000000000000000e+00,-4.000000000000000000e+00,-1.000000000000000000e+00,-1.000000000000000000e+00,8.000000000000000000e+00,1.000000000000000000e+00,3.862915039062500000e-01,8.959960937500000000e-02,-9.177246093750000000e-01,-2.368164062500000000e-02
1.600000000000000000e+01,1.000000000000000000e+00,5.000000000000000000e+00,-5.000000000000000000e+00,-8.000000000000000000e+00,-1.000000000000000000e+00,-2.000000000000000000e+00,0.000000000000000000e+00,3.857421875000000000e-01,9.338378906250000000e-02,-9.175415039062500000e-01,-2.551269531250000000e-02
-1.200000000000000000e+01,1.800000000000000000e+01,2.100000000000000000e+01,1.300000000000000000e+01,5.000000000000000000e+00,4.000000000000000000e+00,1.800000000000000000e+01,5.000000000000000000e+00,3.857421875000000000e-01,9.338378906250000000e-02,-9.175415039062500000e-01,-2.551269531250000000e-02
1.000000000000000000e+01,1.600000000000000000e+01,-1.000000000000000000e+00,6.000000000000000000e+00,1.600000000000000000e+01,0.000000000000000000e+00,-9.000000000000000000e+00,-2.000000000000000000e+00,3.857421875000000000e-01,9.338378906250000000e-02,-9.175415039062500000e-01,-2.551269531250000000e-02
4.000000000000000000e+00,2.000000000000000000e+00,-2.800000000000000000e+01,-1.000000000000000000e+01,-4.000000000000000000e+00,-9.000000000000000000e+00,-9.000000000000000000e+00,1.000000000000000000e+00,3.857421875000000000e-01,9.338378906250000000e-02,-9.175415039062500000e-01,-2.551269531250000000e-02
1.500000000000000000e+01,-3.300000000000000000e+01,8.000000000000000000e+00,-1.000000000000000000e+00,-4.000000000000000000e+00,3.000000000000000000e+00,0.000000000000000000e+00,1.000000000000000000e+00,3.850097656250000000e-01,9.747314453125000000e-02,-9.173583984375000000e-01,-2.740478515625000000e-02
-2.900000000000000000e+01,3.000000000000000000e+00,1.000000000000000000e+01,9.000000000000000000e+00,1.000000000000000000e+00,4.000000000000000000e+00,9.000000000000000000e+00,-2.000000000000000000e+00,3.850097656250000000e-01,9.747314453125000000e-02,-9.173583984375000000e-01,-2.740478515625000000e-02
0.000000000000000000e+00,-1.100000000000000000e+01,-1.300000000000000000e+01,0.000000000000000000e+00,-4.000000000000000000e+00,2.000000000000000000e+00,4.000000000000000000e+00,1.000000000000000000e+00,3.850097656250000000e-01,9.747314453125000000e-02,-9.173583984375000000e-01,-2.740478515625000000e-02
0.000000000000000000e+00,7.000000000000000000e+00,-4.700000000000000000e+01,-1.300000000000000000e+01,-1.000000000000000000e+01,-7.000000000000000000e+00,-6.000000000000000000e+00,-6.000000000000000000e+00,3.850097656250000000e-01,9.747314453125000000e-02,-9.173583984375000000e-01,-2.740478515625000000e-02
-5.000000000000000000e+00,-8.000000000000000000e+00,-2.700000000000000000e+01,-6.000000000000000000e+00,0.000000000000000000e+00,-1.000000000000000000e+00,-2.000000000000000000e+00,-5.000000000000000000e+00,3.842773437500000000e-01,1.015014648437500000e-01,-9.171752929687500000e-01,-2.899169921875000000e-02
2.500000000000000000e+01,2.500000000000000000e+01,-2.100000000000000000e+01,-8.000000000000000000e+00,-1.000000000000000000e+00,-4.000000000000000000e+00,-1.100000000000000000e+01,0.000000000000000000e+00,3.842773437500000000e-01,1.015014648437500000e-01,-9.171752929687500000e-01,-2.899169921875000000e-02
-7.000000000000000000e+00,-4.000000000000000000e+00,2.600000000000000000e+01,3.000000000000000000e+00,-1.000000000000000000e+00,2.000000000000000000e+00,-5.000000000000000000e+00,-2.000000000000000000e+00,3.842773437500000000e-01,1.015014648437500000e-01,-9.171752929687500000e-01,-2.899169921875000000e-02
-3.000000000000000000e+00,1.000000000000000000e+00,2.500000000000000000e+01,1.000000000000000000e+01,2.000000000000000000e+00,3.000000000000000000e+00,1.000000000000000000e+00,-5.000000000000000000e+00,3.842773437500000000e-01,1.015014648437500000e-01,-9.171752929687500000e-01,-2.899169921875000000e-02
-1.100000000000000000e+01,-2.900000000000000000e+01,-4.100000000000000000e+01,-2.400000000000000000e+01,-9.000000000000000000e+00,-6.000000000000000000e+00,-7.000000000000000000e+00,-7.000000000000000000e+00,3.837280273437500000e-01,1.047363281250000000e-01,-9.169921875000000000e-01,-3.015136718750000000e-02
-1.800000000000000000e+01,-2.800000000000000000e+01,7.000000000000000000e+00,0.000000000000000000e+00,-2.000000000000000000e+00,-6.000000000000000000e+00,-6.000000000000000000e+00,-5.000000000000000000e+00,3.837280273437500000e-01,1.047363281250000000e-01,-9.169921875000000000e-01,-3.015136718750000000e-02
6.000000000000000000e+00,1.400000000000000000e+01,-5.000000000000000000e+00,1.000000000000000000e+00,-1.000000000000000000e+00,-2.000000000000000000e+00,-4.000000000000000000e+00,2.000000000000000000e+00,3.837280273437500000e-01,1.047363281250000000e-01,-9.169921875000000000e-01,-3.015136718750000000e-02
6.000000000000000000e+00,2.000000000000000000e+00,-6.000000000000000000e+00,-1.000000000000000000e+00,-2.000000000000000000e+00,-3.000000000000000000e+00,1.000000000000000000e+00,5.000000000000000000e+00,3.837280273437500000e-01,1.047363281250000000e-01,-9.169921875000000000e-01,-3.015136718750000000e-02
-1.000000000000000000e+00,2.300000000000000000e+01,1.600000000000000000e+01,-4.000000000000000000e+00,-2.000000000000000000e+00,3.000000000000000000e+00,1.000000000000000000e+00,-6.000000000000000000e+00,3.831787109375000000e-01,1.068115234375000000e-01,-9.169921875000000000e-01,-3.094482421875000000e-02
1.000000000000000000e+01,-2.200000000000000000e+01,2.000000000000000000e+00,0.000000000000000000e+00,-1.000000000000000000e+00,-5.000000000000000000e+00,-2.000000000000000000e+00,-3.000000000000000000e+00,3.831787109375000000e-01,1.068115234375000000e-01,-9.169921875000000000e-01,-3.094482421875000000e-02
-2.000000000000000000e+01,-1.100000000000000000e+01,-6.000000000000000000e+00,5.000000000000000000e+00,2.000000000000000000e+00,-3.000000000000000000e+00,0.000000000000000000e+00,-4.000000000000000000e+00,3.831787109375000000e-01,1.068115234375000000e-01,-9.169921875000000000e-01,-3.094482421875000000e-02
-1.000000000000000000e+00,-9.000000000000000000e+00,2.000000000000000000e+01,1.000000000000000000e+00,-4.000000000000000000e+00,-5.000000000000000000e+00,-4.000000000000000000e+00,-3.000000000000000000e+00,3.831787109375000000e-01,1.068115234375000000e-01,-9.169921875000000000e-01,-3.094482421875000000e-02
1.900000000000000000e+01,3.100000000000000000e+01,2.100000000000000000e+01,9.000000000000000000e+00,5.000000000000000000e+00,5.000000000000000000e+00,4.000000000000000000e+00,2.000000000000000000e+00,3.829345703125000000e-01,1.074218750000000000e-01,-9.169921875000000000e-01,-3.125000000000000000e-02
-3.000000000000000000e+00,-3.000000000000000000e+00,-8.000000000000000000e+00,0.000000000000000000e+00,3.000000000000000000e+00,-2.000000000000000000e+00,-3.000000000000000000e+00,2.000000000000000000e+00,3.829345703125000000e-01,1.074218750000000000e-01,-9.169921875000000000e-01,-3.125000000000000000e-02
1.000000000000000000e+00,-1.000000000000000000e+00,1.300000000000000000e+01,-2.000000000000000000e+00,-5.000000000000000000e+00,1.000000000000000000e+00,2.000000000000000000e+00,2.000000000000000000e+00,3.829345703125000000e-01,1.074218750000000000e-01,-9.169921875000000000e-01,-3.125000000000000000e-02
-1.000000000000000000e+01,1.000000000000000000e+00,-1.800000000000000000e+01,-5.000000000000000000e+00,-1.000000000000000000e+00,-2.000000000000000000e+00,-2.000000000000000000e+00,1.000000000000000000e+00,3.829345703125000000e-01,1.074218750000000000e-01,-9.169921875000000000e-01,-3.125000000000000000e-02
-1.200000000000000000e+01,-3.200000000000000000e+01,1.100000000000000000e+01,5.000000000000000000e+00,-1.000000000000000000e+00,-2.000000000000000000e+00,-1.200000000000000000e+01,-6.000000000000000000e+00,3.829345703125000000e-01,1.072387695312500000e-01,-9.170532226562500000e-01,-3.094482421875000000e-02
3.000000000000000000e+00,-1.200000000000000000e+01,-2.600000000000000000e+01,-8.000000000000000000e+00,-2.000000000000000000e+00,2.000000000000000000e+00,1.000000000000000000e+00,-3.000000000000000000e+00,3.829345703125000000e-01,1.072387695312500000e-01,-9.170532226562500000e-01,-3.094482421875000000e-02
4.000000000000000000e+00,5.000000000000000000e+00,6.000000000000000000e+00,2.000000000000000000e+00,1.000000000000000000e+00,1.000000000000000000e+00,-2.000000000000000000e+00,-6.000000000000000000e+00,3.829345703125000000e-01,1.072387695312500000e-01,-9.170532226562500000e-01,-3.094482421875000000e-02
2.000000000000000000e+00,1.000000000000000000e+00,5.000000000000000000e+00,-6.000000000000000000e+00,-5.000000000000000000e+00,-3.000000000000000000e+00,1.000000000000000000e+00,-2.000000000000000000e+00,3.829345703125000000e-01,1.072387695312500000e-01,-9.170532226562500000e-01,-3.094482421875000000e-02
1.600000000000000000e+01,1.300000000000000000e+01,-6.000000000000000000e+00,2.000000000000000000e+00,0.000000000000000000e+00,0.000000000000000000e+00,-3.000000000000000000e+00,4.000000000000000000e+00,3.834838867187500000e-01,1.067504882812500000e-01,-9.168701171875000000e-01,-3.009033203125000000e-02
-2.700000000000000000e+01,1.500000000000000000e+01,7.000000000000000000e+00,6.000000000000000000e+00,-1.000000000000000000e+00,1.000000000000000000e+00,-3.000000000000000000e+00,0.000000000000000000e+00,3.834838867187500000e-01,1.067504882812500000e-01,-9.168701171875000000e-01,-3.009033203125000000e-02
1.000000000000000000e+00,-1.200000000000000000e+01,2.000000000000000000e+00,-6.000000000000000000e+00,-7.000000000000000000e+00,-4.000000000000000000e+00,1.000000000000000000e+00,1.000000000000000000e+00,3.834838867187500000e-01,1.067504882812500000e-01,-9.168701171875000000e-01,-3.009033203125000000e-02
7.000000000000000000e+00,1.600000000000000000e+01,1.600000000000000000e+01,6.000000000000000000e+00,6.000000000000000000e+00,2.000000000000000000e+00,2.000000000000000000e+00,1.000000000000000000e+00,3.834838867187500000e-01,1.067504882812500000e-01,-9.168701171875000000e-01,-3.009033203125000000e-02
-1.900000000000000000e+01,1.400000000000000000e+01,-1.100000000000000000e+01,1.000000000000000000e+00,-2.000000000000000000e+00,-2.000000000000000000e+00,-2.000000000000000000e+00,-3.000000000000000000e+00,3.843383789062500000e-01,1.062011718750000000e-01,-9.166259765625000000e-01,-2.911376953125000000e-02
-1.000000000000000000e+00,-3.800000000000000000e+01,-1.600000000000000000e+01,-1.000000000000000000e+01,-3.000000000000000000e+00,-2.000000000000000000e+00,-7.000000000000000000e+00,-4.000000000000000000e+00,3.843383789062500000e-01,1.062011718750000000e-01,-9.166259765625000000e-01,-2.911376953125000000e-02
0.000000000000000000e+00,8.000000000000000000e+00,-1.000000000000000000e+01,-2.000000000000000000e+00,-2.000000000000000000e+00,-2.000000000000000000e+00,3.000000000000000000e+00,0.000000000000000000e+00,3.843383789062500000e-01,1.062011718750000000e-01,-9.166259765625000000e-01,-2.911376953125000000e-02
2.000000000000000000e+00,2.000000000000000000e+00,-1.200000000000000000e+01,1.000000000000000000e+00,-2.000000000000000000e+00,-3.000000000000000000e+00,-6.000000000000000000e+00,-2.000000000000000000e+00,3.843383789062500000e-01,1.062011718750000000e-01,-9.166259765625000000e-01,-2.911376953125000000e-02
-4.000000000000000000e+00,4.000000000000000000e+00,-6.000000000000000000e+00,-4.000000000000000000e+00,0.000000000000000000e+00,-4.000000000000000000e+00,-6.000000000000000000e+00,-6.000000000000000000e+00,3.856811523437500000e-01,1.050415039062500000e-01,-9.161987304687500000e-01,-2.862548828125000000e-02
1.900000000000000000e+01,2.700000000000000000e+01,2.500000000000000000e+01,9.000000000000000000e+00,3.000000000000000000e+00,0.000000000000000000e+00,6.000000000000000000e+00,5.000000000000000000e+00,3.856811523437500000e-01,1.050415039062500000e-01,-9.161987304687500000e-01,-2.862548828125000000e-02
6.000000000000000000e+00,1.900000000000000000e+01,1.000000000000000000e+01,6.000000000000000000e+00,6.000000000000000000e+00,5.000000000000000000e+00,4.000000000000000000e+00,4.000000000000000000e+00,3.856811523437500000e-01,1.050415039062500000e-01,-9.161987304687500000e-01,-2.862548828125000000e-02
-2.000000000000000000e+01,-4.600000000000000000e+01,-2.600000000000000000e+01,-7.000000000000000000e+00,-4.000000000000000000e+00,1.000000000000000000e+00,0.000000000000000000e+00,-2.000000000000000000e+00,3.856811523437500000e-01,1.050415039062500000e-01,-9.161987304687500000e-01,-2.862548828125000000e-02
-4.000000000000000000e+00,-6.000000000000000000e+00,-1.000000000000000000e+00,-4.000000000000000000e+00,-6.000000000000000000e+00,-3.000000000000000000e+00,-4.000000000000000000e+00,0.000000000000000000e+00,3.868408203125000000e-01,1.036987304687500000e-01,-9.158325195312500000e-01,-2.844238281250000000e-02
3.000000000000000000e+00,1.400000000000000000e+01,-9.000000000000000000e+00,-2.000000000000000000e+00,-2.000000000000000000e+00,-4.000000000000000000e+00,-8.000000000000000000e+00,0.000000000000000000e+00,3.868408203125000000e-01,1.036987304687500000e-01,-9.158325195312500000e-01,-2.844238281250000000e-02
4.000000000000000000e+00,-2.900000000000000000e+01,1.500000000000000000e+01,1.400000000000000000e+01,8.000000000000000000e+00,7.000000000000000000e+00,4.000000000000000000e+00,-3.000000000000000000e+00,3.868408203125000000e-01,1.036987304687500000e-01,-9.158325195312500000e-01,-2.844238281250000000e-02
-4.000000000000000000e+00,-5.000000000000000000e+00,-2.600000000000000000e+01,-3.400000000000000000e+01,-1.200000000000000000e+01,-6.000000000000000000e+00,-1.000000000000000000e+00,-1.000000000000000000e+00,3.868408203125000000e-01,1.036987304687500000e-01,-9.158325195312500000e-01,-2.844238281250000000e-02
3.000000000000000000e+00,6.000000000000000000e+00,8.000000000000000000e+00,-3.000000000000000000e+00,-3.000000000000000000e+00,-5.000000000000000000e+00,-3.000000000000000000e+00,3.000000000000000000e+00,3.878173828125000000e-01,1.033935546875000000e-01,-9.154663085937500000e-01,-2.807617187500000000e-02
2.000000000000000000e+00,-6.000000000000000000e+00,-2.200000000000000000e+01,-5.000000000000000000e+00,-5.000000000000000000e+00,-5.000000000000000000e+00,0.000000000000000000e+00,-3.000000000000000000e+00,3.878173828125000000e-01,1.033935546875000000e-01,-9.154663085937500000e-01,-2.807617187500000000e-02
1.400000000000000000e+01,8.000000000000000000e+00,-1.100000000000000000e+01,-4.000000000000000000e+00,-4.000000000000000000e+00,2.000000000000000000e+00,3.000000000000000000e+00,1.000000000000000000e+00,3.878173828125000000e-01,1.033935546875000000e-01,-9.154663085937500000e-01,-2.807617187500000000e-02
3.000000000000000000e+00,1.300000000000000000e+01,1.800000000000000000e+01,1.500000000000000000e+01,9.000000000000000000e+00,3.000000000000000000e+00,5.000000000000000000e+00,-3.000000000000000000e+00,3.878173828125000000e-01,1.033935546875000000e-01,-9.154663085937500000e-01,-2.807617187500000000e-02
-2.000000000000000000e+01,-2.600000000000000000e+01,-9.000000000000000000e+00,7.000000000000000000e+00,5.000000000000000000e+00,5.000000000000000000e+00,8.000000000000000000e+00,0.000000000000000000e+00,3.884277343750000000e-01,1.045532226562500000e-01,-9.151000976562500000e-01,-2.777099609375000000e-02
1.000000000000000000e+01,1.000000000000000000e+01,1.800000000000000000e+01,-1.000000000000000000e+00,2.000000000000000000e+00,3.000000000000000000e+00,4.000000000000000000e+00,2.000000000000000000e+00,3.884277343750000000e-01,1.045532226562500000e-01,-9.151000976562500000e-01,-2.777099609375000000e-02
3.000000000000000000e+00,-1.000000000000000000e+00,1.000000000000000000e+01,-1.100000000000000000e+01,-7.000000000000000000e+00,-6.000000000000000000e+00,-8.000000000000000000e+00,-8.000000000000000000e+00,3.884277343750000000e-01,1.045532226562500000e-01,-9.151000976562500000e-01,-2.777099609375000000e-02
1.300000000000000000e+01,2.300000000000000000e+01,4.000000000000000000e+00,9.000000000000000000e+00,-7.000000000000000000e+00,-5.000000000000000000e+00,-2.000000000000000000e+00,1.000000000000000000e+00,3.884277343750000000e-01,1.045532226562500000e-01,-9.151000976562500000e-01,-2.777099609375000000e-02
2.000000000000000000e+00,-3.900000000000000000e+01,-2.200000000000000000e+01,-5.000000000000000000e+00,3.000000000000000000e+00,3.000000000000000000e+00,-2.000000000000000000e+00,-1.000000000000000000e+00,3.886718750000000000e-01,1.056518554687500000e-01,-9.148559570312500000e-01,-2.819824218750000000e-02
-1.000000000000000000e+01,2.400000000000000000e+01,1.900000000000000000e+01,7.000000000000000000e+00,8.000000000000000000e+00,8.000000000000000000e+00,0.000000000000000000e+00,2.000000000000000000e+00,3.886718750000000000e-01,1.056518554687500000e-01,-9.148559570312500000e-01,-2.819824218750000000e-02
-1.000000000000000000e+01,-3.100000000000000000e+01,-1.000000000000000000e+01,-6.000000000000000000e+00,-7.000000000000000000e+00,-6.000000000000000000e+00,-6.000000000000000000e+00,-5.000000000000000000e+00,3.886718750000000000e-01,1.056518554687500000e-01,-9.148559570312500000e-01,-2.819824218750000000e-02
-1.400000000000000000e+01,-2.000000000000000000e+00,3.800000000000000000e+01,3.000000000000000000e+00,-2.000000000000000000e+00,-1.000000000000000000e+00,-8.000000000000000000e+00,-4.000000000000000000e+00,3.886718750000000000e-01,1.056518554687500000e-01,-9.148559570312500000e-01,-2.819824218750000000e-02
1.000000000000000000e+01,6.000000000000000000e+00,-2.700000000000000000e+01,-2.000000000000000000e+00,-4.000000000000000000e+00,-3.000000000000000000e+00,6.000000000000000000e+00,0.000000000000000000e+00,3.889770507812500000e-01,1.065063476562500000e-01,-9.146118164062500000e-01,-2.868652343750000000e-02
1.000000000000000000e+01,8.000000000000000000e+00,4.000000000000000000e+01,5.000000000000000000e+00,1.000000000000000000e+00,2.000000000000000000e+00,-1.000000000000000000e+00,1.000000000000000000e+00,3.889770507812500000e-01,1.065063476562500000e-01,-9.146118164062500000e-01,-2.868652343750000000e-02
0.000000000000000000e+00,1.000000000000000000e+01,-1.300000000000000000e+01,-4.000000000000000000e+00,-5.000000000000000000e+00,-3.000000000000000000e+00,-1.000000000000000000e+01,2.000000000000000000e+00,3.889770507812500000e-01,1.065063476562500000e-01,-9.146118164062500000e-01,-2.868652343750000000e-02
6.000000000000000000e+00,-1.000000000000000000e+00,-4.000000000000000000e+00,1.000000000000000000e+00,5.000000000000000000e+00,6.000000000000000000e+00,1.300000000000000000e+01,4.000000000000000000e+00,3.889770507812500000e-01,1.065063476562500000e-01,-9.146118164062500000e-01,-2.868652343750000000e-02
0.000000000000000000e+00,-8.000000000000000000e+00,9.000000000000000000e+00,7.000000000000000000e+00,4.000000000000000000e+00,2.000000000000000000e+00,-1.000000000000000000e+00,-1.000000000000000000e+00,3.889160156250000000e-01,1.078491210937500000e-01,-9.144897460937500000e-01,-2.923583984375000000e-02
-3.000000000000000000e+00,-1.000000000000000000e+01,1.000000000000000000e+00,-5.000000000000000000e+00,-8.000000000000000000e+00,-7.000000000000000000e+00,-4.000000000000000000e+00,-5.000000000000000000e+00,3.889160156250000000e-01,1.078491210937500000e-01,-9.144897460937500000e-01,-2.923583984375000000e-02
3.000000000000000000e+00,2.100000000000000000e+01,-3.600000000000000000e+01,-4.000000000000000000e+00,-1.000000000000000000e+00,-7.000000000000000000e+00,2.000000000000000000e+00,4.000000000000000000e+00,3.889160156250000000e-01,1.078491210937500000e-01,-9.144897460937500000e-01,-2.923583984375000000e-02
-1.100000000000000000e+01,-1.700000000000000000e+01,3.000000000000000000e+01,1.000000000000000000e+00,-5.000000000000000000e+00,-7.000000000000000000e+00,-1.100000000000000000e+01,-8.000000000000000000e+00,3.889160156250000000e-01,1.078491210937500000e-01,-9.144897460937500000e-01,-2.923583984375000000e-02
1.000000000000000000e+01,1.400000000000000000e+01,1.300000000000000000e+01,-1.000000000000000000e+00,1.000000000000000000e+00,3.000000000000000000e+00,2.000000000000000000e+00,2.000000000000000000e+00,3.886718750000000000e-01,1.091308593750000000e-01,-9.144287109375000000e-01,-2.966308593750000000e-02
-2.200000000000000000e+01,-2.000000000000000000e+00,-1.000000000000000000e+00,0.000000000000000000e+00,0.000000000000000000e+00,-1.000000000000000000e+00,-2.000000000000000000e+00,-3.000000000000000000e+00,3.886718750000000000e-01,1.091308593750000000e-01,-9.144287109375000000e-01,-2.966308593750000000e-02
7.000000000000000000e+00,-2.800000000000000000e+01,-3.900000000000000000e+01,-1.000000000000000000e+01,-1.000000000000000000e+00,-2.000000000000000000e+00,5.000000000000000000e+00,-1.000000000000000000e+00,3.886718750000000000e-01,1.091308593750000000e-01,-9.144287109375000000e-01,-2.966308593750000000e-02
-1.800000000000000000e+01,2.000000000000000000e+00,-4.100000000000000000e+01,-3.000000000000000000e+00,-2.000000000000000000e+00,-4.000000000000000000e+00,-7.000000000000000000e+00,-1.000000000000000000e+00,3.886718750000000000e-01,1.091308593750000000e-01,-9.144287109375000000e-01,-2.966308593750000000e-02
1.000000000000000000e+00,-2.000000000000000000e+00,7.000000000000000000e+00,-2.000000000000000000e+00,-5.000000000000000000e+00,0.000000000000000000e+00,6.000000000000000000e+00,1.000000000000000000e+00,3.885498046875000000e-01,1.099243164062500000e-01,-9.143676757812500000e-01,-2.954101562500000000e-02
7.000000000000000000e+00,-1.200000000000000000e+01,1.000000000000000000e+00,-3.000000000000000000e+00,-2.000000000000000000e+00,-3.000000000000000000e+00,-8.000000000000000000e+00,0.000000000000000000e+00,3.885498046875000000e-01,1.099243164062500000e-01,-9.143676757812500000e-01,-2.954101562500000000e-02
7.000000000000000000e+00,2.900000000000000000e+01,2.000000000000000000e+01,5.000000000000000000e+00,-4.000000000000000000e+00,1.000000000000000000e+00,0.000000000000000000e+00,1.000000000000000000e+00,3.885498046875000000e-01,1.099243164062500000e-01,-9.143676757812500000e-01,-2.954101562500000000e-02
4.000000000000000000e+00,1.000000000000000000e+01,5.000000000000000000e+00,1.400000000000000000e+01,1.300000000000000000e+01,5.000000000000000000e+00,-3.000000000000000000e+00,-4.000000000000000000e+00,3.885498046875000000e-01,1.099243164062500000e-01,-9.143676757812500000e-01,-2.954101562500000000e-02
-1.200000000000000000e+01,1.000000000000000000e+00,-1.100000000000000000e+01,-3.000000000000000000e+00,1.000000000000000000e+00,1.000000000000000000e+00,-7.000000000000000000e+00,-1.000000000000000000e+00,3.884277343750000000e-01,1.102905273437500000e-01,-9.144287109375000000e-01,-2.899169921875000000e-02
1.000000000000000000e+00,-2.300000000000000000e+01,1.100000000000000000e+01,-6.000000000000000000e+00,-4.000000000000000000e+00,-7.000000000000000000e+00,-5.000000000000000000e+00,-3.000000000000000000e+00,3.884277343750000000e-01,1.102905273437500000e-01,-9.144287109375000000e-01,-2.899169921875000000e-02
-4.000000000000000000e+00,-2.000000000000000000e+01,1.000000000000000000e+01,0.000000000000000000e+00,-2.000000000000000000e+00,3.000000000000000000e+00,4.000000000000000000e+00,-4.000000000000000000e+00,3.884277343750000000e-01,1.102905273437500000e-01,-9.144287109375000000e-01,-2.899169921875000000e-02
-1.300000000000000000e+01,-1.200000000000000000e+01,-4.000000000000000000e+00,-7.000000000000000000e+00,-5.000000000000000000e+00,-1.000000000000000000e+00,-2.000000000000000000e+00,-4.000000000000000000e+00,3.884277343750000000e-01,1.102905273437500000e-01,-9.144287109375000000e-01,-2.899169921875000000e-02
9.000000000000000000e+00,4.000000000000000000e+01,1.200000000000000000e+01,0.000000000000000000e+00,-5.000000000000000000e+00,-6.000000000000000000e+00,-1.300000000000000000e+01,-2.000000000000000000e+00,3.884887695312500000e-01,1.099853515625000000e-01,-9.144287109375000000e-01,-2.844238281250000000e-02
2.100000000000000000e+01,2.300000000000000000e+01,1.800000000000000000e+01,7.000000000000000000e+00,-2.000000000000000000e+00,-4.000000000000000000e+00,-1.000000000000000000e+01,-2.000000000000000000e+00,3.884887695312500000e-01,1.099853515625000000e-01,-9.144287109375000000e-01,-2.844238281250000000e-02
-2.500000000000000000e+01,-2.500000000000000000e+01,-7.000000000000000000e+01,-5.000000000000000000e+00,4.000000000000000000e+00,6.000000000000000000e+00,7.000000000000000000e+00,-2.000000000000000000e+00,3.884887695312500000e-01,1.099853515625000000e-01,-9.144287109375000000e-01,-2.844238281250000000e-02
-1.100000000000000000e+01,-2.100000000000000000e+01,5.800000000000000000e+01,-1.200000000000000000e+01,-9.000000000000000000e+00,-5.000000000000000000e+00,1.000000000000000000e+00,0.000000000000000000e+00,3.884887695312500000e-01,1.099853515625000000e-01,-9.144287109375000000e-01,-2.844238281250000000e-02
0.000000000000000000e+00,-1.000000000000000000e+00,-9.000000000000000000e+00,0.000000000000000000e+00,4.000000000000000000e+00,1.000000000000000000e+00,1.000000000000000000e+00,1.000000000000000000e+00,3.883666992187500000e-01,1.091918945312500000e-01,-9.146118164062500000e-01,-2.783203125000000000e-02
0.000000000000000000e+00,2.000000000000000000e+00,-2.200000000000000000e+01,-7.000000000000000000e+00,-5.000000000000000000e+00,-2.000000000000000000e+00,-2.000000000000000000e+00,-3.000000000000000000e+00,3.883666992187500000e-01,1.091918945312500000e-01,-9.146118164062500000e-01,-2.783203125000000000e-02
9.000000000000000000e+00,1.000000000000000000e+01,3.300000000000000000e+01,5.000000000000000000e+00,-1.000000000000000000e+00,1.000000000000000000e+00,2.000000000000000000e+00,4.000000000000000000e+00,3.883666992187500000e-01,1.091918945312500000e-01,-9.146118164062500000e-01,-2.783203125000000000e-02
2.600000000000000000e+01,3.000000000000000000e+01,-9.000000000000000000e+00,7.000000000000000000e+00,7.000000000000000000e+00,0.000000000000000000e+00,-1.000000000000000000e+00,4.000000000000000000e+00,3.883666992187500000e-01,1.091918945312500000e-01,-9.146118164062500000e-01,-2.783203125000000000e-02
-3.000000000000000000e+01,-4.000000000000000000e+00,-3.600000000000000000e+01,-7.000000000000000000e+00,-9.000000000000000000e+00,-5.000000000000000000e+00,4.000000000000000000e+00,-2.000000000000000000e+00,3.881225585937500000e-01,1.085205078125000000e-01,-9.147949218750000000e-01,-2.703857421875000000e-02
-9.000000000000000000e+00,-4.100000000000000000e+01,1.600000000000000000e+01,2.000000000000000000e+00,-3.000000000000000000e+00,-5.000000000000000000e+00,-2.000000000000000000e+00,-2.000000000000000000e+00,3.881225585937500000e-01,1.085205078125000000e-01,-9.147949218750000000e-01,-2.703857421875000000e-02
-5.000000000000000000e+00,-3.000000000000000000e+00,-4.000000000000000000e+00,-1.000000000000000000e+00,4.000000000000000000e+00,2.000000000000000000e+00,-3.000000000000000000e+00,-4.000000000000000000e+00,3.881225585937500000e-01,1.085205078125000000e-01,-9.147949218750000000e-01,-2.703857421875000000e-02
-2.000000000000000000e+00,1.000000000000000000e+00,-1.300000000000000000e+01,0.000000000000000000e+00,4.000000000000000000e+00,2.000000000000000000e+00,3.000000000000000000e+00,0.000000000000000000e+00,3.881225585937500000e-01,1.085205078125000000e-01,-9.147949218750000000e-01,-2.703857421875000000e-02
1.000000000000000000e+00,1.200000000000000000e+01,2.000000000000000000e+01,5.000000000000000000e+00,-7.000000000000000000e+00,-7.000000000000000000e+00,3.000000000000000000e+00,0.000000000000000000e+00,3.876953125000000000e-01,1.079101562500000000e-01,-9.151000976562500000e-01,-2.630615234375000000e-02
8.000000000000000000e+00,2.300000000000000000e+01,-3.700000000000000000e+01,-5.000000000000000000e+00,0.000000000000000000e+00,9.000000000000000000e+00,6.000000000000000000e+00,2.000000000000000000e+00,3.876953125000000000e-01,1.079101562500000000e-01,-9.151000976562500000e-01,-2.630615234375000000e-02
-1.400000000000000000e+01,-2.000000000000000000e+01,2.000000000000000000e+01,4.000000000000000000e+00,7.000000000000000000e+00,-4.000000000000000000e+00,-3.000000000000000000e+00,-5.000000000000000000e+00,3.876953125000000000e-01,1.079101562500000000e-01,-9.151000976562500000e-01,-2.630615234375000000e-02
5.000000000000000000e+00,5.000000000000000000e+00,-5.000000000000000000e+00,1.000000000000000000e+00,4.000000000000000000e+00,6.000000000000000000e+00,1.000000000000000000e+00,3.000000000000000000e+00,3.876953125000000000e-01,1.079101562500000000e-01,-9.151000976562500000e-01,-2.630615234375000000e-02
7.000000000000000000e+00,-1.400000000000000000e+01,6.000000000000000000e+00,9.000000000000000000e+00,4.000000000000000000e+00,2.000000000000000000e+00,-1.000000000000000000e+00,-1.000000000000000000e+00,3.870849609375000000e-01,1.073608398437500000e-01,-9.154052734375000000e-01,-2.575683593750000000e-02
6.000000000000000000e+00,9.000000000000000000e+00,8.000000000000000000e+00,-2.000000000000000000e+00,2.000000000000000000e+00,2.000000000000000000e+00,-6.000000000000000000e+00,-4.000000000000000000e+00,3.870849609375000000e-01,1.073608398437500000e-01,-9.154052734375000000e-01,-2.575683593750000000e-02
-7.000000000000000000e+00,1.800000000000000000e+01,-8.000000000000000000e+00,-9.000000000000000000e+00,-4.000000000000000000e+00,-1.000000000000000000e+00,1.000000000000000000e+00,-1.000000000000000000e+00,3.870849609375000000e-01,1.073608398437500000e-01,-9.154052734375000000e-01,-2.575683593750000000e-02
2.800000000000000000e+01,1.300000000000000000e+01,-1.200000000000000000e+01,3.000000000000000000e+00,-5.000000000000000000e+00,2.000000000000000000e+00,5.000000000000000000e+00,3.000000000000000000e+00,3.870849609375000000e-01,1.073608398437500000e-01,-9.154052734375000000e-01,-2.575683593750000000e-02
-4.300000000000000000e+01,-2.400000000000000000e+01,-1.000000000000000000e+00,-1.200000000000000000e+01,-8.000000000000000000e+00,-7.000000000000000000e+00,-3.000000000000000000e+00,-6.000000000000000000e+00,3.863525390625000000e-01,1.066894531250000000e-01,-9.157714843750000000e-01,-2.587890625000000000e-02
-1.000000000000000000e+00,-1.000000000000000000e+00,-8.000000000000000000e+00,3.000000000000000000e+00,0.000000000000000000e+00,-3.000000000000000000e+00,-5.000000000000000000e+00,0.000000000000000000e+00,3.863525390625000000e-01,1.066894531250000000e-01,-9.157714843750000000e-01,-2.587890625000000000e-02
-1.000000000000000000e+00,-6.000000000000000000e+00,1.100000000000000000e+01,2.000000000000000000e+00,3.000000000000000000e+00,2.000000000000000000e+00,-1.000000000000000000e+00,0.000000000000000000e+00,3.863525390625000000e-01,1.066894531250000000e-01,-9.157714843750000000e-01,-2.587890625000000000e-02
4.000000000000000000e+00,-8.000000000000000000e+00,-2.000000000000000000e+00,-2.000000000000000000e+00,-2.000000000000000000e+00,-4.000000000000000000e+00,-4.000000000000000000e+00,-2.000000000000000000e+00,3.863525390625000000e-01,1.066894531250000000e-01,-9.157714843750000000e-01,-2.587890625000000000e-02
2.500000000000000000e+01,3.500000000000000000e+01,1.000000000000000000e+00,5.000000000000000000e+00,3.000000000000000000e+00,3.000000000000000000e+00,0.000000000000000000e+00,3.000000000000000000e+00,3.856201171875000000e-01,1.062011718750000000e-01,-9.161376953125000000e-01,-2.624511718750000000e-02
-5.000000000000000000e+00,-2.400000000000000000e+01,-5.900000000000000000e+01,-1.000000000000000000e+01,-6.000000000000000000e+00,-2.000000000000000000e+00,4.000000000000000000e+00,-1.000000000000000000e+00,3.856201171875000000e-01,1.062011718750000000e-01,-9.161376953125000000e-01,-2.624511718750000000e-02
-1.200000000000000000e+01,4.000000000000000000e+00,-1.000000000000000000e+00,-2.000000000000000000e+00,-1.000000000000000000e+00,-2.000000000000000000e+00,-7.000000000000000000e+00,-2.000000000000000000e+00,3.856201171875000000e-01,1.062011718750000000e-01,-9.161376953125000000e-01,-2.624511718750000000e-02
-2.000000000000000000e+00,1.000000000000000000e+00,1.000000000000000000e+01,1.000000000000000000e+00,2.000000000000000000e+00,2.000000000000000000e+00,3.000000000000000000e+00,1.000000000000000000e+00,3.856201171875000000e-01,1.062011718750000000e-01,-9.161376953125000000e-01,-2.624511718750000000e-02
-1.000000000000000000e+00,4.000000000000000000e+00,3.000000000000000000e+00,-2.000000000000000000e+00,-6.000000000000000000e+00,-1.000000000000000000e+00,-4.000000000000000000e+00,-1.000000000000000000e+00,3.850097656250000000e-01,1.056518554687500000e-01,-9.164428710937500000e-01,-2.655029296875000000e-02
-3.000000000000000000e+00,0.000000000000000000e+00,3.200000000000000000e+01,0.000000000000000000e+00,1.000000000000000000e+01,2.000000000000000000e+00,1.000000000000000000e+00,2.000000000000000000e+00,3.850097656250000000e-01,1.056518554687500000e-01,-9.164428710937500000e-01,-2.655029296875000000e-02
8.000000000000000000e+00,5.000000000000000000e+00,-4.100000000000000000e+01,2.000000000000000000e+00,1.000000000000000000e+00,-1.000000000000000000e+00,-7.000000000000000000e+00,-2.000000000000000000e+00,3.850097656250000000e-01,1.056518554687500000e-01,-9.164428710937500000e-01,-2.655029296875000000e-02
-1.300000000000000000e+01,-1.100000000000000000e+01,9.000000000000000000e+00,-1.400000000000000000e+01,-1.100000000000000000e+01,-6.000000000000000000e+00,-7.000000000000000000e+00,-6.000000000000000000e+00,3.850097656250000000e-01,1.056518554687500000e-01,-9.164428710937500000e-01,-2.655029296875000000e-02
2.000000000000000000e+00,-1.200000000000000000e+01,1.900000000000000000e+01,3.000000000000000000e+00,3.000000000000000000e+00,1.000000000000000000e+00,3.000000000000000000e+00,-2.000000000000000000e+00,3.845825195312500000e-01,1.054077148437500000e-01,-9.166870117187500000e-01,-2.667236328125000000e-02
1.000000000000000000e+00,1.800000000000000000e+01,9.000000000000000000e+00,4.000000000000000000e+00,1.000000000000000000e+00,0.000000000000000000e+00,2.000000000000000000e+00,0.000000000000000000e+00,3.845825195312500000e-01,1.054077148437500000e-01,-9.166870117187500000e-01,-2.667236328125000000e-02
1.000000000000000000e+00,-3.300000000000000000e+01,9.000000000000000000e+00,-2.000000000000000000e+00,-6.000000000000000000e+00,-2.000000000000000000e+00,-2.000000000000000000e+00,3.000000000000000000e+00,3.845825195312500000e-01,1.054077148437500000e-01,-9.166870117187500000e-01,-2.667236328125000000e-02
0.000000000000000000e+00,9.000000000000000000e+00,-9.000000000000000000e+00,-1.100000000000000000e+01,-5.000000000000000000e+00,0.000000000000000000e+00,1.000000000000000000e+00,-2.000000000000000000e+00,3.845825195312500000e-01,1.054077148437500000e-01,-9.166870117187500000e-01,-2.667236328125000000e-02
2.000000000000000000e+00,1.100000000000000000e+01,1.900000000000000000e+01,7.000000000000000000e+00,9.000000000000000000e+00,0.000000000000000000e+00,-4.000000000000000000e+00,0.000000000000000000e+00,3.842773437500000000e-01,1.055297851562500000e-01,-9.168090820312500000e-01,-2.667236328125000000e-02
-1.600000000000000000e+01,-1.700000000000000000e+01,-3.800000000000000000e+01,-6.000000000000000000e+00,-1.000000000000000000e+01,-6.000000000000000000e+00,-7.000000000000000000e+00,-6.000000000000000000e+00,3.842773437500000000e-01,1.055297851562500000e-01,-9.168090820312500000e-01,-2.667236328125000000e-02
3.000000000000000000e+00,2.000000000000000000e+01,2.400000000000000000e+01,-6.000000000000000000e+00,-2.000000000000000000e+00,-3.000000000000000000e+00,1.000000000000000000e+00,-2.000000000000000000e+00,3.842773437500000000e-01,1.055297851562500000e-01,-9.168090820312500000e-01,-2.667236328125000000e-02
-5.000000000000000000e+00,-2.000000000000000000e+01,-1.900000000000000000e+01,4.000000000000000000e+00,0.000000000000000000e+00,-4.000000000000000000e+00,-7.000000000000000000e+00,-2.000000000000000000e+00,3.842773437500000000e-01,1.055297851562500000e-01,-9.168090820312500000e-01,-2.667236328125000000e-02
1.100000000000000000e+01,1.000000000000000000e+00,1.600000000000000000e+01,-7.000000000000000000e+00,-2.000000000000000000e+00,0.000000000000000000e+00,3.000000000000000000e+00,2.000000000000000000e+00,3.840332031250000000e-01,1.054687500000000000e-01,-9.168701171875000000e-01,-2.697753906250000000e-02
4.000000000000000000e+00,-1.000000000000000000e+00,1.000000000000000000e+00,7.000000000000000000e+00,5.000000000000000000e+00,5.000000000000000000e+00,1.000000000000000000e+00,2.000000000000000000e+00,3.840332031250000000e-01,1.054687500000000000e-01,-9.168701171875000000e-01,-2.697753906250000000e-02
-3.000000000000000000e+00,9.000000000000000000e+00,1.800000000000000000e+01,6.000000000000000000e+00,-1.000000000000000000e+00,-2.000000000000000000e+00,-1.000000000000000000e+00,-3.000000000000000000e+00,3.840332031250000000e-01,1.054687500000000000e-01,-9.168701171875000000e-01,-2.697753906250000000e-02
6.000000000000000000e+00,7.000000000000000000e+00,-1.300000000000000000e+01,6.000000000000000000e+00,5.000000000000000000e+00,4.000000000000000000e+00,-5.000000000000000000e+00,-2.000000000000000000e+00,3.840332031250000000e-01,1.054687500000000000e-01,-9.168701171875000000e-01,-2.697753906250000000e-02
-1.000000000000000000e+00,0.000000000000000000e+00,-1.900000000000000000e+01,-1.100000000000000000e+01,-4.000000000000000000e+00,0.000000000000000000e+00,-4.000000000000000000e+00,-6.000000000000000000e+00,3.837890625000000000e-01,1.055297851562500000e-01,-9.169921875000000000e-01,-2.734375000000000000e-02
-1.500000000000000000e+01,-3.400000000000000000e+01,8.000000000000000000e+00,-1.000000000000000000e+00,-4.000000000000000000e+00,-2.000000000000000000e+00,1.000000000000000000e+00,-4.000000000000000000e+00,3.837890625000000000e-01,1.055297851562500000e-01,-9.169921875000000000e-01,-2.734375000000000000e-02
-2.000000000000000000e+00,-1.000000000000000000e+00,-4.000000000000000000e+00,0.000000000000000000e+00,-4.000000000000000000e+00,-4.000000000000000000e+00,-5.000000000000000000e+00,0.000000000000000000e+00,3.837890625000000000e-01,1.055297851562500000e-01,-9.169921875000000000e-01,-2.734375000000000000e-02
4.000000000000000000e+00,1.100000000000000000e+01,1.800000000000000000e+01,7.000000000000000000e+00,4.000000000000000000e+00,0.000000000000000000e+00,5.000000000000000000e+00,3.000000000000000000e+00,3.837890625000000000e-01,1.055297851562500000e-01,-9.169921875000000000e-01,-2.734375000000000000e-02
-4.000000000000000000e+00,3.000000000000000000e+00,-1.600000000000000000e+01,-1.000000000000000000e+00,-3.000000000000000000e+00,-3.000000000000000000e+00,-1.000000000000000000e+00,-2.000000000000000000e+00,3.836059570312500000e-01,1.055297851562500000e-01,-9.170532226562500000e-01,-2.789306640625000000e-02
1.400000000000000000e+01,1.900000000000000000e+01,1.900000000000000000e+01,2.000000000000000000e+00,-2.000000000000000000e+00,-2.000000000000000000e+00,-9.000000000000000000e+00,-1.000000000000000000e+00,3.836059570312500000e-01,1.055297851562500000e-01,-9.170532226562500000e-01,-2.789306640625000000e-02
-3.500000000000000000e+01,-2.500000000000000000e+01,2.100000000000000000e+01,-3.000000000000000000e+00,-5.000000000000000000e+00,-2.000000000000000000e+00,-2.000000000000000000e+00,2.000000000000000000e+00,3.834228515625000000e-01,1.052246093750000000e-01,-9.171142578125000000e-01,-2.856445312500000000e-02
-2.000000000000000000e+01,-2.300000000000000000e+01,-2.400000000000000000e+01,-4.000000000000000000e+00,0.000000000000000000e+00,-2.000000000000000000e+00,8.000000000000000000e+00,-2.000000000000000000e+00,3.834228515625000000e-01,1.052246093750000000e-01,-9.171142578125000000e-01,-2.856445312500000000e-02
