-5.000000000000000000e+00,2.000000000000000000e+00,-4.000000000000000000e+00,1.600000000000000000e+01,3.000000000000000000e+00,2.000000000000000000e+00,1.000000000000000000e+00,-1.000000000000000000e+00,3.937988281250000000e-01,1.737670898437500000e-01,-8.996582031250000000e-01,-7.281494140625000000e-02
6.000000000000000000e+00,4.000000000000000000e+00,1.400000000000000000e+01,-1.200000000000000000e+01,-7.000000000000000000e+00,-6.000000000000000000e+00,-1.900000000000000000e+01,-1.000000000000000000e+00,3.937988281250000000e-01,1.737670898437500000e-01,-8.996582031250000000e-01,-7.281494140625000000e-02
6.000000000000000000e+00,2.000000000000000000e+00,3.400000000000000000e+01,1.500000000000000000e+01,-1.000000000000000000e+00,-4.000000000000000000e+00,5.000000000000000000e+00,1.000000000000000000e+00,3.933105468750000000e-01,1.741943359375000000e-01,-8.997802734375000000e-01,-7.342529296875000000e-02
-4.000000000000000000e+00,-9.000000000000000000e+00,-5.600000000000000000e+01,-1.900000000000000000e+01,-1.000000000000000000e+00,5.000000000000000000e+00,3.100000000000000000e+01,-2.000000000000000000e+00,3.933105468750000000e-01,1.741943359375000000e-01,-8.997802734375000000e-01,-7.342529296875000000e-02
3.000000000000000000e+00,4.000000000000000000e+00,5.200000000000000000e+01,9.000000000000000000e+00,-3.000000000000000000e+00,-6.000000000000000000e+00,-7.000000000000000000e+00,-2.000000000000000000e+00,3.933105468750000000e-01,1.741943359375000000e-01,-8.997802734375000000e-01,-7.342529296875000000e-02
-9.000000000000000000e+00,-1.300000000000000000e+01,-3.300000000000000000e+01,3.000000000000000000e+00,-3.000000000000000000e+00,0.000000000000000000e+00,3.000000000000000000e+00,0.000000000000000000e+00,3.933105468750000000e-01,1.741943359375000000e-01,-8.997802734375000000e-01,-7.342529296875000000e-02
-2.000000000000000000e+00,-2.000000000000000000e+00,-5.700000000000000000e+01,-1.900000000000000000e+01,-1.000000000000000000e+00,3.000000000000000000e+00,1.700000000000000000e+01,-3.000000000000000000e+00,3.930053710937500000e-01,1.743164062500000000e-01,-8.998413085937500000e-01,-7.379150390625000000e-02
0.000000000000000000e+00,1.000000000000000000e+00,3.500000000000000000e+01,1.500000000000000000e+01,5.000000000000000000e+00,0.000000000000000000e+00,-5.000000000000000000e+00,0.000000000000000000e+00,3.930053710937500000e-01,1.743164062500000000e-01,-8.998413085937500000e-01,-7.379150390625000000e-02
-4.000000000000000000e+00,-4.000000000000000000e+00,-7.100000000000000000e+01,-2.200000000000000000e+01,-2.000000000000000000e+00,-2.000000000000000000e+00,7.000000000000000000e+00,2.000000000000000000e+00,3.930053710937500000e-01,1.743164062500000000e-01,-8.998413085937500000e-01,-7.379150390625000000e-02
2.000000000000000000e+00,6.000000000000000000e+00,2.100000000000000000e+01,-5.000000000000000000e+00,1.100000000000000000e+01,6.000000000000000000e+00,1.800000000000000000e+01,1.000000000000000000e+00,3.930053710937500000e-01,1.743164062500000000e-01,-8.998413085937500000e-01,-7.379150390625000000e-02
-9.000000000000000000e+00,-1.100000000000000000e+01,5.300000000000000000e+01,2.800000000000000000e+01,-1.600000000000000000e+01,-1.700000000000000000e+01,-2.800000000000000000e+01,-1.100000000000000000e+01,3.925170898437500000e-01,1.742553710937500000e-01,-9.000854492187500000e-01,-7.397460937500000000e-02
-7.000000000000000000e+00,-7.000000000000000000e+00,-1.900000000000000000e+01,-1.200000000000000000e+01,-1.000000000000000000e+01,0.000000000000000000e+00,0.000000000000000000e+00,-3.000000000000000000e+00,3.925170898437500000e-01,1.742553710937500000e-01,-9.000854492187500000e-01,-7.397460937500000000e-02
-6.000000000000000000e+00,1.000000000000000000e+00,-3.000000000000000000e+00,-9.000000000000000000e+00,1.100000000000000000e+01,5.000000000000000000e+00,3.000000000000000000e+00,1.000000000000000000e+00,3.925170898437500000e-01,1.742553710937500000e-01,-9.000854492187500000e-01,-7.397460937500000000e-02
1.000000000000000000e+00,2.000000000000000000e+00,1.200000000000000000e+01,1.200000000000000000e+01,6.000000000000000000e+00,-2.000000000000000000e+00,0.000000000000000000e+00,2.000000000000000000e+00,3.925170898437500000e-01,1.742553710937500000e-01,-9.000854492187500000e-01,-7.397460937500000000e-02
5.000000000000000000e+00,-1.000000000000000000e+00,-4.400000000000000000e+01,-1.900000000000000000e+01,-5.000000000000000000e+00,-4.000000000000000000e+00,-9.000000000000000000e+00,2.000000000000000000e+00,3.922119140625000000e-01,1.743164062500000000e-01,-9.002075195312500000e-01,-7.360839843750000000e-02
2.000000000000000000e+00,2.000000000000000000e+00,4.300000000000000000e+01,-4.000000000000000000e+00,-2.000000000000000000e+00,0.000000000000000000e+00,8.000000000000000000e+00,-2.000000000000000000e+00,3.922119140625000000e-01,1.743164062500000000e-01,-9.002075195312500000e-01,-7.360839843750000000e-02
0.000000000000000000e+00,1.000000000000000000e+01,-5.000000000000000000e+00,1.700000000000000000e+01,-2.000000000000000000e+00,-4.000000000000000000e+00,-2.000000000000000000e+01,-4.000000000000000000e+00,3.922119140625000000e-01,1.743164062500000000e-01,-9.002075195312500000e-01,-7.360839843750000000e-02
-1.200000000000000000e+01,-2.800000000000000000e+01,-5.800000000000000000e+01,-7.000000000000000000e+01,-1.500000000000000000e+01,-3.000000000000000000e+00,1.500000000000000000e+01,-3.000000000000000000e+00,3.922119140625000000e-01,1.743164062500000000e-01,-9.002075195312500000e-01,-7.360839843750000000e-02
4.000000000000000000e+00,0.000000000000000000e+00,-7.000000000000000000e+00,-1.400000000000000000e+01,-1.000000000000000000e+00,1.000000000000000000e+00,-5.000000000000000000e+00,-6.000000000000000000e+00,3.918457031250000000e-01,1.740722656250000000e-01,-9.004516601562500000e-01,-7.312011718750000000e-02
-4.000000000000000000e+00,4.000000000000000000e+00,4.200000000000000000e+01,2.900000000000000000e+01,1.000000000000000000e+00,-5.000000000000000000e+00,-4.000000000000000000e+00,-1.000000000000000000e+00,3.918457031250000000e-01,1.740722656250000000e-01,-9.004516601562500000e-01,-7.312011718750000000e-02
-4.000000000000000000e+00,-2.000000000000000000e+00,-3.400000000000000000e+01,-2.400000000000000000e+01,-4.000000000000000000e+00,-1.000000000000000000e+00,-8.000000000000000000e+00,-3.000000000000000000e+00,3.918457031250000000e-01,1.740722656250000000e-01,-9.004516601562500000e-01,-7.312011718750000000e-02
3.000000000000000000e+00,5.000000000000000000e+00,1.000000000000000000e+01,2.700000000000000000e+01,6.000000000000000000e+00,7.000000000000000000e+00,5.000000000000000000e+00,3.000000000000000000e+00,3.918457031250000000e-01,1.740722656250000000e-01,-9.004516601562500000e-01,-7.312011718750000000e-02
-2.000000000000000000e+00,-2.000000000000000000e+00,-1.200000000000000000e+01,-2.000000000000000000e+01,-6.000000000000000000e+00,-4.000000000000000000e+00,0.000000000000000000e+00,-2.000000000000000000e+00,3.916015625000000000e-01,1.738281250000000000e-01,-9.006347656250000000e-01,-7.281494140625000000e-02
3.000000000000000000e+00,0.000000000000000000e+00,-3.000000000000000000e+00,-1.000000000000000000e+01,0.000000000000000000e+00,1.000000000000000000e+00,-9.000000000000000000e+00,4.000000000000000000e+00,3.916015625000000000e-01,1.738281250000000000e-01,-9.006347656250000000e-01,-7.281494140625000000e-02
-4.000000000000000000e+00,-1.200000000000000000e+01,7.000000000000000000e+00,2.100000000000000000e+01,-5.000000000000000000e+00,-1.000000000000000000e+00,-4.000000000000000000e+00,-4.000000000000000000e+00,3.916015625000000000e-01,1.738281250000000000e-01,-9.006347656250000000e-01,-7.281494140625000000e-02
-3.000000000000000000e+00,3.000000000000000000e+00,3.500000000000000000e+01,1.200000000000000000e+01,-5.000000000000000000e+00,-1.400000000000000000e+01,-1.000000000000000000e+00,1.000000000000000000e+00,3.916015625000000000e-01,1.738281250000000000e-01,-9.006347656250000000e-01,-7.281494140625000000e-02
-1.000000000000000000e+00,-5.000000000000000000e+00,-3.500000000000000000e+01,-2.600000000000000000e+01,2.000000000000000000e+00,4.000000000000000000e+00,6.000000000000000000e+00,1.000000000000000000e+00,3.920898437500000000e-01,1.727294921875000000e-01,-9.006347656250000000e-01,-7.281494140625000000e-02
2.000000000000000000e+00,1.000000000000000000e+00,4.000000000000000000e+00,4.000000000000000000e+00,0.000000000000000000e+00,0.000000000000000000e+00,-4.000000000000000000e+00,-1.000000000000000000e+00,3.920898437500000000e-01,1.727294921875000000e-01,-9.006347656250000000e-01,-7.281494140625000000e-02
0.000000000000000000e+00,1.000000000000000000e+00,4.000000000000000000e+00,-4.000000000000000000e+00,-7.000000000000000000e+00,-8.000000000000000000e+00,-1.000000000000000000e+00,1.000000000000000000e+00,3.920898437500000000e-01,1.727294921875000000e-01,-9.006347656250000000e-01,-7.281494140625000000e-02
1.000000000000000000e+00,9.000000000000000000e+00,2.500000000000000000e+01,2.000000000000000000e+01,7.000000000000000000e+00,1.200000000000000000e+01,8.000000000000000000e+00,0.000000000000000000e+00,3.920898437500000000e-01,1.727294921875000000e-01,-9.006347656250000000e-01,-7.281494140625000000e-02
5.000000000000000000e+00,3.000000000000000000e+00,9.000000000000000000e+00,2.000000000000000000e+01,3.000000000000000000e+00,-2.000000000000000000e+00,-2.400000000000000000e+01,3.000000000000000000e+00,3.928222656250000000e-01,1.712646484375000000e-01,-9.006347656250000000e-01,-7.281494140625000000e-02
1.200000000000000000e+01,-1.000000000000000000e+00,-2.000000000000000000e+01,-1.700000000000000000e+01,-1.000000000000000000e+00,2.000000000000000000e+00,3.100000000000000000e+01,0.000000000000000000e+00,3.928222656250000000e-01,1.712646484375000000e-01,-9.006347656250000000e-01,-7.281494140625000000e-02
-2.200000000000000000e+01,-6.000000000000000000e+00,-6.500000000000000000e+01,-3.600000000000000000e+01,1.000000000000000000e+00,3.000000000000000000e+00,1.600000000000000000e+01,-2.000000000000000000e+00,3.928222656250000000e-01,1.712646484375000000e-01,-9.006347656250000000e-01,-7.281494140625000000e-02
-4.000000000000000000e+00,2.000000000000000000e+00,5.000000000000000000e+01,0.000000000000000000e+00,-7.000000000000000000e+00,-7.000000000000000000e+00,-4.000000000000000000e+01,-6.000000000000000000e+00,3.928222656250000000e-01,1.712646484375000000e-01,-9.006347656250000000e-01,-7.281494140625000000e-02
-1.000000000000000000e+00,3.000000000000000000e+00,-3.300000000000000000e+01,-7.000000000000000000e+00,-1.000000000000000000e+00,-1.000000000000000000e+00,3.700000000000000000e+01,4.000000000000000000e+00,3.936767578125000000e-01,1.703491210937500000e-01,-9.003906250000000000e-01,-7.263183593750000000e-02
5.000000000000000000e+00,0.000000000000000000e+00,1.000000000000000000e+01,4.000000000000000000e+00,1.000000000000000000e+00,-1.000000000000000000e+00,0.000000000000000000e+00,-6.000000000000000000e+00,3.936767578125000000e-01,1.703491210937500000e-01,-9.003906250000000000e-01,-7.263183593750000000e-02
9.000000000000000000e+00,4.000000000000000000e+00,4.000000000000000000e+01,2.300000000000000000e+01,2.000000000000000000e+00,0.000000000000000000e+00,1.700000000000000000e+01,6.000000000000000000e+00,3.936767578125000000e-01,1.703491210937500000e-01,-9.003906250000000000e-01,-7.263183593750000000e-02
0.000000000000000000e+00,-3.000000000000000000e+00,-3.600000000000000000e+01,-1.100000000000000000e+01,-5.000000000000000000e+00,1.000000000000000000e+00,-1.100000000000000000e+01,0.000000000000000000e+00,3.936767578125000000e-01,1.703491210937500000e-01,-9.003906250000000000e-01,-7.263183593750000000e-02
-5.000000000000000000e+00,-8.000000000000000000e+00,-1.700000000000000000e+01,-3.000000000000000000e+00,3.000000000000000000e+00,3.000000000000000000e+00,-9.000000000000000000e+00,-1.000000000000000000e+00,3.945312500000000000e-01,1.698608398437500000e-01,-9.001464843750000000e-01,-7.244873046875000000e-02
-8.000000000000000000e+00,-3.000000000000000000e+00,-4.000000000000000000e+00,1.100000000000000000e+01,-8.000000000000000000e+00,-6.000000000000000000e+00,1.000000000000000000e+00,1.000000000000000000e+00,3.945312500000000000e-01,1.698608398437500000e-01,-9.001464843750000000e-01,-7.244873046875000000e-02
-1.000000000000000000e+00,2.000000000000000000e+00,-1.900000000000000000e+01,-2.800000000000000000e+01,-5.000000000000000000e+00,-5.000000000000000000e+00,2.000000000000000000e+00,-1.000000000000000000e+00,3.945312500000000000e-01,1.698608398437500000e-01,-9.001464843750000000e-01,-7.244873046875000000e-02
-2.000000000000000000e+00,1.000000000000000000e+00,-1.600000000000000000e+01,9.000000000000000000e+00,6.000000000000000000e+00,4.000000000000000000e+00,4.000000000000000000e+00,-1.000000000000000000e+00,3.945312500000000000e-01,1.698608398437500000e-01,-9.001464843750000000e-01,-7.244873046875000000e-02
2.000000000000000000e+00,2.000000000000000000e+00,1.200000000000000000e+01,-1.000000000000000000e+00,-2.000000000000000000e+00,-4.000000000000000000e+00,-6.000000000000000000e+00,2.000000000000000000e+00,3.954467773437500000e-01,1.700439453125000000e-01,-8.997192382812500000e-01,-7.226562500000000000e-02
-4.000000000000000000e+00,-4.000000000000000000e+00,-7.000000000000000000e+00,-2.000000000000000000e+00,-1.000000000000000000e+00,-2.000000000000000000e+00,-1.200000000000000000e+01,-2.000000000000000000e+00,3.954467773437500000e-01,1.700439453125000000e-01,-8.997192382812500000e-01,-7.226562500000000000e-02
3.000000000000000000e+00,6.000000000000000000e+00,-1.400000000000000000e+01,5.000000000000000000e+00,2.000000000000000000e+00,4.000000000000000000e+00,-1.300000000000000000e+01,-1.000000000000000000e+00,3.954467773437500000e-01,1.700439453125000000e-01,-8.997192382812500000e-01,-7.226562500000000000e-02
-5.000000000000000000e+00,-1.000000000000000000e+01,6.000000000000000000e+01,7.000000000000000000e+00,-6.000000000000000000e+00,-1.200000000000000000e+01,-6.000000000000000000e+00,-6.000000000000000000e+00,3.954467773437500000e-01,1.700439453125000000e-01,-8.997192382812500000e-01,-7.226562500000000000e-02
-4.000000000000000000e+00,-1.000000000000000000e+00,-8.000000000000000000e+00,-6.000000000000000000e+00,-3.000000000000000000e+00,0.000000000000000000e+00,3.000000000000000000e+00,-4.000000000000000000e+00,3.961791992187500000e-01,1.702880859375000000e-01,-8.993530273437500000e-01,-7.269287109375000000e-02
-3.000000000000000000e+00,-2.000000000000000000e+00,-1.000000000000000000e+00,3.000000000000000000e+00,-1.000000000000000000e+00,-4.000000000000000000e+00,-1.400000000000000000e+01,-1.000000000000000000e+00,3.961791992187500000e-01,1.702880859375000000e-01,-8.993530273437500000e-01,-7.269287109375000000e-02
5.000000000000000000e+00,-2.000000000000000000e+00,1.500000000000000000e+01,2.000000000000000000e+00,4.000000000000000000e+00,1.000000000000000000e+00,-1.000000000000000000e+00,0.000000000000000000e+00,3.961791992187500000e-01,1.702880859375000000e-01,-8.993530273437500000e-01,-7.269287109375000000e-02
-1.000000000000000000e+00,-1.000000000000000000e+00,-2.000000000000000000e+00,5.000000000000000000e+00,0.000000000000000000e+00,3.000000000000000000e+00,2.000000000000000000e+00,1.000000000000000000e+00,3.961791992187500000e-01,1.702880859375000000e-01,-8.993530273437500000e-01,-7.269287109375000000e-02
2.000000000000000000e+00,6.000000000000000000e+00,2.600000000000000000e+01,1.700000000000000000e+01,4.000000000000000000e+00,1.000000000000000000e+00,-1.000000000000000000e+01,1.000000000000000000e+00,3.966674804687500000e-01,1.705322265625000000e-01,-8.990478515625000000e-01,-7.342529296875000000e-02
-9.000000000000000000e+00,-6.000000000000000000e+00,-6.400000000000000000e+01,-1.600000000000000000e+01,-7.000000000000000000e+00,-7.000000000000000000e+00,1.000000000000000000e+00,-5.000000000000000000e+00,3.966674804687500000e-01,1.705322265625000000e-01,-8.990478515625000000e-01,-7.342529296875000000e-02
-9.000000000000000000e+00,-1.300000000000000000e+01,2.700000000000000000e+01,-1.100000000000000000e+01,-1.400000000000000000e+01,-8.000000000000000000e+00,-8.000000000000000000e+00,-9.000000000000000000e+00,3.966674804687500000e-01,1.705322265625000000e-01,-8.990478515625000000e-01,-7.342529296875000000e-02
-1.000000000000000000e+00,-7.000000000000000000e+00,-6.700000000000000000e+01,-1.200000000000000000e+01,-2.000000000000000000e+00,-1.000000000000000000e+00,1.000000000000000000e+01,1.000000000000000000e+00,3.966674804687500000e-01,1.705322265625000000e-01,-8.990478515625000000e-01,-7.342529296875000000e-02
-4.000000000000000000e+00,-3.000000000000000000e+00,0.000000000000000000e+00,0.000000000000000000e+00,1.000000000000000000e+00,2.000000000000000000e+00,1.000000000000000000e+01,0.000000000000000000e+00,3.973999023437500000e-01,1.712646484375000000e-01,-8.984985351562500000e-01,-7.379150390625000000e-02
3.000000000000000000e+00,5.000000000000000000e+00,1.900000000000000000e+01,6.000000000000000000e+00,6.000000000000000000e+00,6.000000000000000000e+00,0.000000000000000000e+00,4.000000000000000000e+00,3.973999023437500000e-01,1.712646484375000000e-01,-8.984985351562500000e-01,-7.379150390625000000e-02
5.000000000000000000e+00,3.000000000000000000e+00,-2.000000000000000000e+00,6.000000000000000000e+00,6.000000000000000000e+00,0.000000000000000000e+00,-1.000000000000000000e+01,0.000000000000000000e+00,3.973999023437500000e-01,1.712646484375000000e-01,-8.984985351562500000e-01,-7.379150390625000000e-02
-1.000000000000000000e+00,2.000000000000000000e+00,2.000000000000000000e+00,5.000000000000000000e+00,3.000000000000000000e+00,6.000000000000000000e+00,9.000000000000000000e+00,-2.000000000000000000e+00,3.973999023437500000e-01,1.712646484375000000e-01,-8.984985351562500000e-01,-7.379150390625000000e-02
4.000000000000000000e+00,5.000000000000000000e+00,-7.000000000000000000e+00,-5.000000000000000000e+00,-4.000000000000000000e+00,-2.000000000000000000e+00,3.000000000000000000e+00,2.000000000000000000e+00,3.975830078125000000e-01,1.718750000000000000e-01,-8.982543945312500000e-01,-7.421875000000000000e-02
-3.000000000000000000e+00,-3.000000000000000000e+00,4.000000000000000000e+01,-4.000000000000000000e+00,0.000000000000000000e+00,1.000000000000000000e+00,2.000000000000000000e+01,6.000000000000000000e+00,3.975830078125000000e-01,1.718750000000000000e-01,-8.982543945312500000e-01,-7.421875000000000000e-02
1.300000000000000000e+01,-2.000000000000000000e+00,-1.300000000000000000e+01,2.300000000000000000e+01,8.000000000000000000e+00,5.000000000000000000e+00,-5.000000000000000000e+00,-4.000000000000000000e+00,3.975830078125000000e-01,1.718750000000000000e-01,-8.982543945312500000e-01,-7.421875000000000000e-02
-3.800000000000000000e+01,1.000000000000000000e+00,2.900000000000000000e+01,-6.000000000000000000e+00,-7.000000000000000000e+00,-6.000000000000000000e+00,-6.000000000000000000e+00,-5.000000000000000000e+00,3.975830078125000000e-01,1.718750000000000000e-01,-8.982543945312500000e-01,-7.421875000000000000e-02
2.000000000000000000e+00,0.000000000000000000e+00,-2.200000000000000000e+01,-1.300000000000000000e+01,-2.000000000000000000e+00,-6.000000000000000000e+00,-1.000000000000000000e+01,-1.000000000000000000e+00,3.977050781250000000e-01,1.726074218750000000e-01,-8.980712890625000000e-01,-7.452392578125000000e-02
-3.000000000000000000e+00,0.000000000000000000e+00,2.100000000000000000e+01,1.100000000000000000e+01,0.000000000000000000e+00,3.000000000000000000e+00,3.000000000000000000e+00,0.000000000000000000e+00,3.977050781250000000e-01,1.726074218750000000e-01,-8.980712890625000000e-01,-7.452392578125000000e-02
0.000000000000000000e+00,-1.000000000000000000e+00,5.000000000000000000e+00,-6.000000000000000000e+00,0.000000000000000000e+00,-5.000000000000000000e+00,-3.000000000000000000e+00,1.000000000000000000e+00,3.977050781250000000e-01,1.726074218750000000e-01,-8.980712890625000000e-01,-7.452392578125000000e-02
1.200000000000000000e+01,2.000000000000000000e+00,-7.000000000000000000e+00,0.000000000000000000e+00,1.000000000000000000e+00,2.000000000000000000e+00,-3.000000000000000000e+00,1.000000000000000000e+00,3.977050781250000000e-01,1.726074218750000000e-01,-8.980712890625000000e-01,-7.452392578125000000e-02
0.000000000000000000e+00,-3.000000000000000000e+00,7.000000000000000000e+00,1.200000000000000000e+01,-4.000000000000000000e+00,-2.000000000000000000e+00,-6.000000000000000000e+00,-1.000000000000000000e+00,3.981933593750000000e-01,1.725463867187500000e-01,-8.978271484375000000e-01,-7.440185546875000000e-02
-5.000000000000000000e+00,-2.000000000000000000e+00,-5.000000000000000000e+00,-2.000000000000000000e+00,-2.000000000000000000e+00,-1.000000000000000000e+01,-1.400000000000000000e+01,-4.000000000000000000e+00,3.981933593750000000e-01,1.725463867187500000e-01,-8.978271484375000000e-01,-7.440185546875000000e-02
-2.000000000000000000e+00,0.000000000000000000e+00,-1.000000000000000000e+01,-9.000000000000000000e+00,4.000000000000000000e+00,7.000000000000000000e+00,3.000000000000000000e+00,0.000000000000000000e+00,3.981933593750000000e-01,1.725463867187500000e-01,-8.978271484375000000e-01,-7.440185546875000000e-02
8.000000000000000000e+00,9.000000000000000000e+00,3.300000000000000000e+01,5.000000000000000000e+01,8.000000000000000000e+00,8.000000000000000000e+00,7.000000000000000000e+00,-1.000000000000000000e+00,3.981933593750000000e-01,1.725463867187500000e-01,-8.978271484375000000e-01,-7.440185546875000000e-02
-1.600000000000000000e+01,-1.500000000000000000e+01,-5.500000000000000000e+01,-5.600000000000000000e+01,-7.000000000000000000e+00,-4.000000000000000000e+00,0.000000000000000000e+00,-3.000000000000000000e+00,3.987426757812500000e-01,1.718750000000000000e-01,-8.977661132812500000e-01,-7.397460937500000000e-02
1.900000000000000000e+01,1.000000000000000000e+00,4.400000000000000000e+01,1.400000000000000000e+01,-5.000000000000000000e+00,-7.000000000000000000e+00,-6.000000000000000000e+00,1.000000000000000000e+00,3.987426757812500000e-01,1.718750000000000000e-01,-8.977661132812500000e-01,-7.397460937500000000e-02
-3.000000000000000000e+00,-3.000000000000000000e+00,0.000000000000000000e+00,-1.100000000000000000e+01,-3.000000000000000000e+00,-2.000000000000000000e+00,1.000000000000000000e+01,0.000000000000000000e+00,3.987426757812500000e-01,1.718750000000000000e-01,-8.977661132812500000e-01,-7.397460937500000000e-02
3.000000000000000000e+00,0.000000000000000000e+00,-1.400000000000000000e+01,-1.100000000000000000e+01,2.000000000000000000e+00,1.000000000000000000e+00,7.000000000000000000e+00,1.000000000000000000e+00,3.987426757812500000e-01,1.718750000000000000e-01,-8.977661132812500000e-01,-7.397460937500000000e-02
0.000000000000000000e+00,1.000000000000000000e+00,2.100000000000000000e+01,1.500000000000000000e+01,0.000000000000000000e+00,2.000000000000000000e+00,-2.000000000000000000e+00,-2.000000000000000000e+00,3.994140625000000000e-01,1.717529296875000000e-01,-8.975830078125000000e-01,-7.330322265625000000e-02
-6.000000000000000000e+00,-2.000000000000000000e+00,-2.000000000000000000e+00,1.000000000000000000e+00,0.000000000000000000e+00,0.000000000000000000e+00,-9.000000000000000000e+00,1.000000000000000000e+00,3.994140625000000000e-01,1.717529296875000000e-01,-8.975830078125000000e-01,-7.330322265625000000e-02
-3.000000000000000000e+00,-2.000000000000000000e+00,-1.200000000000000000e+01,1.000000000000000000e+00,2.000000000000000000e+00,1.000000000000000000e+00,0.000000000000000000e+00,-1.000000000000000000e+00,3.994140625000000000e-01,1.717529296875000000e-01,-8.975830078125000000e-01,-7.330322265625000000e-02
4.000000000000000000e+00,2.000000000000000000e+00,-8.000000000000000000e+00,-6.000000000000000000e+00,2.000000000000000000e+00,-1.000000000000000000e+00,-8.000000000000000000e+00,0.000000000000000000e+00,3.994140625000000000e-01,1.717529296875000000e-01,-8.975830078125000000e-01,-7.330322265625000000e-02
3.000000000000000000e+00,8.000000000000000000e+00,3.400000000000000000e+01,2.100000000000000000e+01,1.000000000000000000e+00,4.000000000000000000e+00,2.300000000000000000e+01,0.000000000000000000e+00,4.000244140625000000e-01,1.707153320312500000e-01,-8.974609375000000000e-01,-7.324218750000000000e-02
-5.000000000000000000e+00,-5.000000000000000000e+00,-1.400000000000000000e+01,-6.000000000000000000e+00,-6.000000000000000000e+00,-7.000000000000000000e+00,-1.900000000000000000e+01,-6.000000000000000000e+00,4.000244140625000000e-01,1.707153320312500000e-01,-8.974609375000000000e-01,-7.324218750000000000e-02
-1.000000000000000000e+01,-1.400000000000000000e+01,-1.700000000000000000e+01,-1.300000000000000000e+01,-1.800000000000000000e+01,-8.000000000000000000e+00,1.000000000000000000e+00,-7.000000000000000000e+00,4.000244140625000000e-01,1.707153320312500000e-01,-8.974609375000000000e-01,-7.324218750000000000e-02
4.000000000000000000e+00,-1.000000000000000000e+00,2.000000000000000000e+00,-1.800000000000000000e+01,-3.000000000000000000e+00,-2.000000000000000000e+00,-4.000000000000000000e+00,-2.000000000000000000e+00,4.000244140625000000e-01,1.707153320312500000e-01,-8.974609375000000000e-01,-7.324218750000000000e-02
3.000000000000000000e+00,3.000000000000000000e+00,1.000000000000000000e+01,7.000000000000000000e+00,5.000000000000000000e+00,-1.000000000000000000e+00,-8.000000000000000000e+00,1.000000000000000000e+00,4.006958007812500000e-01,1.702270507812500000e-01,-8.973388671875000000e-01,-7.287597656250000000e-02
2.000000000000000000e+00,6.000000000000000000e+00,4.000000000000000000e+00,7.000000000000000000e+00,9.000000000000000000e+00,1.200000000000000000e+01,1.200000000000000000e+01,3.000000000000000000e+00,4.006958007812500000e-01,1.702270507812500000e-01,-8.973388671875000000e-01,-7.287597656250000000e-02
1.000000000000000000e+00,3.000000000000000000e+00,4.000000000000000000e+00,1.000000000000000000e+00,1.000000000000000000e+00,1.000000000000000000e+00,0.000000000000000000e+00,1.000000000000000000e+00,4.006958007812500000e-01,1.702270507812500000e-01,-8.973388671875000000e-01,-7.287597656250000000e-02
3.000000000000000000e+00,3.000000000000000000e+00,-4.100000000000000000e+01,1.000000000000000000e+00,3.000000000000000000e+00,-2.000000000000000000e+00,-1.000000000000000000e+01,4.000000000000000000e+00,4.006958007812500000e-01,1.702270507812500000e-01,-8.973388671875000000e-01,-7.287597656250000000e-02
5.000000000000000000e+00,1.300000000000000000e+01,9.400000000000000000e+01,3.100000000000000000e+01,1.000000000000000000e+01,7.000000000000000000e+00,-8.000000000000000000e+00,1.000000000000000000e+00,4.008789062500000000e-01,1.693115234375000000e-01,-8.973999023437500000e-01,-7.257080078125000000e-02
-1.700000000000000000e+01,-2.600000000000000000e+01,2.000000000000000000e+01,-3.800000000000000000e+01,-2.200000000000000000e+01,-1.900000000000000000e+01,-8.000000000000000000e+00,-1.200000000000000000e+01,4.008789062500000000e-01,1.693115234375000000e-01,-8.973999023437500000e-01,-7.257080078125000000e-02
2.000000000000000000e+00,-1.000000000000000000e+00,-6.000000000000000000e+00,-4.000000000000000000e+00,-2.000000000000000000e+00,-4.000000000000000000e+00,-7.000000000000000000e+00,-2.000000000000000000e+00,4.008789062500000000e-01,1.693115234375000000e-01,-8.973999023437500000e-01,-7.257080078125000000e-02
-2.000000000000000000e+00,-4.000000000000000000e+00,-1.400000000000000000e+01,-1.000000000000000000e+01,-3.000000000000000000e+00,-4.000000000000000000e+00,1.000000000000000000e+00,-2.000000000000000000e+00,4.008789062500000000e-01,1.693115234375000000e-01,-8.973999023437500000e-01,-7.257080078125000000e-02
0.000000000000000000e+00,5.000000000000000000e+00,1.300000000000000000e+01,1.500000000000000000e+01,7.000000000000000000e+00,0.000000000000000000e+00,-8.000000000000000000e+00,-1.000000000000000000e+00,4.010009765625000000e-01,1.697998046875000000e-01,-8.973388671875000000e-01,-7.232666015625000000e-02
1.000000000000000000e+00,6.000000000000000000e+00,-3.000000000000000000e+00,1.000000000000000000e+01,5.000000000000000000e+00,5.000000000000000000e+00,1.000000000000000000e+00,1.000000000000000000e+00,4.010009765625000000e-01,1.697998046875000000e-01,-8.973388671875000000e-01,-7.232666015625000000e-02
-1.000000000000000000e+00,1.000000000000000000e+00,8.000000000000000000e+00,0.000000000000000000e+00,-3.000000000000000000e+00,-5.000000000000000000e+00,-5.000000000000000000e+00,-2.000000000000000000e+00,4.010009765625000000e-01,1.697998046875000000e-01,-8.973388671875000000e-01,-7.232666015625000000e-02
2.000000000000000000e+00,-3.000000000000000000e+00,1.200000000000000000e+01,7.000000000000000000e+00,-4.000000000000000000e+00,-4.000000000000000000e+00,-1.600000000000000000e+01,-4.000000000000000000e+00,4.010009765625000000e-01,1.697998046875000000e-01,-8.973388671875000000e-01,-7.232666015625000000e-02
-1.000000000000000000e+00,-4.000000000000000000e+00,-2.600000000000000000e+01,-1.000000000000000000e+01,-4.000000000000000000e+00,0.000000000000000000e+00,2.600000000000000000e+01,0.000000000000000000e+00,4.006347656250000000e-01,1.692504882812500000e-01,-8.975219726562500000e-01,-7.263183593750000000e-02
0.000000000000000000e+00,3.000000000000000000e+00,-1.800000000000000000e+01,1.000000000000000000e+00,-1.000000000000000000e+00,0.000000000000000000e+00,-3.000000000000000000e+00,0.000000000000000000e+00,4.006347656250000000e-01,1.692504882812500000e-01,-8.975219726562500000e-01,-7.263183593750000000e-02
0.000000000000000000e+00,1.000000000000000000e+00,3.000000000000000000e+00,0.000000000000000000e+00,2.000000000000000000e+00,1.000000000000000000e+00,1.700000000000000000e+01,5.000000000000000000e+00,4.006347656250000000e-01,1.692504882812500000e-01,-8.975219726562500000e-01,-7.263183593750000000e-02
1.900000000000000000e+01,1.000000000000000000e+00,-8.000000000000000000e+00,1.700000000000000000e+01,1.000000000000000000e+01,5.000000000000000000e+00,3.000000000000000000e+00,-1.000000000000000000e+00,4.006347656250000000e-01,1.692504882812500000e-01,-8.975219726562500000e-01,-7.263183593750000000e-02
-3.500000000000000000e+01,-1.700000000000000000e+01,1.700000000000000000e+01,-2.400000000000000000e+01,-1.600000000000000000e+01,-1.100000000000000000e+01,-9.000000000000000000e+00,-9.000000000000000000e+00,4.002075195312500000e-01,1.690673828125000000e-01,-8.977050781250000000e-01,-7.299804687500000000e-02
-2.000000000000000000e+00,-4.000000000000000000e+00,-2.400000000000000000e+01,9.000000000000000000e+00,-1.000000000000000000e+00,2.000000000000000000e+00,7.000000000000000000e+00,0.000000000000000000e+00,4.002075195312500000e-01,1.690673828125000000e-01,-8.977050781250000000e-01,-7.299804687500000000e-02
-4.000000000000000000e+00,1.000000000000000000e+00,3.900000000000000000e+01,7.000000000000000000e+00,2.000000000000000000e+00,1.000000000000000000e+00,-1.000000000000000000e+01,-3.000000000000000000e+00,4.002075195312500000e-01,1.690673828125000000e-01,-8.977050781250000000e-01,-7.299804687500000000e-02
6.000000000000000000e+00,3.000000000000000000e+00,1.700000000000000000e+01,-1.100000000000000000e+01,-1.000000000000000000e+00,-1.000000000000000000e+00,0.000000000000000000e+00,0.000000000000000000e+00,4.002075195312500000e-01,1.690673828125000000e-01,-8.977050781250000000e-01,-7.299804687500000000e-02
7.000000000000000000e+00,-3.000000000000000000e+00,-2.900000000000000000e+01,-7.000000000000000000e+00,-1.000000000000000000e+00,0.000000000000000000e+00,-2.000000000000000000e+00,2.000000000000000000e+00,4.000854492187500000e-01,1.700439453125000000e-01,-8.976440429687500000e-01,-7.318115234375000000e-02
0.000000000000000000e+00,4.000000000000000000e+00,1.100000000000000000e+01,1.600000000000000000e+01,4.000000000000000000e+00,1.000000000000000000e+00,-8.000000000000000000e+00,3.000000000000000000e+00,4.000854492187500000e-01,1.700439453125000000e-01,-8.976440429687500000e-01,-7.318115234375000000e-02
1.000000000000000000e+00,1.000000000000000000e+00,-7.000000000000000000e+00,-5.000000000000000000e+00,-1.000000000000000000e+00,0.000000000000000000e+00,-9.000000000000000000e+00,1.000000000000000000e+00,4.000854492187500000e-01,1.700439453125000000e-01,-8.976440429687500000e-01,-7.318115234375000000e-02
-9.000000000000000000e+00,-6.000000000000000000e+00,-1.000000000000000000e+01,-4.000000000000000000e+00,-4.000000000000000000e+00,0.000000000000000000e+00,1.000000000000000000e+00,-4.000000000000000000e+00,4.000854492187500000e-01,1.700439453125000000e-01,-8.976440429687500000e-01,-7.318115234375000000e-02
4.000000000000000000e+00,1.000000000000000000e+00,-1.100000000000000000e+01,2.000000000000000000e+00,0.000000000000000000e+00,-1.000000000000000000e+00,-2.000000000000000000e+00,-1.000000000000000000e+00,3.996582031250000000e-01,1.705932617187500000e-01,-8.976440429687500000e-01,-7.373046875000000000e-02
-1.000000000000000000e+00,4.000000000000000000e+00,-2.200000000000000000e+01,-1.100000000000000000e+01,1.000000000000000000e+00,-3.000000000000000000e+00,-9.000000000000000000e+00,-2.000000000000000000e+00,3.996582031250000000e-01,1.705932617187500000e-01,-8.976440429687500000e-01,-7.373046875000000000e-02
2.000000000000000000e+00,-3.000000000000000000e+00,-4.000000000000000000e+00,1.000000000000000000e+00,-2.000000000000000000e+00,-2.000000000000000000e+00,2.000000000000000000e+00,2.000000000000000000e+00,3.996582031250000000e-01,1.705932617187500000e-01,-8.976440429687500000e-01,-7.373046875000000000e-02
-1.000000000000000000e+00,1.000000000000000000e+00,-6.000000000000000000e+00,4.000000000000000000e+00,-4.000000000000000000e+00,-2.000000000000000000e+00,1.000000000000000000e+00,0.000000000000000000e+00,3.996582031250000000e-01,1.705932617187500000e-01,-8.976440429687500000e-01,-7.373046875000000000e-02
-5.000000000000000000e+00,-4.000000000000000000e+00,1.800000000000000000e+01,-8.000000000000000000e+00,-1.000000000000000000e+00,-1.000000000000000000e+00,-2.000000000000000000e+00,1.000000000000000000e+00,3.993530273437500000e-01,1.707763671875000000e-01,-8.976440429687500000e-01,-7.446289062500000000e-02
0.000000000000000000e+00,1.000000000000000000e+00,-4.600000000000000000e+01,-1.600000000000000000e+01,-1.000000000000000000e+00,-1.000000000000000000e+00,7.000000000000000000e+00,-3.000000000000000000e+00,3.993530273437500000e-01,1.707763671875000000e-01,-8.976440429687500000e-01,-7.446289062500000000e-02
1.000000000000000000e+00,2.000000000000000000e+00,-4.700000000000000000e+01,-9.000000000000000000e+00,6.000000000000000000e+00,3.000000000000000000e+00,1.100000000000000000e+01,0.000000000000000000e+00,3.993530273437500000e-01,1.707763671875000000e-01,-8.976440429687500000e-01,-7.446289062500000000e-02
-5.000000000000000000e+00,0.000000000000000000e+00,4.300000000000000000e+01,2.400000000000000000e+01,0.000000000000000000e+00,-3.000000000000000000e+00,-2.000000000000000000e+00,-1.000000000000000000e+00,3.993530273437500000e-01,1.707763671875000000e-01,-8.976440429687500000e-01,-7.446289062500000000e-02
5.000000000000000000e+00,3.000000000000000000e+00,-7.000000000000000000e+00,1.000000000000000000e+00,1.000000000000000000e+00,-1.000000000000000000e+00,-7.000000000000000000e+00,1.000000000000000000e+00,3.991699218750000000e-01,1.711425781250000000e-01,-8.976440429687500000e-01,-7.507324218750000000e-02
0.000000000000000000e+00,-2.000000000000000000e+00,2.000000000000000000e+00,-4.000000000000000000e+00,1.000000000000000000e+00,-1.000000000000000000e+00,-5.000000000000000000e+00,0.000000000000000000e+00,3.991699218750000000e-01,1.711425781250000000e-01,-8.976440429687500000e-01,-7.507324218750000000e-02
-3.000000000000000000e+00,-2.000000000000000000e+00,1.000000000000000000e+01,3.000000000000000000e+00,-6.000000000000000000e+00,-5.000000000000000000e+00,-9.000000000000000000e+00,-3.000000000000000000e+00,3.991699218750000000e-01,1.711425781250000000e-01,-8.976440429687500000e-01,-7.507324218750000000e-02
-2.000000000000000000e+00,2.000000000000000000e+00,-7.000000000000000000e+00,-9.000000000000000000e+00,-1.000000000000000000e+00,2.000000000000000000e+00,9.000000000000000000e+00,3.000000000000000000e+00,3.991699218750000000e-01,1.711425781250000000e-01,-8.976440429687500000e-01,-7.507324218750000000e-02
2.000000000000000000e+00,0.000000000000000000e+00,-2.700000000000000000e+01,8.000000000000000000e+00,3.000000000000000000e+00,0.000000000000000000e+00,-4.000000000000000000e+00,-3.000000000000000000e+00,3.988037109375000000e-01,1.713256835937500000e-01,-8.977050781250000000e-01,-7.537841796875000000e-02
0.000000000000000000e+00,-3.000000000000000000e+00,-3.000000000000000000e+00,-2.400000000000000000e+01,-1.000000000000000000e+00,2.000000000000000000e+00,-1.300000000000000000e+01,-4.000000000000000000e+00,3.988037109375000000e-01,1.713256835937500000e-01,-8.977050781250000000e-01,-7.537841796875000000e-02
-6.000000000000000000e+00,2.000000000000000000e+00,5.300000000000000000e+01,2.300000000000000000e+01,-8.000000000000000000e+00,-9.000000000000000000e+00,-4.000000000000000000e+00,-5.000000000000000000e+00,3.988037109375000000e-01,1.713256835937500000e-01,-8.977050781250000000e-01,-7.537841796875000000e-02
0.000000000000000000e+00,-4.000000000000000000e+00,1.700000000000000000e+01,-8.000000000000000000e+00,-6.000000000000000000e+00,-5.000000000000000000e+00,-2.000000000000000000e+00,0.000000000000000000e+00,3.988037109375000000e-01,1.713256835937500000e-01,-8.977050781250000000e-01,-7.537841796875000000e-02
-8.000000000000000000e+00,-1.500000000000000000e+01,-9.800000000000000000e+01,-5.700000000000000000e+01,-1.200000000000000000e+01,-3.000000000000000000e+00,4.000000000000000000e+00,-2.000000000000000000e+00,3.984985351562500000e-01,1.712646484375000000e-01,-8.978881835937500000e-01,-7.525634765625000000e-02
-1.000000000000000000e+00,2.000000000000000000e+00,1.100000000000000000e+01,1.800000000000000000e+01,7.000000000000000000e+00,5.000000000000000000e+00,1.700000000000000000e+01,1.000000000000000000e+00,3.984985351562500000e-01,1.712646484375000000e-01,-8.978881835937500000e-01,-7.525634765625000000e-02
4.000000000000000000e+00,7.000000000000000000e+00,3.000000000000000000e+01,-1.000000000000000000e+01,4.000000000000000000e+00,-1.000000000000000000e+00,-1.000000000000000000e+01,1.000000000000000000e+00,3.984985351562500000e-01,1.715087890625000000e-01,-8.978881835937500000e-01,-7.482910156250000000e-02
-4.000000000000000000e+00,-3.000000000000000000e+00,-5.000000000000000000e+00,-5.000000000000000000e+00,-6.000000000000000000e+00,-3.000000000000000000e+00,-9.000000000000000000e+00,-2.000000000000000000e+00,3.984985351562500000e-01,1.715087890625000000e-01,-8.978881835937500000e-01,-7.482910156250000000e-02
0.000000000000000000e+00,-3.000000000000000000e+00,1.400000000000000000e+01,4.000000000000000000e+00,-3.000000000000000000e+00,-1.000000000000000000e+00,3.000000000000000000e+00,-1.000000000000000000e+00,3.984985351562500000e-01,1.715087890625000000e-01,-8.978881835937500000e-01,-7.482910156250000000e-02
-2.000000000000000000e+00,2.000000000000000000e+00,-7.000000000000000000e+00,-3.000000000000000000e+00,-4.000000000000000000e+00,-1.000000000000000000e+00,-1.000000000000000000e+00,-3.000000000000000000e+00,3.984985351562500000e-01,1.715087890625000000e-01,-8.978881835937500000e-01,-7.482910156250000000e-02
0.000000000000000000e+00,-5.000000000000000000e+00,-2.900000000000000000e+01,-9.000000000000000000e+00,-4.000000000000000000e+00,1.000000000000000000e+00,0.000000000000000000e+00,2.000000000000000000e+00,3.985595703125000000e-01,1.709594726562500000e-01,-8.979492187500000000e-01,-7.476806640625000000e-02
-4.000000000000000000e+00,0.000000000000000000e+00,-2.000000000000000000e+00,-4.000000000000000000e+00,1.000000000000000000e+00,0.000000000000000000e+00,-3.000000000000000000e+00,-7.000000000000000000e+00,3.985595703125000000e-01,1.709594726562500000e-01,-8.979492187500000000e-01,-7.476806640625000000e-02
1.000000000000000000e+00,2.000000000000000000e+00,-5.000000000000000000e+00,9.000000000000000000e+00,2.000000000000000000e+00,-2.000000000000000000e+00,3.000000000000000000e+00,0.000000000000000000e+00,3.985595703125000000e-01,1.709594726562500000e-01,-8.979492187500000000e-01,-7.476806640625000000e-02
2.000000000000000000e+00,4.000000000000000000e+00,1.500000000000000000e+01,1.500000000000000000e+01,0.000000000000000000e+00,-2.000000000000000000e+00,-1.100000000000000000e+01,-2.000000000000000000e+00,3.985595703125000000e-01,1.709594726562500000e-01,-8.979492187500000000e-01,-7.476806640625000000e-02
4.000000000000000000e+00,1.000000000000000000e+00,0.000000000000000000e+00,1.000000000000000000e+01,-1.000000000000000000e+00,1.000000000000000000e+00,5.000000000000000000e+00,-2.000000000000000000e+00,3.986816406250000000e-01,1.697998046875000000e-01,-8.981323242187500000e-01,-7.482910156250000000e-02
-1.400000000000000000e+01,-1.700000000000000000e+01,-9.000000000000000000e+00,-2.100000000000000000e+01,-1.100000000000000000e+01,-8.000000000000000000e+00,-8.000000000000000000e+00,-8.000000000000000000e+00,3.986816406250000000e-01,1.697998046875000000e-01,-8.981323242187500000e-01,-7.482910156250000000e-02
1.000000000000000000e+00,-4.000000000000000000e+00,3.800000000000000000e+01,2.800000000000000000e+01,-2.000000000000000000e+00,-3.000000000000000000e+00,-3.000000000000000000e+00,0.000000000000000000e+00,3.986816406250000000e-01,1.697998046875000000e-01,-8.981323242187500000e-01,-7.482910156250000000e-02
-2.000000000000000000e+00,-1.000000000000000000e+00,3.000000000000000000e+00,-1.300000000000000000e+01,1.000000000000000000e+00,-2.000000000000000000e+00,-8.000000000000000000e+00,-2.000000000000000000e+00,3.986816406250000000e-01,1.697998046875000000e-01,-8.981323242187500000e-01,-7.482910156250000000e-02
0.000000000000000000e+00,0.000000000000000000e+00,-2.700000000000000000e+01,-7.000000000000000000e+00,-1.000000000000000000e+00,-2.000000000000000000e+00,-9.000000000000000000e+00,-3.000000000000000000e+00,3.989257812500000000e-01,1.687622070312500000e-01,-8.982543945312500000e-01,-7.482910156250000000e-02
2.000000000000000000e+00,7.000000000000000000e+00,7.000000000000000000e+00,-1.000000000000000000e+00,3.000000000000000000e+00,5.000000000000000000e+00,1.100000000000000000e+01,1.000000000000000000e+00,3.989257812500000000e-01,1.687622070312500000e-01,-8.982543945312500000e-01,-7.482910156250000000e-02
2.000000000000000000e+00,1.000000000000000000e+00,-1.000000000000000000e+01,-2.000000000000000000e+00,4.000000000000000000e+00,-1.000000000000000000e+00,-7.000000000000000000e+00,-1.000000000000000000e+00,3.989257812500000000e-01,1.687622070312500000e-01,-8.982543945312500000e-01,-7.482910156250000000e-02
1.000000000000000000e+00,-4.000000000000000000e+00,-4.000000000000000000e+00,-7.000000000000000000e+00,-9.000000000000000000e+00,-4.000000000000000000e+00,6.000000000000000000e+00,4.000000000000000000e+00,3.989257812500000000e-01,1.687622070312500000e-01,-8.982543945312500000e-01,-7.482910156250000000e-02
-3.000000000000000000e+00,2.000000000000000000e+00,9.000000000000000000e+00,4.000000000000000000e+00,2.000000000000000000e+00,3.000000000000000000e+00,0.000000000000000000e+00,-1.000000000000000000e+00,3.989868164062500000e-01,1.672973632812500000e-01,-8.984985351562500000e-01,-7.470703125000000000e-02
0.000000000000000000e+00,-1.000000000000000000e+00,-1.800000000000000000e+01,-5.000000000000000000e+00,-1.000000000000000000e+00,3.000000000000000000e+00,5.000000000000000000e+00,-2.000000000000000000e+00,3.989868164062500000e-01,1.672973632812500000e-01,-8.984985351562500000e-01,-7.470703125000000000e-02
1.000000000000000000e+00,0.000000000000000000e+00,1.600000000000000000e+01,7.000000000000000000e+00,0.000000000000000000e+00,-1.000000000000000000e+00,-4.000000000000000000e+00,-4.000000000000000000e+00,3.989868164062500000e-01,1.672973632812500000e-01,-8.984985351562500000e-01,-7.470703125000000000e-02
2.000000000000000000e+00,1.000000000000000000e+00,-1.800000000000000000e+01,-1.000000000000000000e+00,-3.000000000000000000e+00,-2.000000000000000000e+00,-3.000000000000000000e+00,1.000000000000000000e+00,3.989868164062500000e-01,1.672973632812500000e-01,-8.984985351562500000e-01,-7.470703125000000000e-02
-3.000000000000000000e+00,-2.000000000000000000e+00,2.000000000000000000e+00,-1.300000000000000000e+01,-2.000000000000000000e+00,-2.000000000000000000e+00,8.000000000000000000e+00,-2.000000000000000000e+00,3.987426757812500000e-01,1.667480468750000000e-01,-8.987426757812500000e-01,-7.427978515625000000e-02
-4.000000000000000000e+00,-4.000000000000000000e+00,6.000000000000000000e+01,2.400000000000000000e+01,0.000000000000000000e+00,-5.000000000000000000e+00,-1.300000000000000000e+01,-3.000000000000000000e+00,3.987426757812500000e-01,1.667480468750000000e-01,-8.987426757812500000e-01,-7.427978515625000000e-02
-3.000000000000000000e+00,-5.000000000000000000e+00,-4.700000000000000000e+01,-1.700000000000000000e+01,-2.000000000000000000e+00,1.000000000000000000e+00,-4.000000000000000000e+00,-4.000000000000000000e+00,3.987426757812500000e-01,1.667480468750000000e-01,-8.987426757812500000e-01,-7.427978515625000000e-02
0.000000000000000000e+00,1.000000000000000000e+00,3.000000000000000000e+01,0.000000000000000000e+00,-1.000000000000000000e+00,0.000000000000000000e+00,-2.000000000000000000e+00,3.000000000000000000e+00,3.987426757812500000e-01,1.667480468750000000e-01,-8.987426757812500000e-01,-7.427978515625000000e-02
-3.000000000000000000e+00,-7.000000000000000000e+00,-1.500000000000000000e+01,-7.000000000000000000e+00,-6.000000000000000000e+00,-2.000000000000000000e+00,0.000000000000000000e+00,1.000000000000000000e+00,3.983764648437500000e-01,1.672363281250000000e-01,-8.988037109375000000e-01,-7.397460937500000000e-02
6.000000000000000000e+00,8.000000000000000000e+00,3.000000000000000000e+01,2.200000000000000000e+01,1.000000000000000000e+01,1.000000000000000000e+00,5.000000000000000000e+00,5.000000000000000000e+00,3.983764648437500000e-01,1.672363281250000000e-01,-8.988037109375000000e-01,-7.397460937500000000e-02
-1.000000000000000000e+00,-3.000000000000000000e+00,5.000000000000000000e+01,9.000000000000000000e+00,1.000000000000000000e+00,2.000000000000000000e+00,3.000000000000000000e+00,0.000000000000000000e+00,3.983764648437500000e-01,1.672363281250000000e-01,-8.988037109375000000e-01,-7.397460937500000000e-02
-3.000000000000000000e+00,0.000000000000000000e+00,5.000000000000000000e+00,-1.800000000000000000e+01,-5.000000000000000000e+00,-8.000000000000000000e+00,-8.000000000000000000e+00,-4.000000000000000000e+00,3.983764648437500000e-01,1.672363281250000000e-01,-8.988037109375000000e-01,-7.397460937500000000e-02
-4.000000000000000000e+00,-3.000000000000000000e+00,-3.400000000000000000e+01,-9.000000000000000000e+00,-2.000000000000000000e+00,2.000000000000000000e+00,4.000000000000000000e+00,1.000000000000000000e+00,3.977661132812500000e-01,1.679077148437500000e-01,-8.989257812500000000e-01,-7.434082031250000000e-02
0.000000000000000000e+00,0.000000000000000000e+00,-1.000000000000000000e+01,-1.000000000000000000e+00,-2.000000000000000000e+00,-4.000000000000000000e+00,-1.000000000000000000e+00,1.000000000000000000e+00,3.977661132812500000e-01,1.679077148437500000e-01,-8.989257812500000000e-01,-7.434082031250000000e-02
0.000000000000000000e+00,5.000000000000000000e+00,4.000000000000000000e+01,1.600000000000000000e+01,-4.000000000000000000e+00,2.000000000000000000e+00,-6.000000000000000000e+00,-1.000000000000000000e+00,3.977661132812500000e-01,1.679077148437500000e-01,-8.989257812500000000e-01,-7.434082031250000000e-02
-7.000000000000000000e+00,-2.000000000000000000e+00,2.300000000000000000e+01,1.000000000000000000e+00,1.000000000000000000e+00,4.000000000000000000e+00,1.100000000000000000e+01,-1.000000000000000000e+00,3.977661132812500000e-01,1.679077148437500000e-01,-8.989257812500000000e-01,-7.434082031250000000e-02
5.000000000000000000e+00,0.000000000000000000e+00,1.800000000000000000e+01,1.000000000000000000e+01,-3.000000000000000000e+00,-2.000000000000000000e+00,-3.000000000000000000e+00,-2.000000000000000000e+00,3.973999023437500000e-01,1.680908203125000000e-01,-8.989868164062500000e-01,-7.513427734375000000e-02
-2.000000000000000000e+00,-2.000000000000000000e+00,-1.000000000000000000e+00,-2.000000000000000000e+00,-3.000000000000000000e+00,-1.000000000000000000e+00,0.000000000000000000e+00,-2.000000000000000000e+00,3.973999023437500000e-01,1.680908203125000000e-01,-8.989868164062500000e-01,-7.513427734375000000e-02
5.000000000000000000e+00,6.000000000000000000e+00,-4.500000000000000000e+01,1.000000000000000000e+00,5.000000000000000000e+00,-1.000000000000000000e+00,-8.000000000000000000e+00,2.000000000000000000e+00,3.973999023437500000e-01,1.680908203125000000e-01,-8.989868164062500000e-01,-7.513427734375000000e-02
1.200000000000000000e+01,-4.000000000000000000e+00,1.200000000000000000e+01,1.200000000000000000e+01,-6.000000000000000000e+00,-2.000000000000000000e+00,9.000000000000000000e+00,-3.000000000000000000e+00,3.973999023437500000e-01,1.680908203125000000e-01,-8.989868164062500000e-01,-7.513427734375000000e-02
-3.600000000000000000e+01,-3.000000000000000000e+00,-1.400000000000000000e+01,-1.000000000000000000e+01,2.000000000000000000e+00,5.000000000000000000e+00,8.000000000000000000e+00,-3.000000000000000000e+00,3.969116210937500000e-01,1.685180664062500000e-01,-8.991088867187500000e-01,-7.550048828125000000e-02
-3.000000000000000000e+00,-5.000000000000000000e+00,-3.400000000000000000e+01,-1.200000000000000000e+01,-1.000000000000000000e+00,2.000000000000000000e+00,5.000000000000000000e+00,-1.000000000000000000e+00,3.969116210937500000e-01,1.685180664062500000e-01,-8.991088867187500000e-01,-7.550048828125000000e-02
-3.000000000000000000e+00,-1.000000000000000000e+00,1.400000000000000000e+01,4.000000000000000000e+00,-1.000000000000000000e+00,-3.000000000000000000e+00,-7.000000000000000000e+00,-1.000000000000000000e+00,3.969116210937500000e-01,1.685180664062500000e-01,-8.991088867187500000e-01,-7.550048828125000000e-02
4.000000000000000000e+00,1.000000000000000000e+00,-4.000000000000000000e+00,8.000000000000000000e+00,3.000000000000000000e+00,2.000000000000000000e+00,-4.000000000000000000e+00,1.000000000000000000e+00,3.969116210937500000e-01,1.685180664062500000e-01,-8.991088867187500000e-01,-7.550048828125000000e-02
9.000000000000000000e+00,0.000000000000000000e+00,-1.000000000000000000e+01,-2.000000000000000000e+00,-2.000000000000000000e+00,-5.000000000000000000e+00,-4.000000000000000000e+00,0.000000000000000000e+00,3.962402343750000000e-01,1.694946289062500000e-01,-8.992309570312500000e-01,-7.556152343750000000e-02
-1.000000000000000000e+00,-1.000000000000000000e+00,-2.600000000000000000e+01,-1.100000000000000000e+01,-4.000000000000000000e+00,-1.000000000000000000e+00,5.000000000000000000e+00,-4.000000000000000000e+00,3.962402343750000000e-01,1.694946289062500000e-01,-8.992309570312500000e-01,-7.556152343750000000e-02
3.000000000000000000e+00,7.000000000000000000e+00,1.000000000000000000e+00,-1.000000000000000000e+00,7.000000000000000000e+00,7.000000000000000000e+00,1.700000000000000000e+01,5.000000000000000000e+00,3.962402343750000000e-01,1.694946289062500000e-01,-8.992309570312500000e-01,-7.556152343750000000e-02
-1.400000000000000000e+01,-1.200000000000000000e+01,-6.500000000000000000e+01,-3.000000000000000000e+01,-6.000000000000000000e+00,-1.200000000000000000e+01,-5.000000000000000000e+00,-1.000000000000000000e+01,3.962402343750000000e-01,1.694946289062500000e-01,-8.992309570312500000e-01,-7.556152343750000000e-02
2.000000000000000000e+00,-1.000000000000000000e+00,3.200000000000000000e+01,1.000000000000000000e+00,-3.000000000000000000e+00,-3.000000000000000000e+00,-8.000000000000000000e+00,-4.000000000000000000e+00,3.959350585937500000e-01,1.708984375000000000e-01,-8.991088867187500000e-01,-7.537841796875000000e-02
-4.000000000000000000e+00,-5.000000000000000000e+00,-3.100000000000000000e+01,-1.000000000000000000e+01,-5.000000000000000000e+00,-2.000000000000000000e+00,-4.000000000000000000e+00,-2.000000000000000000e+00,3.959350585937500000e-01,1.708984375000000000e-01,-8.991088867187500000e-01,-7.537841796875000000e-02
2.000000000000000000e+00,-3.000000000000000000e+00,-4.500000000000000000e+01,-2.400000000000000000e+01,-4.000000000000000000e+00,-2.000000000000000000e+00,-3.000000000000000000e+00,-2.000000000000000000e+00,3.959350585937500000e-01,1.708984375000000000e-01,-8.991088867187500000e-01,-7.537841796875000000e-02
-1.000000000000000000e+00,4.000000000000000000e+00,-1.000000000000000000e+01,4.000000000000000000e+00,3.000000000000000000e+00,4.000000000000000000e+00,2.000000000000000000e+00,2.000000000000000000e+00,3.959350585937500000e-01,1.708984375000000000e-01,-8.991088867187500000e-01,-7.537841796875000000e-02
2.000000000000000000e+00,3.000000000000000000e+00,4.000000000000000000e+00,3.000000000000000000e+00,3.000000000000000000e+00,1.000000000000000000e+00,2.000000000000000000e+00,-1.000000000000000000e+00,3.955688476562500000e-01,1.716918945312500000e-01,-8.990478515625000000e-01,-7.556152343750000000e-02
2.000000000000000000e+00,0.000000000000000000e+00,-3.000000000000000000e+00,-2.000000000000000000e+00,7.000000000000000000e+00,3.000000000000000000e+00,-6.000000000000000000e+00,0.000000000000000000e+00,3.955688476562500000e-01,1.716918945312500000e-01,-8.990478515625000000e-01,-7.556152343750000000e-02
0.000000000000000000e+00,0.000000000000000000e+00,2.500000000000000000e+01,1.200000000000000000e+01,-1.000000000000000000e+00,0.000000000000000000e+00,-7.000000000000000000e+00,1.000000000000000000e+00,3.955688476562500000e-01,1.716918945312500000e-01,-8.990478515625000000e-01,-7.556152343750000000e-02
-2.000000000000000000e+00,1.000000000000000000e+00,-3.700000000000000000e+01,3.000000000000000000e+00,7.000000000000000000e+00,3.000000000000000000e+00,2.000000000000000000e+00,3.000000000000000000e+00,3.955688476562500000e-01,1.716918945312500000e-01,-8.990478515625000000e-01,-7.556152343750000000e-02
-3.000000000000000000e+00,-2.000000000000000000e+00,4.800000000000000000e+01,2.300000000000000000e+01,-6.000000000000000000e+00,-6.000000000000000000e+00,-4.000000000000000000e+00,-5.000000000000000000e+00,3.952636718750000000e-01,1.720581054687500000e-01,-8.991088867187500000e-01,-7.574462890625000000e-02
-3.000000000000000000e+00,-3.000000000000000000e+00,-4.500000000000000000e+01,-2.000000000000000000e+01,-6.000000000000000000e+00,-7.000000000000000000e+00,-1.200000000000000000e+01,3.000000000000000000e+00,3.952636718750000000e-01,1.720581054687500000e-01,-8.991088867187500000e-01,-7.574462890625000000e-02
-2.000000000000000000e+00,0.000000000000000000e+00,1.200000000000000000e+01,1.000000000000000000e+00,1.000000000000000000e+00,0.000000000000000000e+00,-1.100000000000000000e+01,-1.000000000000000000e+00,3.952636718750000000e-01,1.720581054687500000e-01,-8.991088867187500000e-01,-7.574462890625000000e-02
-6.000000000000000000e+00,-1.200000000000000000e+01,-2.400000000000000000e+01,-1.400000000000000000e+01,-4.000000000000000000e+00,-3.000000000000000000e+00,-1.000000000000000000e+00,-1.000000000000000000e+00,3.952636718750000000e-01,1.720581054687500000e-01,-8.991088867187500000e-01,-7.574462890625000000e-02
7.000000000000000000e+00,5.000000000000000000e+00,-1.200000000000000000e+01,-5.000000000000000000e+00,4.000000000000000000e+00,6.000000000000000000e+00,7.000000000000000000e+00,3.000000000000000000e+00,3.953247070312500000e-01,1.718750000000000000e-01,-8.991699218750000000e-01,-7.543945312500000000e-02
0.000000000000000000e+00,-3.000000000000000000e+00,7.000000000000000000e+00,7.000000000000000000e+00,0.000000000000000000e+00,6.000000000000000000e+00,7.000000000000000000e+00,2.000000000000000000e+00,3.953247070312500000e-01,1.718750000000000000e-01,-8.991699218750000000e-01,-7.543945312500000000e-02
-3.000000000000000000e+00,1.000000000000000000e+00,-7.000000000000000000e+00,-4.000000000000000000e+00,1.000000000000000000e+00,-2.000000000000000000e+00,8.000000000000000000e+00,1.000000000000000000e+00,3.953247070312500000e-01,1.718750000000000000e-01,-8.991699218750000000e-01,-7.543945312500000000e-02
3.000000000000000000e+00,7.000000000000000000e+00,2.500000000000000000e+01,9.000000000000000000e+00,3.000000000000000000e+00,2.000000000000000000e+00,-1.200000000000000000e+01,0.000000000000000000e+00,3.953247070312500000e-01,1.718750000000000000e-01,-8.991699218750000000e-01,-7.543945312500000000e-02
2.000000000000000000e+00,2.000000000000000000e+00,-4.000000000000000000e+00,-3.000000000000000000e+00,1.000000000000000000e+00,-4.000000000000000000e+00,-1.700000000000000000e+01,2.000000000000000000e+00,3.953857421875000000e-01,1.717529296875000000e-01,-8.992309570312500000e-01,-7.470703125000000000e-02
0.000000000000000000e+00,-3.000000000000000000e+00,-8.000000000000000000e+00,1.000000000000000000e+00,-2.000000000000000000e+00,-2.000000000000000000e+00,1.000000000000000000e+01,2.000000000000000000e+00,3.953857421875000000e-01,1.717529296875000000e-01,-8.992309570312500000e-01,-7.470703125000000000e-02
-3.000000000000000000e+00,-5.000000000000000000e+00,-3.000000000000000000e+00,-3.500000000000000000e+01,-8.000000000000000000e+00,-8.000000000000000000e+00,-1.000000000000000000e+00,-2.000000000000000000e+00,3.953857421875000000e-01,1.717529296875000000e-01,-8.992309570312500000e-01,-7.470703125000000000e-02
-2.000000000000000000e+00,-2.000000000000000000e+00,-1.000000000000000000e+00,2.000000000000000000e+00,0.000000000000000000e+00,4.000000000000000000e+00,-1.000000000000000000e+00,-4.000000000000000000e+00,3.953857421875000000e-01,1.717529296875000000e-01,-8.992309570312500000e-01,-7.470703125000000000e-02
2.000000000000000000e+00,7.000000000000000000e+00,2.100000000000000000e+01,2.500000000000000000e+01,2.000000000000000000e+00,-1.000000000000000000e+00,0.000000000000000000e+00,0.000000000000000000e+00,3.955688476562500000e-01,1.715087890625000000e-01,-8.992309570312500000e-01,-7.403564453125000000e-02
-3.000000000000000000e+00,-3.000000000000000000e+00,1.800000000000000000e+01,-1.600000000000000000e+01,-3.000000000000000000e+00,-3.000000000000000000e+00,-7.000000000000000000e+00,-5.000000000000000000e+00,3.955688476562500000e-01,1.715087890625000000e-01,-8.992309570312500000e-01,-7.403564453125000000e-02
-1.000000000000000000e+00,-1.000000000000000000e+00,-3.500000000000000000e+01,0.000000000000000000e+00,-3.000000000000000000e+00,0.000000000000000000e+00,2.000000000000000000e+00,-3.000000000000000000e+00,3.955688476562500000e-01,1.715087890625000000e-01,-8.992309570312500000e-01,-7.403564453125000000e-02
0.000000000000000000e+00,1.000000000000000000e+00,1.000000000000000000e+01,9.000000000000000000e+00,1.000000000000000000e+00,-4.000000000000000000e+00,-5.000000000000000000e+00,0.000000000000000000e+00,3.955688476562500000e-01,1.715087890625000000e-01,-8.992309570312500000e-01,-7.403564453125000000e-02
0.000000000000000000e+00,-3.000000000000000000e+00,2.000000000000000000e+00,-1.000000000000000000e+01,-4.000000000000000000e+00,-5.000000000000000000e+00,-3.000000000000000000e+00,0.000000000000000000e+00,3.958129882812500000e-01,1.710815429687500000e-01,-8.992919921875000000e-01,-7.348632812500000000e-02
1.000000000000000000e+00,1.000000000000000000e+00,-3.100000000000000000e+01,-3.000000000000000000e+00,-1.000000000000000000e+00,0.000000000000000000e+00,4.000000000000000000e+00,1.000000000000000000e+00,3.958129882812500000e-01,1.710815429687500000e-01,-8.992919921875000000e-01,-7.348632812500000000e-02
-2.000000000000000000e+00,-4.000000000000000000e+00,1.700000000000000000e+01,8.000000000000000000e+00,3.000000000000000000e+00,0.000000000000000000e+00,-2.000000000000000000e+00,-1.000000000000000000e+00,3.958129882812500000e-01,1.710815429687500000e-01,-8.992919921875000000e-01,-7.348632812500000000e-02
2.000000000000000000e+00,3.000000000000000000e+00,1.800000000000000000e+01,1.900000000000000000e+01,7.000000000000000000e+00,4.000000000000000000e+00,-3.000000000000000000e+00,5.000000000000000000e+00,3.958129882812500000e-01,1.710815429687500000e-01,-8.992919921875000000e-01,-7.348632812500000000e-02
-5.000000000000000000e+00,-7.000000000000000000e+00,-5.300000000000000000e+01,-3.000000000000000000e+01,-6.000000000000000000e+00,-1.000000000000000000e+00,5.000000000000000000e+00,-3.000000000000000000e+00,3.955688476562500000e-01,1.707763671875000000e-01,-8.994750976562500000e-01,-7.312011718750000000e-02
1.100000000000000000e+01,-3.000000000000000000e+00,-2.300000000000000000e+01,-1.300000000000000000e+01,-5.000000000000000000e+00,0.000000000000000000e+00,3.000000000000000000e+00,3.000000000000000000e+00,3.955688476562500000e-01,1.707763671875000000e-01,-8.994750976562500000e-01,-7.312011718750000000e-02
2.000000000000000000e+00,-6.000000000000000000e+00,5.700000000000000000e+01,3.000000000000000000e+01,-2.000000000000000000e+00,-3.000000000000000000e+00,-8.000000000000000000e+00,-4.000000000000000000e+00,3.955688476562500000e-01,1.707763671875000000e-01,-8.994750976562500000e-01,-7.312011718750000000e-02
-8.000000000000000000e+00,-1.000000000000000000e+00,-5.500000000000000000e+01,-2.900000000000000000e+01,0.000000000000000000e+00,2.000000000000000000e+00,6.000000000000000000e+00,1.000000000000000000e+00,3.955688476562500000e-01,1.707763671875000000e-01,-8.994750976562500000e-01,-7.312011718750000000e-02
2.000000000000000000e+00,1.000000000000000000e+00,2.300000000000000000e+01,1.700000000000000000e+01,4.000000000000000000e+00,0.000000000000000000e+00,6.000000000000000000e+00,1.000000000000000000e+00,3.954467773437500000e-01,1.710815429687500000e-01,-8.994750976562500000e-01,-7.275390625000000000e-02
-5.000000000000000000e+00,3.000000000000000000e+00,1.800000000000000000e+01,8.000000000000000000e+00,2.000000000000000000e+00,2.000000000000000000e+00,-3.000000000000000000e+00,0.000000000000000000e+00,3.954467773437500000e-01,1.710815429687500000e-01,-8.994750976562500000e-01,-7.275390625000000000e-02
6.000000000000000000e+00,2.000000000000000000e+00,2.800000000000000000e+01,4.000000000000000000e+00,0.000000000000000000e+00,-4.000000000000000000e+00,-7.000000000000000000e+00,-2.000000000000000000e+00,3.954467773437500000e-01,1.710815429687500000e-01,-8.994750976562500000e-01,-7.275390625000000000e-02
2.000000000000000000e+00,1.000000000000000000e+00,3.700000000000000000e+01,3.500000000000000000e+01,2.000000000000000000e+00,3.000000000000000000e+00,2.200000000000000000e+01,-3.000000000000000000e+00,3.954467773437500000e-01,1.710815429687500000e-01,-8.994750976562500000e-01,-7.275390625000000000e-02
-3.000000000000000000e+00,-1.000000000000000000e+00,1.000000000000000000e+00,-4.000000000000000000e+00,0.000000000000000000e+00,1.000000000000000000e+00,-3.000000000000000000e+00,-3.000000000000000000e+00,3.953247070312500000e-01,1.711425781250000000e-01,-8.995361328125000000e-01,-7.275390625000000000e-02
4.000000000000000000e+00,0.000000000000000000e+00,-2.500000000000000000e+01,-1.100000000000000000e+01,0.000000000000000000e+00,0.000000000000000000e+00,3.000000000000000000e+00,-1.000000000000000000e+00,3.953247070312500000e-01,1.711425781250000000e-01,-8.995361328125000000e-01,-7.275390625000000000e-02
-3.000000000000000000e+00,-3.000000000000000000e+00,-1.100000000000000000e+01,-6.000000000000000000e+00,-2.000000000000000000e+00,-1.000000000000000000e+00,2.000000000000000000e+00,0.000000000000000000e+00,3.953247070312500000e-01,1.711425781250000000e-01,-8.995361328125000000e-01,-7.275390625000000000e-02
0.000000000000000000e+00,4.000000000000000000e+00,1.900000000000000000e+01,-1.000000000000000000e+00,-6.000000000000000000e+00,-5.000000000000000000e+00,-7.000000000000000000e+00,-2.000000000000000000e+00,3.953247070312500000e-01,1.711425781250000000e-01,-8.995361328125000000e-01,-7.275390625000000000e-02
-2.000000000000000000e+00,-6.000000000000000000e+00,1.300000000000000000e+01,5.000000000000000000e+00,-6.000000000000000000e+00,1.000000000000000000e+00,1.100000000000000000e+01,1.000000000000000000e+00,3.952636718750000000e-01,1.711425781250000000e-01,-8.995361328125000000e-01,-7.275390625000000000e-02
-2.000000000000000000e+00,0.000000000000000000e+00,-2.100000000000000000e+01,6.000000000000000000e+00,2.000000000000000000e+00,-4.000000000000000000e+00,-3.000000000000000000e+00,-2.000000000000000000e+00,3.952636718750000000e-01,1.711425781250000000e-01,-8.995361328125000000e-01,-7.275390625000000000e-02
-2.000000000000000000e+00,-4.000000000000000000e+00,-2.600000000000000000e+01,-1.000000000000000000e+00,8.000000000000000000e+00,2.000000000000000000e+00,-1.400000000000000000e+01,-1.000000000000000000e+00,3.952636718750000000e-01,1.711425781250000000e-01,-8.995361328125000000e-01,-7.275390625000000000e-02
-5.000000000000000000e+00,-1.000000000000000000e+00,1.600000000000000000e+01,-1.100000000000000000e+01,-3.000000000000000000e+00,-4.000000000000000000e+00,-9.000000000000000000e+00,-1.000000000000000000e+00,3.952636718750000000e-01,1.711425781250000000e-01,-8.995361328125000000e-01,-7.275390625000000000e-02
4.000000000000000000e+00,-5.000000000000000000e+00,-1.700000000000000000e+01,-1.900000000000000000e+01,-4.000000000000000000e+00,-2.000000000000000000e+00,-6.000000000000000000e+00,-2.000000000000000000e+00,3.950195312500000000e-01,1.715087890625000000e-01,-8.995971679687500000e-01,-7.275390625000000000e-02
-2.000000000000000000e+00,3.000000000000000000e+00,2.900000000000000000e+01,1.300000000000000000e+01,1.000000000000000000e+00,2.000000000000000000e+00,5.000000000000000000e+00,2.000000000000000000e+00,3.950195312500000000e-01,1.715087890625000000e-01,-8.995971679687500000e-01,-7.275390625000000000e-02
-2.000000000000000000e+00,2.000000000000000000e+00,-2.200000000000000000e+01,0.000000000000000000e+00,-5.000000000000000000e+00,1.000000000000000000e+00,2.000000000000000000e+01,0.000000000000000000e+00,3.950195312500000000e-01,1.715087890625000000e-01,-8.995971679687500000e-01,-7.275390625000000000e-02
-3.000000000000000000e+00,-1.300000000000000000e+01,-2.600000000000000000e+01,-2.100000000000000000e+01,-6.000000000000000000e+00,-3.000000000000000000e+00,9.000000000000000000e+00,-1.000000000000000000e+00,3.950195312500000000e-01,1.715087890625000000e-01,-8.995971679687500000e-01,-7.275390625000000000e-02
1.000000000000000000e+00,-1.000000000000000000e+00,-1.800000000000000000e+01,-1.000000000000000000e+01,6.000000000000000000e+00,4.000000000000000000e+00,-1.000000000000000000e+00,2.000000000000000000e+00,3.946533203125000000e-01,1.724853515625000000e-01,-8.995971679687500000e-01,-7.281494140625000000e-02
-5.000000000000000000e+00,0.000000000000000000e+00,2.900000000000000000e+01,2.700000000000000000e+01,1.000000000000000000e+00,2.000000000000000000e+00,6.000000000000000000e+00,-1.000000000000000000e+00,3.946533203125000000e-01,1.724853515625000000e-01,-8.995971679687500000e-01,-7.281494140625000000e-02
-3.000000000000000000e+00,-4.000000000000000000e+00,-7.000000000000000000e+01,-3.200000000000000000e+01,-6.000000000000000000e+00,-1.000000000000000000e+00,6.000000000000000000e+00,-1.000000000000000000e+00,3.946533203125000000e-01,1.724853515625000000e-01,-8.995971679687500000e-01,-7.281494140625000000e-02
4.000000000000000000e+00,2.000000000000000000e+00,6.000000000000000000e+00,2.000000000000000000e+00,-1.000000000000000000e+00,-6.000000000000000000e+00,-1.500000000000000000e+01,-1.000000000000000000e+00,3.946533203125000000e-01,1.724853515625000000e-01,-8.995971679687500000e-01,-7.281494140625000000e-02
0.000000000000000000e+00,1.000000000000000000e+00,2.600000000000000000e+01,1.700000000000000000e+01,3.000000000000000000e+00,4.000000000000000000e+00,1.200000000000000000e+01,-1.000000000000000000e+00,3.941650390625000000e-01,1.735839843750000000e-01,-8.995361328125000000e-01,-7.318115234375000000e-02
-3.000000000000000000e+00,4.000000000000000000e+00,-2.900000000000000000e+01,-2.900000000000000000e+01,-3.000000000000000000e+00,-4.000000000000000000e+00,-2.000000000000000000e+00,0.000000000000000000e+00,3.941650390625000000e-01,1.735839843750000000e-01,-8.995361328125000000e-01,-7.318115234375000000e-02
-2.000000000000000000e+00,-7.000000000000000000e+00,-6.000000000000000000e+00,-3.000000000000000000e+00,-4.000000000000000000e+00,3.000000000000000000e+00,0.000000000000000000e+00,-1.000000000000000000e+00,3.941650390625000000e-01,1.735839843750000000e-01,-8.995361328125000000e-01,-7.318115234375000000e-02
-6.000000000000000000e+00,-4.000000000000000000e+00,5.000000000000000000e+00,-1.000000000000000000e+00,-8.000000000000000000e+00,-2.000000000000000000e+00,-3.000000000000000000e+00,-3.000000000000000000e+00,3.941650390625000000e-01,1.735839843750000000e-01,-8.995361328125000000e-01,-7.318115234375000000e-02
-5.000000000000000000e+00,-9.000000000000000000e+00,-1.500000000000000000e+01,-1.600000000000000000e+01,-5.000000000000000000e+00,-5.000000000000000000e+00,-1.600000000000000000e+01,-5.000000000000000000e+00,3.938598632812500000e-01,1.743774414062500000e-01,-8.994750976562500000e-01,-7.360839843750000000e-02
1.000000000000000000e+00,0.000000000000000000e+00,2.600000000000000000e+01,1.000000000000000000e+01,-1.000000000000000000e+00,-1.000000000000000000e+00,-3.000000000000000000e+00,-1.000000000000000000e+00,3.938598632812500000e-01,1.743774414062500000e-01,-8.994750976562500000e-01,-7.360839843750000000e-02
1.000000000000000000e+00,3.000000000000000000e+00,1.900000000000000000e+01,-5.000000000000000000e+00,-5.000000000000000000e+00,-6.000000000000000000e+00,-1.000000000000000000e+01,1.000000000000000000e+00,3.938598632812500000e-01,1.743774414062500000e-01,-8.994750976562500000e-01,-7.360839843750000000e-02
-1.000000000000000000e+00,3.000000000000000000e+00,-1.700000000000000000e+01,-7.000000000000000000e+00,3.000000000000000000e+00,4.000000000000000000e+00,3.000000000000000000e+00,-4.000000000000000000e+00,3.938598632812500000e-01,1.743774414062500000e-01,-8.994750976562500000e-01,-7.360839843750000000e-02
-4.000000000000000000e+00,-5.000000000000000000e+00,2.300000000000000000e+01,1.100000000000000000e+01,-2.000000000000000000e+00,-2.000000000000000000e+00,3.000000000000000000e+00,3.000000000000000000e+00,3.936157226562500000e-01,1.748046875000000000e-01,-8.994750976562500000e-01,-7.354736328125000000e-02
-3.000000000000000000e+00,-8.000000000000000000e+00,-3.700000000000000000e+01,-1.500000000000000000e+01,-1.000000000000000000e+00,-1.000000000000000000e+00,1.400000000000000000e+01,-5.000000000000000000e+00,3.936157226562500000e-01,1.748046875000000000e-01,-8.994750976562500000e-01,-7.354736328125000000e-02
-2.000000000000000000e+00,1.000000000000000000e+00,6.000000000000000000e+00,2.100000000000000000e+01,5.000000000000000000e+00,-2.000000000000000000e+00,-1.100000000000000000e+01,-2.000000000000000000e+00,3.936157226562500000e-01,1.748046875000000000e-01,-8.994750976562500000e-01,-7.354736328125000000e-02
1.000000000000000000e+00,1.000000000000000000e+00,1.700000000000000000e+01,2.000000000000000000e+00,-1.000000000000000000e+00,-4.000000000000000000e+00,-9.000000000000000000e+00,-2.000000000000000000e+00,3.936157226562500000e-01,1.748046875000000000e-01,-8.994750976562500000e-01,-7.354736328125000000e-02
1.000000000000000000e+00,-1.000000000000000000e+00,-6.100000000000000000e+01,-2.900000000000000000e+01,-2.000000000000000000e+00,5.000000000000000000e+00,1.000000000000000000e+00,-2.000000000000000000e+00,3.934326171875000000e-01,1.759643554687500000e-01,-8.994140625000000000e-01,-7.305908203125000000e-02
1.000000000000000000e+00,2.000000000000000000e+00,5.600000000000000000e+01,1.300000000000000000e+01,1.000000000000000000e+00,-2.000000000000000000e+00,-1.500000000000000000e+01,-1.100000000000000000e+01,3.934326171875000000e-01,1.759643554687500000e-01,-8.994140625000000000e-01,-7.305908203125000000e-02
-1.000000000000000000e+00,1.000000000000000000e+00,5.400000000000000000e+01,1.700000000000000000e+01,1.100000000000000000e+01,1.000000000000000000e+01,1.700000000000000000e+01,1.200000000000000000e+01,3.934326171875000000e-01,1.759643554687500000e-01,-8.994140625000000000e-01,-7.305908203125000000e-02
-1.000000000000000000e+00,-4.000000000000000000e+00,-3.900000000000000000e+01,-1.200000000000000000e+01,-2.000000000000000000e+00,-2.000000000000000000e+00,3.000000000000000000e+00,-1.000000000000000000e+00,3.934326171875000000e-01,1.759643554687500000e-01,-8.994140625000000000e-01,-7.305908203125000000e-02
3.000000000000000000e+00,1.100000000000000000e+01,7.000000000000000000e+00,6.000000000000000000e+00,3.000000000000000000e+00,-1.000000000000000000e+00,-8.000000000000000000e+00,1.000000000000000000e+00,3.931884765625000000e-01,1.768798828125000000e-01,-8.993530273437500000e-01,-7.281494140625000000e-02
-5.000000000000000000e+00,-1.400000000000000000e+01,2.000000000000000000e+00,-6.000000000000000000e+00,-1.000000000000000000e+00,-1.000000000000000000e+00,-6.000000000000000000e+00,-2.000000000000000000e+00,3.931884765625000000e-01,1.768798828125000000e-01,-8.993530273437500000e-01,-7.281494140625000000e-02
0.000000000000000000e+00,0.000000000000000000e+00,-2.000000000000000000e+00,-8.000000000000000000e+00,-6.000000000000000000e+00,-2.000000000000000000e+00,-1.000000000000000000e+00,-5.000000000000000000e+00,3.931884765625000000e-01,1.768798828125000000e-01,-8.993530273437500000e-01,-7.281494140625000000e-02
4.000000000000000000e+00,5.000000000000000000e+00,8.700000000000000000e+01,3.100000000000000000e+01,4.000000000000000000e+00,2.000000000000000000e+00,0.000000000000000000e+00,4.000000000000000000e+00,3.931884765625000000e-01,1.768798828125000000e-01,-8.993530273437500000e-01,-7.281494140625000000e-02
-5.000000000000000000e+00,-4.000000000000000000e+00,-3.800000000000000000e+01,-1.300000000000000000e+01,-7.000000000000000000e+00,-6.000000000000000000e+00,-6.000000000000000000e+00,-3.000000000000000000e+00,3.929443359375000000e-01,1.776733398437500000e-01,-8.992919921875000000e-01,-7.275390625000000000e-02
0.000000000000000000e+00,1.000000000000000000e+00,-7.100000000000000000e+01,-1.500000000000000000e+01,-2.000000000000000000e+00,-2.000000000000000000e+00,-1.900000000000000000e+01,3.000000000000000000e+00,3.929443359375000000e-01,1.776733398437500000e-01,-8.992919921875000000e-01,-7.275390625000000000e-02
2.000000000000000000e+00,2.000000000000000000e+00,2.000000000000000000e+01,5.000000000000000000e+00,2.000000000000000000e+00,-2.000000000000000000e+00,3.000000000000000000e+00,3.000000000000000000e+00,3.929443359375000000e-01,1.776733398437500000e-01,-8.992919921875000000e-01,-7.275390625000000000e-02
-1.100000000000000000e+01,-1.000000000000000000e+01,1.000000000000000000e+00,-1.000000000000000000e+00,-9.000000000000000000e+00,-5.000000000000000000e+00,-5.000000000000000000e+00,-2.000000000000000000e+00,3.929443359375000000e-01,1.776733398437500000e-01,-8.992919921875000000e-01,-7.275390625000000000e-02
1.000000000000000000e+00,-1.000000000000000000e+00,-5.600000000000000000e+01,-2.200000000000000000e+01,-3.000000000000000000e+00,0.000000000000000000e+00,1.000000000000000000e+01,-8.000000000000000000e+00,3.926391601562500000e-01,1.777954101562500000e-01,-8.994750976562500000e-01,-7.250976562500000000e-02
2.000000000000000000e+00,-2.000000000000000000e+00,-1.400000000000000000e+01,0.000000000000000000e+00,1.000000000000000000e+00,2.000000000000000000e+00,8.000000000000000000e+00,4.000000000000000000e+00,3.926391601562500000e-01,1.777954101562500000e-01,-8.994750976562500000e-01,-7.250976562500000000e-02
-3.000000000000000000e+00,-4.000000000000000000e+00,-1.300000000000000000e+01,3.000000000000000000e+00,-1.000000000000000000e+00,-5.000000000000000000e+00,-1.400000000000000000e+01,-3.000000000000000000e+00,3.926391601562500000e-01,1.777954101562500000e-01,-8.994750976562500000e-01,-7.250976562500000000e-02
2.000000000000000000e+00,4.000000000000000000e+00,-1.800000000000000000e+01,0.000000000000000000e+00,4.000000000000000000e+00,6.000000000000000000e+00,8.000000000000000000e+00,2.000000000000000000e+00,3.926391601562500000e-01,1.777954101562500000e-01,-8.994750976562500000e-01,-7.250976562500000000e-02
3.000000000000000000e+00,1.000000000000000000e+00,2.400000000000000000e+01,1.300000000000000000e+01,-3.000000000000000000e+00,-8.000000000000000000e+00,-1.600000000000000000e+01,-1.000000000000000000e+00,3.919677734375000000e-01,1.781005859375000000e-01,-8.997192382812500000e-01,-7.183837890625000000e-02
-1.000000000000000000e+00,5.000000000000000000e+00,4.200000000000000000e+01,1.000000000000000000e+01,0.000000000000000000e+00,3.000000000000000000e+00,8.000000000000000000e+00,0.000000000000000000e+00,3.919677734375000000e-01,1.781005859375000000e-01,-8.997192382812500000e-01,-7.183837890625000000e-02
