5.000000000000000000e+00,-1.100000000000000000e+01,0.000000000000000000e+00,8.000000000000000000e+00,1.100000000000000000e+01,-4.000000000000000000e+00,-5.000000000000000000e+00,-1.000000000000000000e+00,4.602661132812500000e-01,2.720336914062500000e-01,-8.295288085937500000e-01,1.611938476562500000e-01
-1.300000000000000000e+01,4.000000000000000000e+00,-1.000000000000000000e+00,-6.000000000000000000e+00,-4.000000000000000000e+00,1.200000000000000000e+01,1.300000000000000000e+01,-9.000000000000000000e+00,4.602661132812500000e-01,2.720336914062500000e-01,-8.295288085937500000e-01,1.611938476562500000e-01
9.000000000000000000e+00,6.000000000000000000e+00,1.000000000000000000e+01,-1.000000000000000000e+00,6.000000000000000000e+00,0.000000000000000000e+00,1.000000000000000000e+00,8.000000000000000000e+00,4.602661132812500000e-01,2.720336914062500000e-01,-8.295288085937500000e-01,1.611938476562500000e-01
-7.000000000000000000e+00,-8.000000000000000000e+00,-4.000000000000000000e+00,6.000000000000000000e+00,5.000000000000000000e+00,0.000000000000000000e+00,-4.000000000000000000e+00,3.000000000000000000e+00,4.602661132812500000e-01,2.720336914062500000e-01,-8.295288085937500000e-01,1.611938476562500000e-01
7.000000000000000000e+00,7.000000000000000000e+00,2.000000000000000000e+00,-3.000000000000000000e+00,4.000000000000000000e+00,-1.000000000000000000e+00,-1.000000000000000000e+01,0.000000000000000000e+00,4.590454101562500000e-01,2.731323242187500000e-01,-8.302001953125000000e-01,1.594238281250000000e-01
3.000000000000000000e+00,-2.000000000000000000e+00,1.000000000000000000e+01,-2.000000000000000000e+00,-6.000000000000000000e+00,-7.000000000000000000e+00,-3.000000000000000000e+00,-2.000000000000000000e+00,4.590454101562500000e-01,2.731323242187500000e-01,-8.302001953125000000e-01,1.594238281250000000e-01
-4.000000000000000000e+00,1.200000000000000000e+01,3.000000000000000000e+00,1.300000000000000000e+01,-4.000000000000000000e+00,-1.000000000000000000e+00,4.000000000000000000e+00,-3.000000000000000000e+00,4.590454101562500000e-01,2.731323242187500000e-01,-8.302001953125000000e-01,1.594238281250000000e-01
-6.000000000000000000e+00,-1.800000000000000000e+01,-1.300000000000000000e+01,-3.400000000000000000e+01,-3.000000000000000000e+00,-4.000000000000000000e+00,-9.000000000000000000e+00,-7.000000000000000000e+00,4.590454101562500000e-01,2.731323242187500000e-01,-8.302001953125000000e-01,1.594238281250000000e-01
-1.000000000000000000e+00,3.000000000000000000e+00,-1.000000000000000000e+00,-1.000000000000000000e+00,-1.300000000000000000e+01,-2.000000000000000000e+00,-1.000000000000000000e+00,0.000000000000000000e+00,4.581298828125000000e-01,2.752075195312500000e-01,-8.303833007812500000e-01,1.574096679687500000e-01
0.000000000000000000e+00,-2.000000000000000000e+00,-6.000000000000000000e+00,1.700000000000000000e+01,1.100000000000000000e+01,1.000000000000000000e+00,-1.000000000000000000e+00,3.000000000000000000e+00,4.581298828125000000e-01,2.752075195312500000e-01,-8.303833007812500000e-01,1.574096679687500000e-01
6.000000000000000000e+00,-2.000000000000000000e+00,2.100000000000000000e+01,4.000000000000000000e+00,1.000000000000000000e+00,-5.000000000000000000e+00,-1.700000000000000000e+01,-1.000000000000000000e+00,4.581298828125000000e-01,2.752075195312500000e-01,-8.303833007812500000e-01,1.574096679687500000e-01
-2.000000000000000000e+00,7.000000000000000000e+00,-1.000000000000000000e+01,-7.000000000000000000e+00,-7.000000000000000000e+00,4.000000000000000000e+00,5.000000000000000000e+00,3.000000000000000000e+00,4.581298828125000000e-01,2.752075195312500000e-01,-8.303833007812500000e-01,1.574096679687500000e-01
-5.000000000000000000e+00,-2.000000000000000000e+00,1.500000000000000000e+01,2.500000000000000000e+01,-5.000000000000000000e+00,-3.000000000000000000e+00,-2.000000000000000000e+00,-4.000000000000000000e+00,4.583129882812500000e-01,2.772827148437500000e-01,-8.298950195312500000e-01,1.557617187500000000e-01
6.000000000000000000e+00,7.000000000000000000e+00,9.000000000000000000e+00,-4.100000000000000000e+01,-5.000000000000000000e+00,-1.000000000000000000e+00,-1.000000000000000000e+00,4.000000000000000000e+00,4.583129882812500000e-01,2.772827148437500000e-01,-8.298950195312500000e-01,1.557617187500000000e-01
-6.000000000000000000e+00,-1.800000000000000000e+01,-4.400000000000000000e+01,8.000000000000000000e+00,8.000000000000000000e+00,-6.000000000000000000e+00,-8.000000000000000000e+00,-1.000000000000000000e+00,4.583129882812500000e-01,2.772827148437500000e-01,-8.298950195312500000e-01,1.557617187500000000e-01
1.000000000000000000e+00,4.000000000000000000e+00,1.800000000000000000e+01,6.000000000000000000e+00,7.000000000000000000e+00,8.000000000000000000e+00,1.100000000000000000e+01,-2.000000000000000000e+00,4.583129882812500000e-01,2.772827148437500000e-01,-8.298950195312500000e-01,1.557617187500000000e-01
7.000000000000000000e+00,2.000000000000000000e+00,8.000000000000000000e+00,-6.000000000000000000e+00,-1.300000000000000000e+01,2.000000000000000000e+00,1.000000000000000000e+00,1.000000000000000000e+00,4.586791992187500000e-01,2.782592773437500000e-01,-8.296508789062500000e-01,1.545410156250000000e-01
-2.500000000000000000e+01,-1.700000000000000000e+01,-7.000000000000000000e+00,1.800000000000000000e+01,0.000000000000000000e+00,-3.000000000000000000e+00,-3.000000000000000000e+00,0.000000000000000000e+00,4.586791992187500000e-01,2.782592773437500000e-01,-8.296508789062500000e-01,1.545410156250000000e-01
-3.000000000000000000e+00,-1.000000000000000000e+00,2.000000000000000000e+00,-1.400000000000000000e+01,-9.000000000000000000e+00,1.000000000000000000e+00,-3.000000000000000000e+00,-2.000000000000000000e+00,4.586791992187500000e-01,2.782592773437500000e-01,-8.296508789062500000e-01,1.545410156250000000e-01
-2.000000000000000000e+00,-5.000000000000000000e+00,1.000000000000000000e+00,2.000000000000000000e+00,-3.000000000000000000e+00,-5.000000000000000000e+00,6.000000000000000000e+00,-2.000000000000000000e+00,4.586791992187500000e-01,2.782592773437500000e-01,-8.296508789062500000e-01,1.545410156250000000e-01
4.000000000000000000e+00,-5.000000000000000000e+00,-1.000000000000000000e+00,0.000000000000000000e+00,1.000000000000000000e+01,4.000000000000000000e+00,-7.000000000000000000e+00,0.000000000000000000e+00,4.592895507812500000e-01,2.783813476562500000e-01,-8.294677734375000000e-01,1.533813476562500000e-01
-1.000000000000000000e+00,5.000000000000000000e+00,-4.000000000000000000e+00,4.000000000000000000e+00,-7.000000000000000000e+00,-3.000000000000000000e+00,0.000000000000000000e+00,0.000000000000000000e+00,4.592895507812500000e-01,2.783813476562500000e-01,-8.294677734375000000e-01,1.533813476562500000e-01
2.000000000000000000e+00,9.000000000000000000e+00,2.000000000000000000e+01,-1.000000000000000000e+00,6.000000000000000000e+00,0.000000000000000000e+00,-3.000000000000000000e+00,-1.100000000000000000e+01,4.592895507812500000e-01,2.783813476562500000e-01,-8.294677734375000000e-01,1.533813476562500000e-01
-1.100000000000000000e+01,-1.900000000000000000e+01,-4.500000000000000000e+01,-1.600000000000000000e+01,-1.500000000000000000e+01,4.000000000000000000e+00,7.000000000000000000e+00,-4.000000000000000000e+00,4.592895507812500000e-01,2.783813476562500000e-01,-8.294677734375000000e-01,1.533813476562500000e-01
1.400000000000000000e+01,6.000000000000000000e+00,2.000000000000000000e+00,0.000000000000000000e+00,-7.000000000000000000e+00,-5.000000000000000000e+00,5.000000000000000000e+00,0.000000000000000000e+00,4.597778320312500000e-01,2.784423828125000000e-01,-8.293457031250000000e-01,1.525878906250000000e-01
-2.200000000000000000e+01,-4.000000000000000000e+00,-4.000000000000000000e+00,-5.000000000000000000e+00,1.100000000000000000e+01,1.000000000000000000e+00,-1.000000000000000000e+00,-1.000000000000000000e+00,4.597778320312500000e-01,2.784423828125000000e-01,-8.293457031250000000e-01,1.525878906250000000e-01
-3.000000000000000000e+00,-7.000000000000000000e+00,-4.000000000000000000e+00,3.000000000000000000e+00,1.000000000000000000e+00,1.000000000000000000e+00,-6.000000000000000000e+00,0.000000000000000000e+00,4.597778320312500000e-01,2.784423828125000000e-01,-8.293457031250000000e-01,1.525878906250000000e-01
5.000000000000000000e+00,9.000000000000000000e+00,2.600000000000000000e+01,1.000000000000000000e+01,1.000000000000000000e+00,-1.000000000000000000e+01,-6.000000000000000000e+00,1.000000000000000000e+00,4.597778320312500000e-01,2.784423828125000000e-01,-8.293457031250000000e-01,1.525878906250000000e-01
-2.000000000000000000e+00,0.000000000000000000e+00,-4.000000000000000000e+00,-1.200000000000000000e+01,0.000000000000000000e+00,0.000000000000000000e+00,4.000000000000000000e+00,-2.000000000000000000e+00,4.603881835937500000e-01,2.789916992187500000e-01,-8.288574218750000000e-01,1.522827148437500000e-01
7.000000000000000000e+00,-1.200000000000000000e+01,-3.300000000000000000e+01,1.000000000000000000e+00,-6.000000000000000000e+00,-1.000000000000000000e+00,2.000000000000000000e+00,-4.000000000000000000e+00,4.603881835937500000e-01,2.789916992187500000e-01,-8.288574218750000000e-01,1.522827148437500000e-01
-2.000000000000000000e+00,-3.000000000000000000e+00,1.100000000000000000e+01,-3.000000000000000000e+00,-5.000000000000000000e+00,-5.000000000000000000e+00,-5.000000000000000000e+00,-1.000000000000000000e+00,4.603881835937500000e-01,2.789916992187500000e-01,-8.288574218750000000e-01,1.522827148437500000e-01
8.000000000000000000e+00,8.000000000000000000e+00,2.000000000000000000e+00,8.000000000000000000e+00,5.000000000000000000e+00,-5.000000000000000000e+00,-3.000000000000000000e+00,1.000000000000000000e+00,4.603881835937500000e-01,2.789916992187500000e-01,-8.288574218750000000e-01,1.522827148437500000e-01
-1.600000000000000000e+01,-1.000000000000000000e+01,-1.200000000000000000e+01,-1.100000000000000000e+01,1.000000000000000000e+00,6.000000000000000000e+00,-3.000000000000000000e+00,2.000000000000000000e+00,4.613037109375000000e-01,2.792358398437500000e-01,-8.283081054687500000e-01,1.522216796875000000e-01
5.000000000000000000e+00,2.000000000000000000e+00,1.100000000000000000e+01,1.100000000000000000e+01,-1.000000000000000000e+00,0.000000000000000000e+00,-3.000000000000000000e+00,3.000000000000000000e+00,4.613037109375000000e-01,2.792358398437500000e-01,-8.283081054687500000e-01,1.522216796875000000e-01
1.000000000000000000e+00,9.000000000000000000e+00,-1.000000000000000000e+00,9.000000000000000000e+00,2.000000000000000000e+00,3.000000000000000000e+00,9.000000000000000000e+00,5.000000000000000000e+00,4.613037109375000000e-01,2.792358398437500000e-01,-8.283081054687500000e-01,1.522216796875000000e-01
3.000000000000000000e+00,-2.000000000000000000e+00,1.000000000000000000e+01,-1.600000000000000000e+01,-5.000000000000000000e+00,-2.000000000000000000e+00,-3.000000000000000000e+00,-1.000000000000000000e+00,4.613037109375000000e-01,2.792358398437500000e-01,-8.283081054687500000e-01,1.522216796875000000e-01
-4.000000000000000000e+00,-5.000000000000000000e+00,-2.400000000000000000e+01,-6.000000000000000000e+00,-1.200000000000000000e+01,-8.000000000000000000e+00,-7.000000000000000000e+00,-6.000000000000000000e+00,4.620971679687500000e-01,2.786865234375000000e-01,-8.280029296875000000e-01,1.522827148437500000e-01
9.000000000000000000e+00,-6.000000000000000000e+00,-3.000000000000000000e+00,-2.000000000000000000e+00,1.200000000000000000e+01,3.000000000000000000e+00,2.000000000000000000e+00,-4.000000000000000000e+00,4.620971679687500000e-01,2.786865234375000000e-01,-8.280029296875000000e-01,1.522827148437500000e-01
-1.900000000000000000e+01,-6.000000000000000000e+00,-5.000000000000000000e+00,1.000000000000000000e+00,1.000000000000000000e+00,3.000000000000000000e+00,-1.000000000000000000e+00,-6.000000000000000000e+00,4.620971679687500000e-01,2.786865234375000000e-01,-8.280029296875000000e-01,1.522827148437500000e-01
2.000000000000000000e+00,2.000000000000000000e+01,1.700000000000000000e+01,1.300000000000000000e+01,1.000000000000000000e+01,4.000000000000000000e+00,-3.000000000000000000e+00,-1.000000000000000000e+00,4.620971679687500000e-01,2.786865234375000000e-01,-8.280029296875000000e-01,1.522827148437500000e-01
-1.000000000000000000e+00,0.000000000000000000e+00,-1.600000000000000000e+01,-1.200000000000000000e+01,-1.700000000000000000e+01,-1.000000000000000000e+01,-5.000000000000000000e+00,-1.000000000000000000e+00,4.627685546875000000e-01,2.778930664062500000e-01,-8.278198242187500000e-01,1.525268554687500000e-01
1.200000000000000000e+01,-2.000000000000000000e+00,7.000000000000000000e+00,-3.000000000000000000e+00,6.000000000000000000e+00,-1.000000000000000000e+00,-4.000000000000000000e+00,0.000000000000000000e+00,4.627685546875000000e-01,2.778930664062500000e-01,-8.278198242187500000e-01,1.525268554687500000e-01
4.000000000000000000e+00,-6.000000000000000000e+00,-8.000000000000000000e+00,-1.200000000000000000e+01,-5.000000000000000000e+00,6.000000000000000000e+00,1.300000000000000000e+01,0.000000000000000000e+00,4.627685546875000000e-01,2.778930664062500000e-01,-8.278198242187500000e-01,1.525268554687500000e-01
-8.000000000000000000e+00,-6.000000000000000000e+00,-3.000000000000000000e+00,8.000000000000000000e+00,4.000000000000000000e+00,0.000000000000000000e+00,-6.000000000000000000e+00,-3.000000000000000000e+00,4.627685546875000000e-01,2.778930664062500000e-01,-8.278198242187500000e-01,1.525268554687500000e-01
-1.000000000000000000e+01,-6.000000000000000000e+00,1.500000000000000000e+01,0.000000000000000000e+00,1.000000000000000000e+00,-5.000000000000000000e+00,-2.000000000000000000e+00,-1.000000000000000000e+00,4.630126953125000000e-01,2.773437500000000000e-01,-8.278808593750000000e-01,1.527099609375000000e-01
4.000000000000000000e+00,3.000000000000000000e+00,-6.000000000000000000e+00,5.000000000000000000e+00,-1.100000000000000000e+01,2.000000000000000000e+00,0.000000000000000000e+00,-1.000000000000000000e+00,4.630126953125000000e-01,2.773437500000000000e-01,-8.278808593750000000e-01,1.527099609375000000e-01
1.700000000000000000e+01,1.200000000000000000e+01,8.000000000000000000e+00,3.000000000000000000e+00,0.000000000000000000e+00,-1.500000000000000000e+01,-2.600000000000000000e+01,-2.000000000000000000e+00,4.630126953125000000e-01,2.773437500000000000e-01,-8.278808593750000000e-01,1.527099609375000000e-01
0.000000000000000000e+00,2.000000000000000000e+01,7.000000000000000000e+00,1.000000000000000000e+00,1.000000000000000000e+00,1.400000000000000000e+01,2.200000000000000000e+01,3.000000000000000000e+00,4.630126953125000000e-01,2.773437500000000000e-01,-8.278808593750000000e-01,1.527099609375000000e-01
-1.300000000000000000e+01,-2.100000000000000000e+01,-1.000000000000000000e+01,-1.000000000000000000e+01,1.000000000000000000e+00,-4.000000000000000000e+00,-1.000000000000000000e+00,-5.000000000000000000e+00,4.630126953125000000e-01,2.774047851562500000e-01,-8.278808593750000000e-01,1.526489257812500000e-01
-2.000000000000000000e+00,-6.000000000000000000e+00,1.800000000000000000e+01,8.000000000000000000e+00,-3.000000000000000000e+00,-2.000000000000000000e+00,4.000000000000000000e+00,-3.000000000000000000e+00,4.630126953125000000e-01,2.774047851562500000e-01,-8.278808593750000000e-01,1.526489257812500000e-01
-5.000000000000000000e+00,-2.000000000000000000e+00,-6.000000000000000000e+00,0.000000000000000000e+00,4.000000000000000000e+00,-3.000000000000000000e+00,-8.000000000000000000e+00,0.000000000000000000e+00,4.630126953125000000e-01,2.774047851562500000e-01,-8.278808593750000000e-01,1.526489257812500000e-01
1.000000000000000000e+00,-1.000000000000000000e+00,-3.000000000000000000e+00,-3.000000000000000000e+00,-2.000000000000000000e+00,-3.000000000000000000e+00,-2.000000000000000000e+00,-2.000000000000000000e+00,4.630126953125000000e-01,2.774047851562500000e-01,-8.278808593750000000e-01,1.526489257812500000e-01
8.000000000000000000e+00,1.200000000000000000e+01,3.000000000000000000e+00,5.000000000000000000e+00,6.000000000000000000e+00,3.000000000000000000e+00,2.000000000000000000e+00,3.000000000000000000e+00,4.632568359375000000e-01,2.774658203125000000e-01,-8.278198242187500000e-01,1.519775390625000000e-01
-3.000000000000000000e+00,6.000000000000000000e+00,-1.000000000000000000e+00,7.000000000000000000e+00,-6.000000000000000000e+00,-4.000000000000000000e+00,-7.000000000000000000e+00,1.000000000000000000e+00,4.632568359375000000e-01,2.774658203125000000e-01,-8.278198242187500000e-01,1.519775390625000000e-01
0.000000000000000000e+00,-3.000000000000000000e+00,4.000000000000000000e+00,-2.600000000000000000e+01,-8.000000000000000000e+00,-2.000000000000000000e+00,-3.000000000000000000e+00,1.000000000000000000e+00,4.632568359375000000e-01,2.774658203125000000e-01,-8.278198242187500000e-01,1.519775390625000000e-01
4.000000000000000000e+00,5.000000000000000000e+00,0.000000000000000000e+00,1.600000000000000000e+01,-5.000000000000000000e+00,-2.000000000000000000e+00,-1.300000000000000000e+01,3.000000000000000000e+00,4.632568359375000000e-01,2.774658203125000000e-01,-8.278198242187500000e-01,1.519775390625000000e-01
-3.000000000000000000e+00,-8.000000000000000000e+00,-3.700000000000000000e+01,-1.000000000000000000e+01,1.000000000000000000e+01,7.000000000000000000e+00,9.000000000000000000e+00,0.000000000000000000e+00,4.635620117187500000e-01,2.771606445312500000e-01,-8.279418945312500000e-01,1.508789062500000000e-01
-1.000000000000000000e+01,-1.000000000000000000e+01,6.000000000000000000e+00,-1.600000000000000000e+01,-1.400000000000000000e+01,-5.000000000000000000e+00,1.000000000000000000e+00,-6.000000000000000000e+00,4.635620117187500000e-01,2.771606445312500000e-01,-8.279418945312500000e-01,1.508789062500000000e-01
-8.000000000000000000e+00,-1.900000000000000000e+01,-2.300000000000000000e+01,-1.000000000000000000e+00,0.000000000000000000e+00,7.000000000000000000e+00,1.000000000000000000e+01,-4.000000000000000000e+00,4.635620117187500000e-01,2.771606445312500000e-01,-8.279418945312500000e-01,1.508789062500000000e-01
-4.000000000000000000e+00,-1.000000000000000000e+00,1.000000000000000000e+01,-9.000000000000000000e+00,-4.000000000000000000e+00,-3.000000000000000000e+00,-2.000000000000000000e+00,-4.000000000000000000e+00,4.635620117187500000e-01,2.771606445312500000e-01,-8.279418945312500000e-01,1.508789062500000000e-01
2.000000000000000000e+00,7.000000000000000000e+00,1.500000000000000000e+01,1.200000000000000000e+01,3.000000000000000000e+00,-4.000000000000000000e+00,-9.000000000000000000e+00,0.000000000000000000e+00,4.638061523437500000e-01,2.773437500000000000e-01,-8.280029296875000000e-01,1.495971679687500000e-01
3.000000000000000000e+00,9.000000000000000000e+00,-2.000000000000000000e+00,0.000000000000000000e+00,-4.000000000000000000e+00,0.000000000000000000e+00,3.000000000000000000e+00,2.000000000000000000e+00,4.638061523437500000e-01,2.773437500000000000e-01,-8.280029296875000000e-01,1.495971679687500000e-01
2.000000000000000000e+00,3.000000000000000000e+00,-2.000000000000000000e+00,-1.000000000000000000e+00,-4.000000000000000000e+00,-2.000000000000000000e+00,2.000000000000000000e+00,1.000000000000000000e+00,4.638061523437500000e-01,2.773437500000000000e-01,-8.280029296875000000e-01,1.495971679687500000e-01
-1.000000000000000000e+00,-9.000000000000000000e+00,-1.000000000000000000e+01,-3.000000000000000000e+00,-2.000000000000000000e+00,-6.000000000000000000e+00,-3.000000000000000000e+00,-4.000000000000000000e+00,4.638061523437500000e-01,2.773437500000000000e-01,-8.280029296875000000e-01,1.495971679687500000e-01
4.000000000000000000e+00,7.000000000000000000e+00,4.000000000000000000e+00,-6.000000000000000000e+00,-4.000000000000000000e+00,-4.000000000000000000e+00,-8.000000000000000000e+00,-1.000000000000000000e+00,4.636840820312500000e-01,2.776489257812500000e-01,-8.281860351562500000e-01,1.485595703125000000e-01
1.000000000000000000e+00,3.000000000000000000e+00,2.000000000000000000e+00,6.000000000000000000e+00,3.000000000000000000e+00,9.000000000000000000e+00,3.100000000000000000e+01,-6.000000000000000000e+00,4.636840820312500000e-01,2.776489257812500000e-01,-8.281860351562500000e-01,1.485595703125000000e-01
-3.000000000000000000e+00,-4.000000000000000000e+00,9.000000000000000000e+00,7.000000000000000000e+00,1.200000000000000000e+01,6.000000000000000000e+00,-1.000000000000000000e+00,3.000000000000000000e+00,4.636840820312500000e-01,2.776489257812500000e-01,-8.281860351562500000e-01,1.485595703125000000e-01
-1.000000000000000000e+01,-2.600000000000000000e+01,-1.900000000000000000e+01,-4.000000000000000000e+00,-3.000000000000000000e+00,-6.000000000000000000e+00,-2.800000000000000000e+01,-3.000000000000000000e+00,4.636840820312500000e-01,2.776489257812500000e-01,-8.281860351562500000e-01,1.485595703125000000e-01
-1.000000000000000000e+00,0.000000000000000000e+00,4.000000000000000000e+00,-7.000000000000000000e+00,2.000000000000000000e+00,9.000000000000000000e+00,2.700000000000000000e+01,-1.000000000000000000e+00,4.635009765625000000e-01,2.777099609375000000e-01,-8.284301757812500000e-01,1.474609375000000000e-01
0.000000000000000000e+00,0.000000000000000000e+00,-5.000000000000000000e+00,-2.000000000000000000e+00,-5.000000000000000000e+00,-6.000000000000000000e+00,-1.100000000000000000e+01,-1.000000000000000000e+00,4.635009765625000000e-01,2.777099609375000000e-01,-8.284301757812500000e-01,1.474609375000000000e-01
-2.000000000000000000e+00,8.000000000000000000e+00,6.000000000000000000e+00,3.000000000000000000e+00,0.000000000000000000e+00,-2.000000000000000000e+00,-3.000000000000000000e+00,-2.000000000000000000e+00,4.635009765625000000e-01,2.777099609375000000e-01,-8.284301757812500000e-01,1.474609375000000000e-01
-1.000000000000000000e+00,2.000000000000000000e+00,1.000000000000000000e+00,-2.000000000000000000e+00,-5.000000000000000000e+00,-2.000000000000000000e+00,2.000000000000000000e+00,-2.000000000000000000e+00,4.635009765625000000e-01,2.777099609375000000e-01,-8.284301757812500000e-01,1.474609375000000000e-01
-2.000000000000000000e+00,-4.000000000000000000e+00,-6.000000000000000000e+00,-4.000000000000000000e+00,4.000000000000000000e+00,-2.000000000000000000e+00,-1.400000000000000000e+01,-4.000000000000000000e+00,4.631347656250000000e-01,2.783813476562500000e-01,-8.286132812500000000e-01,1.464233398437500000e-01
-2.000000000000000000e+00,3.000000000000000000e+00,4.000000000000000000e+00,-8.000000000000000000e+00,-2.000000000000000000e+00,-1.000000000000000000e+00,-5.000000000000000000e+00,4.000000000000000000e+00,4.631347656250000000e-01,2.783813476562500000e-01,-8.286132812500000000e-01,1.464233398437500000e-01
6.000000000000000000e+00,2.000000000000000000e+00,-5.000000000000000000e+00,5.000000000000000000e+00,-8.000000000000000000e+00,1.000000000000000000e+00,4.000000000000000000e+00,1.000000000000000000e+00,4.631347656250000000e-01,2.783813476562500000e-01,-8.286132812500000000e-01,1.464233398437500000e-01
7.000000000000000000e+00,-4.000000000000000000e+00,-3.000000000000000000e+00,7.000000000000000000e+00,1.500000000000000000e+01,5.000000000000000000e+00,1.000000000000000000e+01,1.000000000000000000e+00,4.631347656250000000e-01,2.783813476562500000e-01,-8.286132812500000000e-01,1.464233398437500000e-01
-1.900000000000000000e+01,-2.000000000000000000e+00,1.500000000000000000e+01,1.000000000000000000e+00,-2.000000000000000000e+00,-3.000000000000000000e+00,-8.000000000000000000e+00,-4.000000000000000000e+00,4.625854492187500000e-01,2.789916992187500000e-01,-8.289184570312500000e-01,1.450195312500000000e-01
-7.000000000000000000e+00,-1.100000000000000000e+01,8.000000000000000000e+00,1.000000000000000000e+00,3.000000000000000000e+00,-4.000000000000000000e+00,-3.000000000000000000e+00,1.000000000000000000e+00,4.625854492187500000e-01,2.789916992187500000e-01,-8.289184570312500000e-01,1.450195312500000000e-01
-7.000000000000000000e+00,-7.000000000000000000e+00,-2.500000000000000000e+01,-6.000000000000000000e+00,-6.000000000000000000e+00,-5.000000000000000000e+00,1.000000000000000000e+00,-2.000000000000000000e+00,4.625854492187500000e-01,2.789916992187500000e-01,-8.289184570312500000e-01,1.450195312500000000e-01
8.000000000000000000e+00,5.000000000000000000e+00,-1.000000000000000000e+00,9.000000000000000000e+00,-1.200000000000000000e+01,-3.000000000000000000e+00,6.000000000000000000e+00,1.000000000000000000e+00,4.625854492187500000e-01,2.789916992187500000e-01,-8.289184570312500000e-01,1.450195312500000000e-01
1.000000000000000000e+01,6.000000000000000000e+00,3.000000000000000000e+00,-2.000000000000000000e+01,1.100000000000000000e+01,6.000000000000000000e+00,-1.000000000000000000e+00,2.000000000000000000e+00,4.622192382812500000e-01,2.792968750000000000e-01,-8.292846679687500000e-01,1.436157226562500000e-01
-5.000000000000000000e+00,-9.000000000000000000e+00,3.300000000000000000e+01,1.700000000000000000e+01,-4.000000000000000000e+00,-6.000000000000000000e+00,-9.000000000000000000e+00,-2.000000000000000000e+00,4.622192382812500000e-01,2.792968750000000000e-01,-8.292846679687500000e-01,1.436157226562500000e-01
5.000000000000000000e+00,-6.000000000000000000e+00,-2.200000000000000000e+01,-8.000000000000000000e+00,2.000000000000000000e+00,2.000000000000000000e+00,-1.000000000000000000e+00,-1.000000000000000000e+00,4.622192382812500000e-01,2.792968750000000000e-01,-8.292846679687500000e-01,1.436157226562500000e-01
-1.700000000000000000e+01,3.000000000000000000e+00,-3.000000000000000000e+00,-1.000000000000000000e+00,1.000000000000000000e+00,-3.000000000000000000e+00,2.000000000000000000e+00,0.000000000000000000e+00,4.622192382812500000e-01,2.792968750000000000e-01,-8.292846679687500000e-01,1.436157226562500000e-01
6.000000000000000000e+00,-2.000000000000000000e+00,5.000000000000000000e+00,8.000000000000000000e+00,-3.000000000000000000e+00,-3.000000000000000000e+00,-3.000000000000000000e+00,-1.000000000000000000e+00,4.622802734375000000e-01,2.791748046875000000e-01,-8.294677734375000000e-01,1.425170898437500000e-01
7.000000000000000000e+00,5.000000000000000000e+00,-3.000000000000000000e+00,-4.000000000000000000e+00,-2.000000000000000000e+00,-6.000000000000000000e+00,-2.400000000000000000e+01,6.000000000000000000e+00,4.622802734375000000e-01,2.791748046875000000e-01,-8.294677734375000000e-01,1.425170898437500000e-01
1.000000000000000000e+00,2.000000000000000000e+00,9.000000000000000000e+00,-1.200000000000000000e+01,-1.100000000000000000e+01,0.000000000000000000e+00,1.600000000000000000e+01,1.000000000000000000e+00,4.622802734375000000e-01,2.791748046875000000e-01,-8.294677734375000000e-01,1.425170898437500000e-01
-2.000000000000000000e+00,1.200000000000000000e+01,1.100000000000000000e+01,-1.000000000000000000e+00,-2.000000000000000000e+00,2.000000000000000000e+00,3.000000000000000000e+00,0.000000000000000000e+00,4.622802734375000000e-01,2.791748046875000000e-01,-8.294677734375000000e-01,1.425170898437500000e-01
-2.000000000000000000e+01,-3.000000000000000000e+01,-8.000000000000000000e+00,-4.000000000000000000e+00,-7.000000000000000000e+00,-8.000000000000000000e+00,-6.000000000000000000e+00,-2.000000000000000000e+00,4.622192382812500000e-01,2.788085937500000000e-01,-8.297729492187500000e-01,1.418457031250000000e-01
-2.000000000000000000e+00,-8.000000000000000000e+00,-1.800000000000000000e+01,-5.000000000000000000e+00,1.000000000000000000e+00,1.000000000000000000e+00,-1.400000000000000000e+01,-5.000000000000000000e+00,4.622192382812500000e-01,2.788085937500000000e-01,-8.297729492187500000e-01,1.418457031250000000e-01
1.000000000000000000e+00,6.000000000000000000e+00,1.800000000000000000e+01,1.200000000000000000e+01,7.000000000000000000e+00,3.000000000000000000e+00,2.200000000000000000e+01,2.000000000000000000e+00,4.622192382812500000e-01,2.788085937500000000e-01,-8.297729492187500000e-01,1.418457031250000000e-01
5.000000000000000000e+00,2.000000000000000000e+00,-1.200000000000000000e+01,-8.000000000000000000e+00,2.000000000000000000e+00,-5.000000000000000000e+00,-1.100000000000000000e+01,3.000000000000000000e+00,4.622192382812500000e-01,2.788085937500000000e-01,-8.297729492187500000e-01,1.418457031250000000e-01
8.000000000000000000e+00,2.000000000000000000e+01,1.600000000000000000e+01,8.000000000000000000e+00,-2.000000000000000000e+00,1.200000000000000000e+01,1.700000000000000000e+01,-2.000000000000000000e+00,4.625244140625000000e-01,2.783203125000000000e-01,-8.298339843750000000e-01,1.411743164062500000e-01
-8.000000000000000000e+00,-1.000000000000000000e+01,-1.700000000000000000e+01,-1.000000000000000000e+01,-8.000000000000000000e+00,-6.000000000000000000e+00,-5.000000000000000000e+00,-3.000000000000000000e+00,4.625244140625000000e-01,2.783203125000000000e-01,-8.298339843750000000e-01,1.411743164062500000e-01
1.000000000000000000e+00,-2.000000000000000000e+00,7.000000000000000000e+00,5.000000000000000000e+00,5.000000000000000000e+00,-3.000000000000000000e+00,-1.000000000000000000e+01,-3.000000000000000000e+00,4.625244140625000000e-01,2.783203125000000000e-01,-8.298339843750000000e-01,1.411743164062500000e-01
2.000000000000000000e+00,-4.000000000000000000e+00,-1.400000000000000000e+01,0.000000000000000000e+00,-2.000000000000000000e+00,0.000000000000000000e+00,1.000000000000000000e+00,-2.000000000000000000e+00,4.625244140625000000e-01,2.783203125000000000e-01,-8.298339843750000000e-01,1.411743164062500000e-01
6.000000000000000000e+00,-7.000000000000000000e+00,2.000000000000000000e+00,-4.000000000000000000e+00,-6.000000000000000000e+00,-5.000000000000000000e+00,-2.000000000000000000e+00,0.000000000000000000e+00,4.633178710937500000e-01,2.776489257812500000e-01,-8.297119140625000000e-01,1.405639648437500000e-01
-1.000000000000000000e+00,-2.000000000000000000e+00,-1.200000000000000000e+01,0.000000000000000000e+00,1.000000000000000000e+00,2.000000000000000000e+00,4.000000000000000000e+00,-3.000000000000000000e+00,4.633178710937500000e-01,2.776489257812500000e-01,-8.297119140625000000e-01,1.405639648437500000e-01
0.000000000000000000e+00,8.000000000000000000e+00,-1.000000000000000000e+00,5.000000000000000000e+00,-6.000000000000000000e+00,-2.000000000000000000e+00,-6.000000000000000000e+00,0.000000000000000000e+00,4.633178710937500000e-01,2.776489257812500000e-01,-8.297119140625000000e-01,1.405639648437500000e-01
-1.000000000000000000e+00,-5.000000000000000000e+00,-1.700000000000000000e+01,-2.000000000000000000e+01,3.000000000000000000e+00,3.000000000000000000e+00,1.000000000000000000e+00,-2.000000000000000000e+00,4.633178710937500000e-01,2.776489257812500000e-01,-8.297119140625000000e-01,1.405639648437500000e-01
1.000000000000000000e+00,-4.000000000000000000e+00,1.300000000000000000e+01,-1.000000000000000000e+00,-1.000000000000000000e+01,-8.000000000000000000e+00,-1.500000000000000000e+01,-2.000000000000000000e+00,4.639892578125000000e-01,2.772827148437500000e-01,-8.295898437500000000e-01,1.399536132812500000e-01
-9.000000000000000000e+00,7.000000000000000000e+00,1.000000000000000000e+01,-7.000000000000000000e+00,-6.000000000000000000e+00,7.000000000000000000e+00,2.900000000000000000e+01,-1.000000000000000000e+00,4.639892578125000000e-01,2.772827148437500000e-01,-8.295898437500000000e-01,1.399536132812500000e-01
-7.000000000000000000e+00,-9.000000000000000000e+00,-2.600000000000000000e+01,-1.000000000000000000e+00,1.000000000000000000e+00,-4.000000000000000000e+00,-9.000000000000000000e+00,-1.100000000000000000e+01,4.639892578125000000e-01,2.772827148437500000e-01,-8.295898437500000000e-01,1.399536132812500000e-01
4.000000000000000000e+00,-6.000000000000000000e+00,9.000000000000000000e+00,1.000000000000000000e+00,-5.000000000000000000e+00,-6.000000000000000000e+00,-3.000000000000000000e+00,5.000000000000000000e+00,4.639892578125000000e-01,2.772827148437500000e-01,-8.295898437500000000e-01,1.399536132812500000e-01
2.000000000000000000e+00,9.000000000000000000e+00,-3.000000000000000000e+00,9.000000000000000000e+00,2.000000000000000000e+00,1.000000000000000000e+00,4.000000000000000000e+00,2.000000000000000000e+00,4.647827148437500000e-01,2.765502929687500000e-01,-8.295288085937500000e-01,1.392211914062500000e-01
1.000000000000000000e+00,-2.000000000000000000e+00,-6.000000000000000000e+00,-2.000000000000000000e+00,0.000000000000000000e+00,-4.000000000000000000e+00,-5.000000000000000000e+00,1.000000000000000000e+00,4.647827148437500000e-01,2.765502929687500000e-01,-8.295288085937500000e-01,1.392211914062500000e-01
-3.000000000000000000e+00,-3.000000000000000000e+00,-1.100000000000000000e+01,-1.200000000000000000e+01,-1.000000000000000000e+00,-1.000000000000000000e+00,-4.000000000000000000e+00,-1.000000000000000000e+00,4.647827148437500000e-01,2.765502929687500000e-01,-8.295288085937500000e-01,1.392211914062500000e-01
-3.000000000000000000e+00,1.000000000000000000e+01,-1.100000000000000000e+01,8.000000000000000000e+00,0.000000000000000000e+00,-1.000000000000000000e+00,2.200000000000000000e+01,-4.000000000000000000e+00,4.647827148437500000e-01,2.765502929687500000e-01,-8.295288085937500000e-01,1.392211914062500000e-01
-3.000000000000000000e+00,-1.200000000000000000e+01,-1.300000000000000000e+01,-1.000000000000000000e+01,-2.000000000000000000e+00,1.800000000000000000e+01,1.600000000000000000e+01,0.000000000000000000e+00,4.653930664062500000e-01,2.757568359375000000e-01,-8.295288085937500000e-01,1.386108398437500000e-01
8.000000000000000000e+00,1.100000000000000000e+01,1.300000000000000000e+01,9.000000000000000000e+00,1.000000000000000000e+00,-8.000000000000000000e+00,9.000000000000000000e+00,2.000000000000000000e+00,4.653930664062500000e-01,2.757568359375000000e-01,-8.295288085937500000e-01,1.386108398437500000e-01
-9.000000000000000000e+00,-7.000000000000000000e+00,2.900000000000000000e+01,-1.000000000000000000e+00,-1.000000000000000000e+01,-5.000000000000000000e+00,-1.300000000000000000e+01,-4.000000000000000000e+00,4.653930664062500000e-01,2.757568359375000000e-01,-8.295288085937500000e-01,1.386108398437500000e-01
1.000000000000000000e+00,-6.000000000000000000e+00,1.000000000000000000e+00,-4.000000000000000000e+00,1.100000000000000000e+01,8.000000000000000000e+00,-2.000000000000000000e+00,0.000000000000000000e+00,4.653930664062500000e-01,2.757568359375000000e-01,-8.295288085937500000e-01,1.386108398437500000e-01
5.000000000000000000e+00,1.500000000000000000e+01,6.000000000000000000e+00,1.200000000000000000e+01,5.000000000000000000e+00,-9.000000000000000000e+00,-5.000000000000000000e+01,3.000000000000000000e+00,4.661865234375000000e-01,2.750244140625000000e-01,-8.294067382812500000e-01,1.382446289062500000e-01
-1.000000000000000000e+00,-3.000000000000000000e+00,-8.000000000000000000e+00,2.000000000000000000e+00,-2.000000000000000000e+00,-2.000000000000000000e+00,4.000000000000000000e+00,-1.000000000000000000e+00,4.661865234375000000e-01,2.750244140625000000e-01,-8.294067382812500000e-01,1.382446289062500000e-01
0.000000000000000000e+00,2.000000000000000000e+00,0.000000000000000000e+00,-1.500000000000000000e+01,-3.000000000000000000e+00,2.000000000000000000e+00,2.000000000000000000e+00,2.000000000000000000e+00,4.661865234375000000e-01,2.750244140625000000e-01,-8.294067382812500000e-01,1.382446289062500000e-01
1.000000000000000000e+00,-1.300000000000000000e+01,-1.100000000000000000e+01,3.000000000000000000e+00,-9.000000000000000000e+00,-6.000000000000000000e+00,-1.000000000000000000e+00,-5.000000000000000000e+00,4.661865234375000000e-01,2.750244140625000000e-01,-8.294067382812500000e-01,1.382446289062500000e-01
-1.800000000000000000e+01,-4.000000000000000000e+00,-5.000000000000000000e+00,-4.000000000000000000e+00,0.000000000000000000e+00,-1.000000000000000000e+01,-6.000000000000000000e+00,-3.000000000000000000e+00,4.667968750000000000e-01,2.741699218750000000e-01,-8.294677734375000000e-01,1.376342773437500000e-01
0.000000000000000000e+00,-5.000000000000000000e+00,-7.000000000000000000e+00,4.000000000000000000e+00,2.000000000000000000e+00,3.000000000000000000e+00,0.000000000000000000e+00,1.000000000000000000e+00,4.667968750000000000e-01,2.741699218750000000e-01,-8.294677734375000000e-01,1.376342773437500000e-01
9.000000000000000000e+00,1.300000000000000000e+01,1.400000000000000000e+01,3.000000000000000000e+00,5.000000000000000000e+00,-3.000000000000000000e+00,-1.500000000000000000e+01,3.000000000000000000e+00,4.667968750000000000e-01,2.741699218750000000e-01,-8.294677734375000000e-01,1.376342773437500000e-01
-5.000000000000000000e+00,-7.000000000000000000e+00,-3.000000000000000000e+00,0.000000000000000000e+00,0.000000000000000000e+00,4.000000000000000000e+00,0.000000000000000000e+00,1.000000000000000000e+00,4.667968750000000000e-01,2.741699218750000000e-01,-8.294677734375000000e-01,1.376342773437500000e-01
-5.000000000000000000e+00,-1.700000000000000000e+01,-2.000000000000000000e+01,-1.100000000000000000e+01,-9.000000000000000000e+00,-4.000000000000000000e+00,8.000000000000000000e+00,-3.000000000000000000e+00,4.671630859375000000e-01,2.735595703125000000e-01,-8.295288085937500000e-01,1.372070312500000000e-01
8.000000000000000000e+00,3.000000000000000000e+00,-1.000000000000000000e+00,-2.000000000000000000e+00,1.200000000000000000e+01,7.000000000000000000e+00,0.000000000000000000e+00,0.000000000000000000e+00,4.671630859375000000e-01,2.735595703125000000e-01,-8.295288085937500000e-01,1.372070312500000000e-01
-2.000000000000000000e+00,1.000000000000000000e+00,1.300000000000000000e+01,1.000000000000000000e+01,-2.000000000000000000e+00,0.000000000000000000e+00,6.000000000000000000e+00,-1.000000000000000000e+00,4.671630859375000000e-01,2.735595703125000000e-01,-8.295288085937500000e-01,1.372070312500000000e-01
1.000000000000000000e+00,5.000000000000000000e+00,-4.000000000000000000e+00,-6.000000000000000000e+00,-2.000000000000000000e+00,-4.000000000000000000e+00,-4.000000000000000000e+00,3.000000000000000000e+00,4.671630859375000000e-01,2.735595703125000000e-01,-8.295288085937500000e-01,1.372070312500000000e-01
7.000000000000000000e+00,1.000000000000000000e+01,-2.000000000000000000e+00,7.000000000000000000e+00,1.000000000000000000e+00,2.000000000000000000e+00,6.000000000000000000e+00,0.000000000000000000e+00,4.672851562500000000e-01,2.733154296875000000e-01,-8.295898437500000000e-01,1.369018554687500000e-01
-5.000000000000000000e+00,-8.000000000000000000e+00,6.000000000000000000e+00,-7.000000000000000000e+00,-8.000000000000000000e+00,5.000000000000000000e+00,8.000000000000000000e+00,-3.000000000000000000e+00,4.672851562500000000e-01,2.733154296875000000e-01,-8.295898437500000000e-01,1.369018554687500000e-01
-1.000000000000000000e+00,-9.000000000000000000e+00,1.000000000000000000e+00,-5.000000000000000000e+00,0.000000000000000000e+00,-5.000000000000000000e+00,-8.000000000000000000e+00,-2.000000000000000000e+00,4.672851562500000000e-01,2.733154296875000000e-01,-8.295898437500000000e-01,1.369018554687500000e-01
-2.000000000000000000e+00,5.000000000000000000e+00,1.600000000000000000e+01,7.000000000000000000e+00,6.000000000000000000e+00,5.000000000000000000e+00,-6.000000000000000000e+00,-4.000000000000000000e+00,4.672851562500000000e-01,2.733154296875000000e-01,-8.295898437500000000e-01,1.369018554687500000e-01
0.000000000000000000e+00,5.000000000000000000e+00,1.100000000000000000e+01,1.100000000000000000e+01,4.000000000000000000e+00,-4.000000000000000000e+00,7.000000000000000000e+00,-1.000000000000000000e+00,4.674072265625000000e-01,2.729492187500000000e-01,-8.297119140625000000e-01,1.365966796875000000e-01
-6.000000000000000000e+00,-6.000000000000000000e+00,-1.800000000000000000e+01,-1.200000000000000000e+01,-3.000000000000000000e+00,-2.000000000000000000e+00,-9.000000000000000000e+00,1.000000000000000000e+00,4.674072265625000000e-01,2.729492187500000000e-01,-8.297119140625000000e-01,1.365966796875000000e-01
-2.000000000000000000e+00,0.000000000000000000e+00,-2.300000000000000000e+01,0.000000000000000000e+00,2.000000000000000000e+00,2.000000000000000000e+00,0.000000000000000000e+00,0.000000000000000000e+00,4.674072265625000000e-01,2.729492187500000000e-01,-8.297119140625000000e-01,1.365966796875000000e-01
-1.000000000000000000e+00,-7.000000000000000000e+00,-4.000000000000000000e+00,-1.500000000000000000e+01,-1.200000000000000000e+01,-7.000000000000000000e+00,-2.000000000000000000e+00,0.000000000000000000e+00,4.674072265625000000e-01,2.729492187500000000e-01,-8.297119140625000000e-01,1.365966796875000000e-01
0.000000000000000000e+00,2.000000000000000000e+00,9.000000000000000000e+00,8.000000000000000000e+00,2.000000000000000000e+00,-1.000000000000000000e+00,5.000000000000000000e+00,0.000000000000000000e+00,4.675903320312500000e-01,2.723999023437500000e-01,-8.298339843750000000e-01,1.361083984375000000e-01
1.000000000000000000e+00,3.000000000000000000e+00,-5.000000000000000000e+00,3.000000000000000000e+00,-1.000000000000000000e+00,-4.000000000000000000e+00,-1.200000000000000000e+01,-2.000000000000000000e+00,4.675903320312500000e-01,2.723999023437500000e-01,-8.298339843750000000e-01,1.361083984375000000e-01
2.000000000000000000e+00,4.000000000000000000e+00,5.000000000000000000e+00,3.000000000000000000e+00,-2.000000000000000000e+00,0.000000000000000000e+00,2.000000000000000000e+00,-1.000000000000000000e+00,4.675903320312500000e-01,2.723999023437500000e-01,-8.298339843750000000e-01,1.361083984375000000e-01
-3.000000000000000000e+00,-4.000000000000000000e+00,2.100000000000000000e+01,-1.000000000000000000e+01,-6.000000000000000000e+00,-8.000000000000000000e+00,-3.800000000000000000e+01,-3.000000000000000000e+00,4.675903320312500000e-01,2.723999023437500000e-01,-8.298339843750000000e-01,1.361083984375000000e-01
-6.000000000000000000e+00,-5.000000000000000000e+00,-9.000000000000000000e+00,5.000000000000000000e+00,-2.000000000000000000e+00,3.000000000000000000e+00,6.000000000000000000e+00,0.000000000000000000e+00,4.678344726562500000e-01,2.714233398437500000e-01,-8.300781250000000000e-01,1.356811523437500000e-01
-7.000000000000000000e+00,-4.000000000000000000e+00,-3.500000000000000000e+01,-1.100000000000000000e+01,2.000000000000000000e+00,-3.000000000000000000e+00,-4.000000000000000000e+00,0.000000000000000000e+00,4.678344726562500000e-01,2.714233398437500000e-01,-8.300781250000000000e-01,1.356811523437500000e-01
0.000000000000000000e+00,-1.000000000000000000e+01,-4.000000000000000000e+00,9.000000000000000000e+00,4.000000000000000000e+00,8.000000000000000000e+00,1.200000000000000000e+01,1.000000000000000000e+00,4.678344726562500000e-01,2.714233398437500000e-01,-8.300781250000000000e-01,1.356811523437500000e-01
-2.000000000000000000e+00,6.000000000000000000e+00,1.300000000000000000e+01,4.000000000000000000e+00,7.000000000000000000e+00,4.000000000000000000e+00,2.000000000000000000e+00,-1.000000000000000000e+00,4.678344726562500000e-01,2.714233398437500000e-01,-8.300781250000000000e-01,1.356811523437500000e-01
1.100000000000000000e+01,0.000000000000000000e+00,-4.000000000000000000e+00,-1.000000000000000000e+00,0.000000000000000000e+00,-5.000000000000000000e+00,-1.000000000000000000e+01,-1.000000000000000000e+00,4.682617187500000000e-01,2.705688476562500000e-01,-8.301391601562500000e-01,1.354980468750000000e-01
8.000000000000000000e+00,4.000000000000000000e+00,2.000000000000000000e+00,-2.000000000000000000e+00,-1.100000000000000000e+01,-7.000000000000000000e+00,-8.000000000000000000e+00,-6.000000000000000000e+00,4.682617187500000000e-01,2.705688476562500000e-01,-8.301391601562500000e-01,1.354980468750000000e-01
-2.400000000000000000e+01,-3.000000000000000000e+00,2.000000000000000000e+01,1.000000000000000000e+00,4.000000000000000000e+00,2.000000000000000000e+00,9.000000000000000000e+00,3.000000000000000000e+00,4.682617187500000000e-01,2.705688476562500000e-01,-8.301391601562500000e-01,1.354980468750000000e-01
-5.000000000000000000e+00,-6.000000000000000000e+00,-1.000000000000000000e+01,-2.000000000000000000e+00,-1.000000000000000000e+00,-5.000000000000000000e+00,5.000000000000000000e+00,-5.000000000000000000e+00,4.682617187500000000e-01,2.705688476562500000e-01,-8.301391601562500000e-01,1.354980468750000000e-01
3.000000000000000000e+00,2.000000000000000000e+00,-3.000000000000000000e+00,-5.000000000000000000e+00,2.000000000000000000e+00,2.000000000000000000e+00,-2.000000000000000000e+00,0.000000000000000000e+00,4.683227539062500000e-01,2.705688476562500000e-01,-8.301391601562500000e-01,1.354980468750000000e-01
5.000000000000000000e+00,4.000000000000000000e+00,8.000000000000000000e+00,8.000000000000000000e+00,2.000000000000000000e+00,7.000000000000000000e+00,1.800000000000000000e+01,-1.000000000000000000e+00,4.683227539062500000e-01,2.705688476562500000e-01,-8.301391601562500000e-01,1.354980468750000000e-01
5.000000000000000000e+00,1.000000000000000000e+00,-6.000000000000000000e+00,-4.000000000000000000e+00,0.000000000000000000e+00,1.000000000000000000e+00,5.000000000000000000e+00,-2.000000000000000000e+00,4.683227539062500000e-01,2.705688476562500000e-01,-8.301391601562500000e-01,1.354980468750000000e-01
1.000000000000000000e+00,5.000000000000000000e+00,5.000000000000000000e+00,2.000000000000000000e+00,-4.000000000000000000e+00,-1.000000000000000000e+00,4.000000000000000000e+00,-1.000000000000000000e+00,4.683227539062500000e-01,2.705688476562500000e-01,-8.301391601562500000e-01,1.354980468750000000e-01
-3.000000000000000000e+00,1.000000000000000000e+00,1.000000000000000000e+00,-7.000000000000000000e+00,-3.000000000000000000e+00,-7.000000000000000000e+00,-8.000000000000000000e+00,-1.000000000000000000e+00,4.683837890625000000e-01,2.706298828125000000e-01,-8.300781250000000000e-01,1.354980468750000000e-01
0.000000000000000000e+00,-9.000000000000000000e+00,-8.000000000000000000e+00,-4.000000000000000000e+00,-2.000000000000000000e+00,-2.000000000000000000e+00,9.000000000000000000e+00,2.000000000000000000e+00,4.683837890625000000e-01,2.706298828125000000e-01,-8.300781250000000000e-01,1.354980468750000000e-01
-2.000000000000000000e+00,1.000000000000000000e+01,5.000000000000000000e+00,1.500000000000000000e+01,-1.000000000000000000e+00,-1.000000000000000000e+00,-7.000000000000000000e+00,-1.000000000000000000e+00,4.683837890625000000e-01,2.706298828125000000e-01,-8.300781250000000000e-01,1.354980468750000000e-01
-1.000000000000000000e+01,-1.300000000000000000e+01,-4.000000000000000000e+00,-2.200000000000000000e+01,-7.000000000000000000e+00,0.000000000000000000e+00,9.000000000000000000e+00,-2.000000000000000000e+00,4.683837890625000000e-01,2.706298828125000000e-01,-8.300781250000000000e-01,1.354980468750000000e-01
-4.000000000000000000e+00,3.000000000000000000e+00,-6.000000000000000000e+00,-1.000000000000000000e+01,-4.000000000000000000e+00,-6.000000000000000000e+00,-5.000000000000000000e+00,-1.000000000000000000e+00,4.687500000000000000e-01,2.708740234375000000e-01,-8.298950195312500000e-01,1.348876953125000000e-01
-3.000000000000000000e+00,4.000000000000000000e+00,-2.400000000000000000e+01,1.200000000000000000e+01,3.000000000000000000e+00,6.000000000000000000e+00,0.000000000000000000e+00,2.000000000000000000e+00,4.687500000000000000e-01,2.708740234375000000e-01,-8.298950195312500000e-01,1.348876953125000000e-01
3.000000000000000000e+00,2.000000000000000000e+00,1.100000000000000000e+01,0.000000000000000000e+00,-2.000000000000000000e+00,-4.000000000000000000e+00,3.000000000000000000e+00,-3.000000000000000000e+00,4.687500000000000000e-01,2.708740234375000000e-01,-8.298950195312500000e-01,1.348876953125000000e-01
4.000000000000000000e+00,-4.000000000000000000e+00,-8.000000000000000000e+00,5.000000000000000000e+00,-3.000000000000000000e+00,-1.000000000000000000e+00,-2.000000000000000000e+00,0.000000000000000000e+00,4.687500000000000000e-01,2.708740234375000000e-01,-8.298950195312500000e-01,1.348876953125000000e-01
5.000000000000000000e+00,8.000000000000000000e+00,1.800000000000000000e+01,-3.000000000000000000e+00,1.000000000000000000e+00,0.000000000000000000e+00,4.000000000000000000e+00,1.000000000000000000e+00,4.694824218750000000e-01,2.709960937500000000e-01,-8.295288085937500000e-01,1.341552734375000000e-01
-2.000000000000000000e+00,-2.000000000000000000e+00,-4.000000000000000000e+00,-1.000000000000000000e+01,-7.000000000000000000e+00,-5.000000000000000000e+00,1.000000000000000000e+00,-2.000000000000000000e+00,4.694824218750000000e-01,2.709960937500000000e-01,-8.295288085937500000e-01,1.341552734375000000e-01
2.000000000000000000e+00,-4.000000000000000000e+00,-8.000000000000000000e+00,-2.000000000000000000e+00,6.000000000000000000e+00,-2.000000000000000000e+00,-1.700000000000000000e+01,-1.000000000000000000e+00,4.694824218750000000e-01,2.709960937500000000e-01,-8.295288085937500000e-01,1.341552734375000000e-01
-2.000000000000000000e+00,4.000000000000000000e+00,-1.600000000000000000e+01,4.000000000000000000e+00,7.000000000000000000e+00,3.000000000000000000e+00,-1.000000000000000000e+00,1.000000000000000000e+00,4.694824218750000000e-01,2.709960937500000000e-01,-8.295288085937500000e-01,1.341552734375000000e-01
-3.000000000000000000e+00,-2.000000000000000000e+00,3.000000000000000000e+00,-1.000000000000000000e+00,-4.000000000000000000e+00,-3.000000000000000000e+00,-1.000000000000000000e+00,0.000000000000000000e+00,4.700317382812500000e-01,2.713012695312500000e-01,-8.292236328125000000e-01,1.336059570312500000e-01
3.000000000000000000e+00,-8.000000000000000000e+00,1.300000000000000000e+01,2.000000000000000000e+00,1.000000000000000000e+00,4.000000000000000000e+00,3.000000000000000000e+00,0.000000000000000000e+00,4.700317382812500000e-01,2.713012695312500000e-01,-8.292236328125000000e-01,1.336059570312500000e-01
0.000000000000000000e+00,-1.000000000000000000e+00,-1.100000000000000000e+01,-5.000000000000000000e+00,-3.000000000000000000e+00,-4.000000000000000000e+00,-1.500000000000000000e+01,0.000000000000000000e+00,4.700317382812500000e-01,2.713012695312500000e-01,-8.292236328125000000e-01,1.336059570312500000e-01
0.000000000000000000e+00,-7.000000000000000000e+00,9.000000000000000000e+00,6.000000000000000000e+00,0.000000000000000000e+00,-1.000000000000000000e+00,-9.000000000000000000e+00,0.000000000000000000e+00,4.700317382812500000e-01,2.713012695312500000e-01,-8.292236328125000000e-01,1.336059570312500000e-01
3.000000000000000000e+00,-1.000000000000000000e+00,-2.100000000000000000e+01,-4.000000000000000000e+00,-3.000000000000000000e+00,0.000000000000000000e+00,4.000000000000000000e+00,0.000000000000000000e+00,4.704589843750000000e-01,2.719116210937500000e-01,-8.287963867187500000e-01,1.334838867187500000e-01
-3.000000000000000000e+00,2.000000000000000000e+00,3.000000000000000000e+00,-1.100000000000000000e+01,0.000000000000000000e+00,-8.000000000000000000e+00,-2.100000000000000000e+01,-2.000000000000000000e+00,4.704589843750000000e-01,2.719116210937500000e-01,-8.287963867187500000e-01,1.334838867187500000e-01
-1.000000000000000000e+00,-6.000000000000000000e+00,-1.000000000000000000e+00,-3.000000000000000000e+00,-3.000000000000000000e+00,5.000000000000000000e+00,2.100000000000000000e+01,-5.000000000000000000e+00,4.704589843750000000e-01,2.719116210937500000e-01,-8.287963867187500000e-01,1.334838867187500000e-01
-1.000000000000000000e+00,1.000000000000000000e+00,8.000000000000000000e+00,-2.000000000000000000e+00,-6.000000000000000000e+00,-7.000000000000000000e+00,2.000000000000000000e+00,-4.000000000000000000e+00,4.704589843750000000e-01,2.719116210937500000e-01,-8.287963867187500000e-01,1.334838867187500000e-01
2.000000000000000000e+00,8.000000000000000000e+00,5.000000000000000000e+00,1.400000000000000000e+01,1.300000000000000000e+01,7.000000000000000000e+00,1.000000000000000000e+00,-1.000000000000000000e+00,4.709472656250000000e-01,2.726440429687500000e-01,-8.282470703125000000e-01,1.337890625000000000e-01
0.000000000000000000e+00,-9.000000000000000000e+00,-2.300000000000000000e+01,-1.100000000000000000e+01,-1.000000000000000000e+00,3.000000000000000000e+00,2.300000000000000000e+01,-2.000000000000000000e+00,4.709472656250000000e-01,2.726440429687500000e-01,-8.282470703125000000e-01,1.337890625000000000e-01
-1.000000000000000000e+01,-3.000000000000000000e+00,-2.000000000000000000e+00,4.000000000000000000e+00,-1.000000000000000000e+00,2.000000000000000000e+00,0.000000000000000000e+00,1.000000000000000000e+00,4.709472656250000000e-01,2.726440429687500000e-01,-8.282470703125000000e-01,1.337890625000000000e-01
-6.000000000000000000e+00,-1.000000000000000000e+00,-1.200000000000000000e+01,-1.300000000000000000e+01,-4.000000000000000000e+00,8.000000000000000000e+00,4.000000000000000000e+00,-1.000000000000000000e+00,4.709472656250000000e-01,2.726440429687500000e-01,-8.282470703125000000e-01,1.337890625000000000e-01
1.000000000000000000e+00,-9.000000000000000000e+00,-3.000000000000000000e+00,-7.000000000000000000e+00,-1.200000000000000000e+01,-6.000000000000000000e+00,-1.000000000000000000e+00,-4.000000000000000000e+00,4.714965820312500000e-01,2.734375000000000000e-01,-8.276367187500000000e-01,1.338500976562500000e-01
-2.000000000000000000e+00,7.000000000000000000e+00,8.000000000000000000e+00,-2.000000000000000000e+00,-5.000000000000000000e+00,-4.000000000000000000e+00,-1.300000000000000000e+01,-1.000000000000000000e+00,4.714965820312500000e-01,2.734375000000000000e-01,-8.276367187500000000e-01,1.338500976562500000e-01
3.000000000000000000e+00,0.000000000000000000e+00,1.200000000000000000e+01,-4.000000000000000000e+00,8.000000000000000000e+00,0.000000000000000000e+00,-2.000000000000000000e+00,0.000000000000000000e+00,4.714965820312500000e-01,2.734375000000000000e-01,-8.276367187500000000e-01,1.338500976562500000e-01
5.000000000000000000e+00,2.000000000000000000e+00,-2.000000000000000000e+01,6.000000000000000000e+00,0.000000000000000000e+00,-3.000000000000000000e+00,0.000000000000000000e+00,3.000000000000000000e+00,4.714965820312500000e-01,2.734375000000000000e-01,-8.276367187500000000e-01,1.338500976562500000e-01
-1.000000000000000000e+01,-1.000000000000000000e+01,1.300000000000000000e+01,2.000000000000000000e+00,4.000000000000000000e+00,0.000000000000000000e+00,0.000000000000000000e+00,-3.000000000000000000e+00,4.722290039062500000e-01,2.738647460937500000e-01,-8.271484375000000000e-01,1.336669921875000000e-01
0.000000000000000000e+00,8.000000000000000000e+00,2.600000000000000000e+01,4.000000000000000000e+00,-6.000000000000000000e+00,-3.000000000000000000e+00,-6.000000000000000000e+00,2.000000000000000000e+00,4.722290039062500000e-01,2.738647460937500000e-01,-8.271484375000000000e-01,1.336669921875000000e-01
2.000000000000000000e+00,-4.000000000000000000e+00,-1.200000000000000000e+01,-1.000000000000000000e+00,2.000000000000000000e+00,-1.000000000000000000e+00,0.000000000000000000e+00,0.000000000000000000e+00,4.722290039062500000e-01,2.738647460937500000e-01,-8.271484375000000000e-01,1.336669921875000000e-01
-1.000000000000000000e+00,-1.000000000000000000e+00,1.900000000000000000e+01,6.000000000000000000e+00,-5.000000000000000000e+00,-4.000000000000000000e+00,-1.000000000000000000e+00,-4.000000000000000000e+00,4.722290039062500000e-01,2.738647460937500000e-01,-8.271484375000000000e-01,1.336669921875000000e-01
5.000000000000000000e+00,2.000000000000000000e+00,-5.000000000000000000e+00,-3.000000000000000000e+00,1.000000000000000000e+00,-1.000000000000000000e+00,5.000000000000000000e+00,3.000000000000000000e+00,4.726562500000000000e-01,2.739257812500000000e-01,-8.268432617187500000e-01,1.336669921875000000e-01
-7.000000000000000000e+00,-5.000000000000000000e+00,6.000000000000000000e+00,3.000000000000000000e+00,0.000000000000000000e+00,1.000000000000000000e+00,3.100000000000000000e+01,-3.000000000000000000e+00,4.726562500000000000e-01,2.739257812500000000e-01,-8.268432617187500000e-01,1.336669921875000000e-01
1.600000000000000000e+01,4.000000000000000000e+00,-4.000000000000000000e+00,0.000000000000000000e+00,1.000000000000000000e+00,-1.000000000000000000e+00,1.000000000000000000e+00,-1.000000000000000000e+00,4.726562500000000000e-01,2.739257812500000000e-01,-8.268432617187500000e-01,1.336669921875000000e-01
-3.000000000000000000e+00,-5.000000000000000000e+00,-1.000000000000000000e+00,-1.000000000000000000e+00,-1.000000000000000000e+00,-3.000000000000000000e+00,1.000000000000000000e+00,-6.000000000000000000e+00,4.726562500000000000e-01,2.739257812500000000e-01,-8.268432617187500000e-01,1.336669921875000000e-01
-2.700000000000000000e+01,-5.000000000000000000e+00,-2.700000000000000000e+01,-5.000000000000000000e+00,-5.000000000000000000e+00,5.000000000000000000e+00,8.000000000000000000e+00,-5.000000000000000000e+00,4.727783203125000000e-01,2.742919921875000000e-01,-8.265991210937500000e-01,1.341552734375000000e-01
-1.300000000000000000e+01,-7.000000000000000000e+00,-1.000000000000000000e+00,5.000000000000000000e+00,5.000000000000000000e+00,-4.000000000000000000e+00,-1.300000000000000000e+01,-1.000000000000000000e+00,4.727783203125000000e-01,2.742919921875000000e-01,-8.265991210937500000e-01,1.341552734375000000e-01
2.000000000000000000e+00,-5.000000000000000000e+00,-8.000000000000000000e+00,-3.000000000000000000e+00,-1.500000000000000000e+01,-1.100000000000000000e+01,-1.400000000000000000e+01,-5.000000000000000000e+00,4.727783203125000000e-01,2.742919921875000000e-01,-8.265991210937500000e-01,1.341552734375000000e-01
1.100000000000000000e+01,3.000000000000000000e+00,0.000000000000000000e+00,-1.000000000000000000e+00,9.000000000000000000e+00,7.000000000000000000e+00,1.900000000000000000e+01,2.000000000000000000e+00,4.727783203125000000e-01,2.742919921875000000e-01,-8.265991210937500000e-01,1.341552734375000000e-01
8.000000000000000000e+00,6.000000000000000000e+00,8.000000000000000000e+00,5.000000000000000000e+00,-1.000000000000000000e+00,4.000000000000000000e+00,-5.000000000000000000e+00,2.000000000000000000e+00,4.726562500000000000e-01,2.749633789062500000e-01,-8.262939453125000000e-01,1.350708007812500000e-01
-2.000000000000000000e+00,0.000000000000000000e+00,-1.600000000000000000e+01,-7.000000000000000000e+00,2.000000000000000000e+00,-3.000000000000000000e+00,-1.200000000000000000e+01,1.000000000000000000e+00,4.726562500000000000e-01,2.749633789062500000e-01,-8.262939453125000000e-01,1.350708007812500000e-01
-6.000000000000000000e+00,-1.000000000000000000e+01,4.000000000000000000e+00,-1.000000000000000000e+01,-6.000000000000000000e+00,-4.000000000000000000e+00,-7.000000000000000000e+00,0.000000000000000000e+00,4.726562500000000000e-01,2.749633789062500000e-01,-8.262939453125000000e-01,1.350708007812500000e-01
-1.000000000000000000e+00,3.000000000000000000e+00,1.600000000000000000e+01,8.000000000000000000e+00,-1.000000000000000000e+00,-3.000000000000000000e+00,-9.000000000000000000e+00,1.000000000000000000e+00,4.726562500000000000e-01,2.749633789062500000e-01,-8.262939453125000000e-01,1.350708007812500000e-01
2.000000000000000000e+00,6.000000000000000000e+00,-2.000000000000000000e+00,0.000000000000000000e+00,0.000000000000000000e+00,-3.000000000000000000e+00,5.000000000000000000e+00,1.000000000000000000e+00,4.726562500000000000e-01,2.756958007812500000e-01,-8.259277343750000000e-01,1.356811523437500000e-01
-3.000000000000000000e+00,-1.300000000000000000e+01,1.000000000000000000e+00,-2.200000000000000000e+01,-6.000000000000000000e+00,-4.000000000000000000e+00,-5.000000000000000000e+00,-2.000000000000000000e+00,4.726562500000000000e-01,2.756958007812500000e-01,-8.259277343750000000e-01,1.356811523437500000e-01
-1.000000000000000000e+00,2.000000000000000000e+00,-4.000000000000000000e+00,4.000000000000000000e+00,2.000000000000000000e+00,4.000000000000000000e+00,1.100000000000000000e+01,0.000000000000000000e+00,4.726562500000000000e-01,2.756958007812500000e-01,-8.259277343750000000e-01,1.356811523437500000e-01
-1.000000000000000000e+00,-2.000000000000000000e+00,-3.000000000000000000e+00,0.000000000000000000e+00,-7.000000000000000000e+00,-5.000000000000000000e+00,-1.900000000000000000e+01,-1.000000000000000000e+00,4.726562500000000000e-01,2.756958007812500000e-01,-8.259277343750000000e-01,1.356811523437500000e-01
3.000000000000000000e+00,5.000000000000000000e+00,2.000000000000000000e+00,1.000000000000000000e+01,1.000000000000000000e+01,2.000000000000000000e+00,-2.000000000000000000e+00,-2.000000000000000000e+00,4.728393554687500000e-01,2.763671875000000000e-01,-8.255615234375000000e-01,1.359863281250000000e-01
1.000000000000000000e+00,-3.000000000000000000e+00,0.000000000000000000e+00,1.200000000000000000e+01,7.000000000000000000e+00,-2.000000000000000000e+00,-1.300000000000000000e+01,-7.000000000000000000e+00,4.728393554687500000e-01,2.763671875000000000e-01,-8.255615234375000000e-01,1.359863281250000000e-01
-2.000000000000000000e+00,8.000000000000000000e+00,4.000000000000000000e+00,-1.000000000000000000e+01,-8.000000000000000000e+00,-6.000000000000000000e+00,3.000000000000000000e+00,5.000000000000000000e+00,4.728393554687500000e-01,2.763671875000000000e-01,-8.255615234375000000e-01,1.359863281250000000e-01
-1.000000000000000000e+00,-2.100000000000000000e+01,-1.600000000000000000e+01,-1.000000000000000000e+00,-1.000000000000000000e+00,2.000000000000000000e+00,3.000000000000000000e+00,-1.000000000000000000e+00,4.728393554687500000e-01,2.763671875000000000e-01,-8.255615234375000000e-01,1.359863281250000000e-01
-1.000000000000000000e+01,-1.400000000000000000e+01,-2.000000000000000000e+00,-5.000000000000000000e+00,2.000000000000000000e+00,0.000000000000000000e+00,-1.600000000000000000e+01,-4.000000000000000000e+00,4.730834960937500000e-01,2.760009765625000000e-01,-8.255004882812500000e-01,1.361694335937500000e-01
0.000000000000000000e+00,-3.000000000000000000e+00,-1.000000000000000000e+01,-3.000000000000000000e+00,-9.000000000000000000e+00,-2.000000000000000000e+00,1.000000000000000000e+01,0.000000000000000000e+00,4.730834960937500000e-01,2.760009765625000000e-01,-8.255004882812500000e-01,1.361694335937500000e-01
-4.000000000000000000e+00,0.000000000000000000e+00,5.000000000000000000e+00,-1.000000000000000000e+00,-6.000000000000000000e+00,-1.000000000000000000e+00,1.000000000000000000e+01,-2.000000000000000000e+00,4.730834960937500000e-01,2.760009765625000000e-01,-8.255004882812500000e-01,1.361694335937500000e-01
2.000000000000000000e+00,1.300000000000000000e+01,4.000000000000000000e+00,4.000000000000000000e+00,1.400000000000000000e+01,-4.000000000000000000e+00,-1.000000000000000000e+01,1.000000000000000000e+00,4.730834960937500000e-01,2.760009765625000000e-01,-8.255004882812500000e-01,1.361694335937500000e-01
-2.000000000000000000e+00,1.000000000000000000e+00,-6.000000000000000000e+00,-3.000000000000000000e+00,-1.100000000000000000e+01,7.000000000000000000e+00,1.600000000000000000e+01,1.000000000000000000e+00,4.732055664062500000e-01,2.754516601562500000e-01,-8.255004882812500000e-01,1.366577148437500000e-01
2.000000000000000000e+00,2.000000000000000000e+00,2.800000000000000000e+01,5.000000000000000000e+00,6.000000000000000000e+00,-4.000000000000000000e+00,-1.000000000000000000e+01,-1.000000000000000000e+00,4.732055664062500000e-01,2.754516601562500000e-01,-8.255004882812500000e-01,1.366577148437500000e-01
0.000000000000000000e+00,-2.000000000000000000e+00,8.000000000000000000e+00,-2.000000000000000000e+00,-3.000000000000000000e+00,2.000000000000000000e+00,1.000000000000000000e+00,-1.000000000000000000e+00,4.732055664062500000e-01,2.754516601562500000e-01,-8.255004882812500000e-01,1.366577148437500000e-01
-2.300000000000000000e+01,-9.000000000000000000e+00,-9.000000000000000000e+00,-1.000000000000000000e+01,-9.000000000000000000e+00,-4.000000000000000000e+00,1.200000000000000000e+01,-2.000000000000000000e+00,4.732055664062500000e-01,2.754516601562500000e-01,-8.255004882812500000e-01,1.366577148437500000e-01
7.000000000000000000e+00,-8.000000000000000000e+00,-1.100000000000000000e+01,-5.000000000000000000e+00,-1.000000000000000000e+00,-4.000000000000000000e+00,0.000000000000000000e+00,-1.000000000000000000e+00,4.729614257812500000e-01,2.758178710937500000e-01,-8.253784179687500000e-01,1.375732421875000000e-01
6.000000000000000000e+00,1.500000000000000000e+01,1.100000000000000000e+01,9.000000000000000000e+00,1.000000000000000000e+00,-3.000000000000000000e+00,-9.000000000000000000e+00,1.000000000000000000e+00,4.729614257812500000e-01,2.758178710937500000e-01,-8.253784179687500000e-01,1.375732421875000000e-01
4.000000000000000000e+00,6.000000000000000000e+00,-2.100000000000000000e+01,1.800000000000000000e+01,4.000000000000000000e+00,-3.000000000000000000e+00,-1.100000000000000000e+01,-8.000000000000000000e+00,4.729614257812500000e-01,2.758178710937500000e-01,-8.253784179687500000e-01,1.375732421875000000e-01
6.000000000000000000e+00,1.000000000000000000e+00,4.000000000000000000e+00,-2.500000000000000000e+01,7.000000000000000000e+00,5.000000000000000000e+00,1.200000000000000000e+01,5.000000000000000000e+00,4.729614257812500000e-01,2.758178710937500000e-01,-8.253784179687500000e-01,1.375732421875000000e-01
-1.000000000000000000e+01,-1.400000000000000000e+01,6.000000000000000000e+00,-1.700000000000000000e+01,-1.400000000000000000e+01,-1.000000000000000000e+01,-1.000000000000000000e+01,-3.000000000000000000e+00,4.727783203125000000e-01,2.766113281250000000e-01,-8.251342773437500000e-01,1.382446289062500000e-01
-2.000000000000000000e+00,1.000000000000000000e+00,-1.000000000000000000e+01,8.000000000000000000e+00,1.000000000000000000e+00,3.000000000000000000e+00,2.000000000000000000e+00,2.000000000000000000e+00,4.727783203125000000e-01,2.766113281250000000e-01,-8.251342773437500000e-01,1.382446289062500000e-01
1.000000000000000000e+00,-8.000000000000000000e+00,-1.200000000000000000e+01,-4.000000000000000000e+00,-1.000000000000000000e+00,-3.000000000000000000e+00,-8.000000000000000000e+00,-1.000000000000000000e+00,4.727783203125000000e-01,2.766113281250000000e-01,-8.251342773437500000e-01,1.382446289062500000e-01
1.000000000000000000e+00,6.000000000000000000e+00,-4.000000000000000000e+00,1.700000000000000000e+01,5.000000000000000000e+00,1.000000000000000000e+00,-7.000000000000000000e+00,-4.000000000000000000e+00,4.727783203125000000e-01,2.766113281250000000e-01,-8.251342773437500000e-01,1.382446289062500000e-01
-1.000000000000000000e+00,2.000000000000000000e+00,7.000000000000000000e+00,-1.000000000000000000e+00,2.000000000000000000e+00,0.000000000000000000e+00,2.000000000000000000e+00,0.000000000000000000e+00,4.727172851562500000e-01,2.767333984375000000e-01,-8.250732421875000000e-01,1.384887695312500000e-01
5.000000000000000000e+00,4.000000000000000000e+00,-3.000000000000000000e+00,-6.000000000000000000e+00,-1.000000000000000000e+00,1.000000000000000000e+00,-2.000000000000000000e+00,0.000000000000000000e+00,4.727172851562500000e-01,2.767333984375000000e-01,-8.250732421875000000e-01,1.384887695312500000e-01
-1.000000000000000000e+00,-2.000000000000000000e+00,3.000000000000000000e+00,-1.000000000000000000e+00,-6.000000000000000000e+00,-3.000000000000000000e+00,-1.000000000000000000e+00,1.000000000000000000e+00,4.727172851562500000e-01,2.767333984375000000e-01,-8.250732421875000000e-01,1.384887695312500000e-01
2.000000000000000000e+00,8.000000000000000000e+00,2.000000000000000000e+00,5.000000000000000000e+00,1.000000000000000000e+00,3.000000000000000000e+00,2.000000000000000000e+00,-1.000000000000000000e+00,4.727172851562500000e-01,2.767333984375000000e-01,-8.250732421875000000e-01,1.384887695312500000e-01
0.000000000000000000e+00,5.000000000000000000e+00,-3.000000000000000000e+01,5.000000000000000000e+00,1.300000000000000000e+01,3.000000000000000000e+00,4.000000000000000000e+00,0.000000000000000000e+00,4.729003906250000000e-01,2.759399414062500000e-01,-8.252563476562500000e-01,1.385498046875000000e-01
-1.500000000000000000e+01,-2.700000000000000000e+01,-2.800000000000000000e+01,-1.900000000000000000e+01,-7.000000000000000000e+00,0.000000000000000000e+00,3.100000000000000000e+01,-4.000000000000000000e+00,4.729003906250000000e-01,2.759399414062500000e-01,-8.252563476562500000e-01,1.385498046875000000e-01
-7.000000000000000000e+00,-4.000000000000000000e+00,-8.000000000000000000e+00,-6.000000000000000000e+00,-5.000000000000000000e+00,-2.000000000000000000e+00,-5.000000000000000000e+00,-3.000000000000000000e+00,4.729003906250000000e-01,2.759399414062500000e-01,-8.252563476562500000e-01,1.385498046875000000e-01
1.000000000000000000e+00,-1.000000000000000000e+00,3.000000000000000000e+00,0.000000000000000000e+00,-1.000000000000000000e+00,3.000000000000000000e+00,1.000000000000000000e+01,1.000000000000000000e+00,4.729003906250000000e-01,2.759399414062500000e-01,-8.252563476562500000e-01,1.385498046875000000e-01
6.000000000000000000e+00,6.000000000000000000e+00,1.600000000000000000e+01,6.000000000000000000e+00,-5.000000000000000000e+00,-4.000000000000000000e+00,-1.100000000000000000e+01,-1.000000000000000000e+00,4.731445312500000000e-01,2.752075195312500000e-01,-8.252563476562500000e-01,1.389160156250000000e-01
3.000000000000000000e+00,6.000000000000000000e+00,-7.000000000000000000e+00,1.000000000000000000e+00,-1.000000000000000000e+00,2.000000000000000000e+00,-1.600000000000000000e+01,3.000000000000000000e+00,4.731445312500000000e-01,2.752075195312500000e-01,-8.252563476562500000e-01,1.389160156250000000e-01
-5.000000000000000000e+00,-2.000000000000000000e+00,-6.000000000000000000e+00,-9.000000000000000000e+00,-2.000000000000000000e+00,-4.000000000000000000e+00,-4.000000000000000000e+00,1.000000000000000000e+00,4.731445312500000000e-01,2.752075195312500000e-01,-8.252563476562500000e-01,1.389160156250000000e-01
6.000000000000000000e+00,6.000000000000000000e+00,-6.000000000000000000e+00,5.000000000000000000e+00,5.000000000000000000e+00,2.000000000000000000e+00,3.000000000000000000e+00,0.000000000000000000e+00,4.731445312500000000e-01,2.752075195312500000e-01,-8.252563476562500000e-01,1.389160156250000000e-01
-1.000000000000000000e+00,-1.200000000000000000e+01,-1.200000000000000000e+01,-6.000000000000000000e+00,-1.000000000000000000e+00,-3.000000000000000000e+00,8.000000000000000000e+00,-3.000000000000000000e+00,4.730834960937500000e-01,2.753906250000000000e-01,-8.251342773437500000e-01,1.395874023437500000e-01
-1.300000000000000000e+01,-5.000000000000000000e+00,3.000000000000000000e+01,-3.000000000000000000e+00,-3.000000000000000000e+00,-3.000000000000000000e+00,-1.400000000000000000e+01,-1.300000000000000000e+01,4.730834960937500000e-01,2.753906250000000000e-01,-8.251342773437500000e-01,1.395874023437500000e-01
8.000000000000000000e+00,-8.000000000000000000e+00,2.000000000000000000e+00,2.000000000000000000e+00,-3.000000000000000000e+00,0.000000000000000000e+00,-2.000000000000000000e+00,3.000000000000000000e+00,4.730834960937500000e-01,2.753906250000000000e-01,-8.251342773437500000e-01,1.395874023437500000e-01
-1.000000000000000000e+00,2.000000000000000000e+00,-7.000000000000000000e+00,-7.000000000000000000e+00,0.000000000000000000e+00,-3.000000000000000000e+00,-7.000000000000000000e+00,-2.000000000000000000e+00,4.730834960937500000e-01,2.753906250000000000e-01,-8.251342773437500000e-01,1.395874023437500000e-01
6.000000000000000000e+00,8.000000000000000000e+00,2.000000000000000000e+01,0.000000000000000000e+00,-5.000000000000000000e+00,-5.000000000000000000e+00,-4.000000000000000000e+00,0.000000000000000000e+00,4.728393554687500000e-01,2.758789062500000000e-01,-8.250732421875000000e-01,1.400146484375000000e-01
4.000000000000000000e+00,4.000000000000000000e+00,-9.000000000000000000e+00,-4.000000000000000000e+00,1.000000000000000000e+00,0.000000000000000000e+00,0.000000000000000000e+00,1.000000000000000000e+00,4.728393554687500000e-01,2.758789062500000000e-01,-8.250732421875000000e-01,1.400146484375000000e-01
-3.000000000000000000e+00,-1.200000000000000000e+01,-1.800000000000000000e+01,-1.500000000000000000e+01,-1.400000000000000000e+01,-3.000000000000000000e+00,-4.000000000000000000e+00,-5.000000000000000000e+00,4.725341796875000000e-01,2.760009765625000000e-01,-8.251342773437500000e-01,1.404418945312500000e-01
-2.000000000000000000e+00,0.000000000000000000e+00,2.000000000000000000e+00,1.400000000000000000e+01,1.200000000000000000e+01,2.000000000000000000e+00,-4.000000000000000000e+00,0.000000000000000000e+00,4.725341796875000000e-01,2.760009765625000000e-01,-8.251342773437500000e-01,1.404418945312500000e-01
-8.000000000000000000e+00,-1.200000000000000000e+01,-2.200000000000000000e+01,-1.300000000000000000e+01,-2.000000000000000000e+00,-1.000000000000000000e+00,-1.000000000000000000e+00,-4.000000000000000000e+00,4.725341796875000000e-01,2.760009765625000000e-01,-8.251342773437500000e-01,1.404418945312500000e-01
5.000000000000000000e+00,4.000000000000000000e+00,1.000000000000000000e+01,3.000000000000000000e+00,0.000000000000000000e+00,0.000000000000000000e+00,-1.000000000000000000e+00,3.000000000000000000e+00,4.725341796875000000e-01,2.760009765625000000e-01,-8.251342773437500000e-01,1.404418945312500000e-01
-1.000000000000000000e+00,7.000000000000000000e+00,4.000000000000000000e+00,3.000000000000000000e+00,2.000000000000000000e+00,-1.000000000000000000e+00,8.000000000000000000e+00,-2.000000000000000000e+00,4.724121093750000000e-01,2.754516601562500000e-01,-8.252563476562500000e-01,1.409912109375000000e-01
1.000000000000000000e+00,-4.000000000000000000e+00,-3.000000000000000000e+00,-2.000000000000000000e+00,-7.000000000000000000e+00,-3.000000000000000000e+00,0.000000000000000000e+00,1.000000000000000000e+00,4.724121093750000000e-01,2.754516601562500000e-01,-8.252563476562500000e-01,1.409912109375000000e-01
2.000000000000000000e+00,1.000000000000000000e+00,3.000000000000000000e+00,-6.000000000000000000e+00,-8.000000000000000000e+00,-3.000000000000000000e+00,-3.000000000000000000e+00,-1.000000000000000000e+00,4.724121093750000000e-01,2.754516601562500000e-01,-8.252563476562500000e-01,1.409912109375000000e-01
1.000000000000000000e+00,7.000000000000000000e+00,6.000000000000000000e+00,1.200000000000000000e+01,8.000000000000000000e+00,6.000000000000000000e+00,3.300000000000000000e+01,1.000000000000000000e+00,4.724121093750000000e-01,2.754516601562500000e-01,-8.252563476562500000e-01,1.409912109375000000e-01
-2.000000000000000000e+00,-9.000000000000000000e+00,-1.700000000000000000e+01,-9.000000000000000000e+00,3.000000000000000000e+00,1.000000000000000000e+00,1.300000000000000000e+01,-3.000000000000000000e+00,4.722900390625000000e-01,2.747802734375000000e-01,-8.254394531250000000e-01,1.416625976562500000e-01
-5.000000000000000000e+00,6.000000000000000000e+00,4.000000000000000000e+00,-5.000000000000000000e+00,-1.000000000000000000e+01,-5.000000000000000000e+00,-7.000000000000000000e+00,-1.000000000000000000e+00,4.722900390625000000e-01,2.747802734375000000e-01,-8.254394531250000000e-01,1.416625976562500000e-01
3.000000000000000000e+00,-9.000000000000000000e+00,-4.000000000000000000e+00,-1.000000000000000000e+00,5.000000000000000000e+00,2.000000000000000000e+00,1.800000000000000000e+01,0.000000000000000000e+00,4.722900390625000000e-01,2.747802734375000000e-01,-8.254394531250000000e-01,1.416625976562500000e-01
-4.000000000000000000e+00,-4.000000000000000000e+00,-4.000000000000000000e+00,6.000000000000000000e+00,-4.000000000000000000e+00,-1.000000000000000000e+00,-1.500000000000000000e+01,2.000000000000000000e+00,4.722900390625000000e-01,2.747802734375000000e-01,-8.254394531250000000e-01,1.416625976562500000e-01
-3.000000000000000000e+00,3.000000000000000000e+00,6.000000000000000000e+00,0.000000000000000000e+00,3.000000000000000000e+00,-1.000000000000000000e+00,-4.000000000000000000e+00,-1.000000000000000000e+00,4.722290039062500000e-01,2.742919921875000000e-01,-8.255004882812500000e-01,1.424560546875000000e-01
1.100000000000000000e+01,-2.000000000000000000e+00,2.000000000000000000e+00,-1.000000000000000000e+00,-5.000000000000000000e+00,-5.000000000000000000e+00,2.000000000000000000e+00,-2.000000000000000000e+00,4.722290039062500000e-01,2.742919921875000000e-01,-8.255004882812500000e-01,1.424560546875000000e-01
-1.700000000000000000e+01,0.000000000000000000e+00,0.000000000000000000e+00,-3.000000000000000000e+00,-7.000000000000000000e+00,-5.000000000000000000e+00,-1.100000000000000000e+01,-1.000000000000000000e+00,4.722290039062500000e-01,2.742919921875000000e-01,-8.255004882812500000e-01,1.424560546875000000e-01
1.000000000000000000e+00,-4.000000000000000000e+00,1.000000000000000000e+00,3.000000000000000000e+00,3.000000000000000000e+00,4.000000000000000000e+00,-5.000000000000000000e+00,0.000000000000000000e+00,4.722290039062500000e-01,2.742919921875000000e-01,-8.255004882812500000e-01,1.424560546875000000e-01
