4.000000000000000000e+00,-6.000000000000000000e+00,-2.000000000000000000e+00,-1.100000000000000000e+01,-5.000000000000000000e+00,-3.000000000000000000e+00,-3.000000000000000000e+00,-4.000000000000000000e+00,3.793334960937500000e-01,1.220703125000000000e-01,-9.170532226562500000e-01,-1.684570312500000000e-02
7.000000000000000000e+00,5.000000000000000000e+00,-1.100000000000000000e+01,2.000000000000000000e+00,-3.000000000000000000e+00,-1.000000000000000000e+01,-1.000000000000000000e+01,-1.000000000000000000e+00,3.793334960937500000e-01,1.220703125000000000e-01,-9.170532226562500000e-01,-1.684570312500000000e-02
1.900000000000000000e+01,1.800000000000000000e+01,3.000000000000000000e+01,1.300000000000000000e+01,6.000000000000000000e+00,0.000000000000000000e+00,5.000000000000000000e+00,-2.000000000000000000e+00,3.793334960937500000e-01,1.220703125000000000e-01,-9.170532226562500000e-01,-1.684570312500000000e-02
-1.800000000000000000e+01,-1.200000000000000000e+01,6.000000000000000000e+00,1.000000000000000000e+00,-3.000000000000000000e+00,0.000000000000000000e+00,4.000000000000000000e+00,-1.000000000000000000e+00,3.793334960937500000e-01,1.220703125000000000e-01,-9.170532226562500000e-01,-1.684570312500000000e-02
2.000000000000000000e+00,-1.000000000000000000e+00,1.300000000000000000e+01,4.000000000000000000e+00,4.000000000000000000e+00,-1.000000000000000000e+00,0.000000000000000000e+00,-1.000000000000000000e+00,3.792724609375000000e-01,1.221313476562500000e-01,-9.170532226562500000e-01,-1.684570312500000000e-02
-1.400000000000000000e+01,-1.000000000000000000e+00,-1.500000000000000000e+01,-7.000000000000000000e+00,-5.000000000000000000e+00,-2.000000000000000000e+00,-3.000000000000000000e+00,-3.000000000000000000e+00,3.792724609375000000e-01,1.221313476562500000e-01,-9.170532226562500000e-01,-1.684570312500000000e-02
1.000000000000000000e+00,-1.100000000000000000e+01,-1.000000000000000000e+01,-1.100000000000000000e+01,-5.000000000000000000e+00,-3.000000000000000000e+00,-2.000000000000000000e+00,3.000000000000000000e+00,3.792724609375000000e-01,1.221313476562500000e-01,-9.170532226562500000e-01,-1.684570312500000000e-02
1.400000000000000000e+01,-2.000000000000000000e+00,1.300000000000000000e+01,6.000000000000000000e+00,2.000000000000000000e+00,-7.000000000000000000e+00,-5.000000000000000000e+00,-1.000000000000000000e+00,3.792724609375000000e-01,1.221313476562500000e-01,-9.170532226562500000e-01,-1.684570312500000000e-02
-6.000000000000000000e+00,-3.000000000000000000e+00,-1.600000000000000000e+01,-7.000000000000000000e+00,-4.000000000000000000e+00,-1.000000000000000000e+00,1.000000000000000000e+00,1.000000000000000000e+00,3.794555664062500000e-01,1.221313476562500000e-01,-9.169311523437500000e-01,-1.702880859375000000e-02
2.000000000000000000e+00,1.000000000000000000e+01,3.000000000000000000e+00,5.000000000000000000e+00,6.000000000000000000e+00,4.000000000000000000e+00,2.000000000000000000e+00,-2.000000000000000000e+00,3.794555664062500000e-01,1.221313476562500000e-01,-9.169311523437500000e-01,-1.702880859375000000e-02
9.000000000000000000e+00,-4.000000000000000000e+00,-5.000000000000000000e+00,5.000000000000000000e+00,-5.000000000000000000e+00,0.000000000000000000e+00,0.000000000000000000e+00,-1.000000000000000000e+00,3.794555664062500000e-01,1.221313476562500000e-01,-9.169311523437500000e-01,-1.702880859375000000e-02
-2.200000000000000000e+01,-7.000000000000000000e+00,1.100000000000000000e+01,9.000000000000000000e+00,5.000000000000000000e+00,4.000000000000000000e+00,-1.000000000000000000e+00,2.000000000000000000e+00,3.794555664062500000e-01,1.221313476562500000e-01,-9.169311523437500000e-01,-1.702880859375000000e-02
5.000000000000000000e+00,-1.000000000000000000e+00,1.200000000000000000e+01,-5.000000000000000000e+00,-1.000000000000000000e+00,-2.000000000000000000e+00,-2.000000000000000000e+00,0.000000000000000000e+00,3.796997070312500000e-01,1.218261718750000000e-01,-9.169311523437500000e-01,-1.733398437500000000e-02
-6.000000000000000000e+00,-2.000000000000000000e+01,-9.000000000000000000e+00,-5.000000000000000000e+00,-7.000000000000000000e+00,-3.000000000000000000e+00,-6.000000000000000000e+00,-5.000000000000000000e+00,3.796997070312500000e-01,1.218261718750000000e-01,-9.169311523437500000e-01,-1.733398437500000000e-02
-4.000000000000000000e+00,3.000000000000000000e+00,-1.700000000000000000e+01,3.000000000000000000e+00,7.000000000000000000e+00,5.000000000000000000e+00,1.100000000000000000e+01,-1.000000000000000000e+00,3.796997070312500000e-01,1.218261718750000000e-01,-9.169311523437500000e-01,-1.733398437500000000e-02
1.000000000000000000e+01,1.400000000000000000e+01,6.000000000000000000e+00,-6.000000000000000000e+00,-9.000000000000000000e+00,-5.000000000000000000e+00,-5.000000000000000000e+00,-3.000000000000000000e+00,3.796997070312500000e-01,1.218261718750000000e-01,-9.169311523437500000e-01,-1.733398437500000000e-02
1.100000000000000000e+01,1.600000000000000000e+01,9.000000000000000000e+00,1.300000000000000000e+01,-3.000000000000000000e+00,-3.000000000000000000e+00,-3.000000000000000000e+00,2.000000000000000000e+00,3.800048828125000000e-01,1.216430664062500000e-01,-9.168090820312500000e-01,-1.745605468750000000e-02
1.000000000000000000e+00,1.700000000000000000e+01,1.000000000000000000e+00,0.000000000000000000e+00,9.000000000000000000e+00,4.000000000000000000e+00,1.000000000000000000e+00,3.000000000000000000e+00,3.800048828125000000e-01,1.216430664062500000e-01,-9.168090820312500000e-01,-1.745605468750000000e-02
-1.000000000000000000e+01,-1.700000000000000000e+01,1.300000000000000000e+01,-1.300000000000000000e+01,-9.000000000000000000e+00,-6.000000000000000000e+00,-4.000000000000000000e+00,-3.000000000000000000e+00,3.800048828125000000e-01,1.216430664062500000e-01,-9.168090820312500000e-01,-1.745605468750000000e-02
5.000000000000000000e+00,-4.000000000000000000e+00,-7.000000000000000000e+00,-7.000000000000000000e+00,-3.000000000000000000e+00,-5.000000000000000000e+00,1.000000000000000000e+00,0.000000000000000000e+00,3.800048828125000000e-01,1.216430664062500000e-01,-9.168090820312500000e-01,-1.745605468750000000e-02
-3.000000000000000000e+00,-8.000000000000000000e+00,-1.600000000000000000e+01,3.000000000000000000e+00,4.000000000000000000e+00,1.000000000000000000e+00,-4.000000000000000000e+00,-1.000000000000000000e+00,3.802490234375000000e-01,1.210327148437500000e-01,-9.168090820312500000e-01,-1.757812500000000000e-02
-1.000000000000000000e+00,1.000000000000000000e+00,-3.000000000000000000e+00,-1.000000000000000000e+00,-4.000000000000000000e+00,2.000000000000000000e+00,2.000000000000000000e+00,1.000000000000000000e+00,3.802490234375000000e-01,1.210327148437500000e-01,-9.168090820312500000e-01,-1.757812500000000000e-02
8.000000000000000000e+00,9.000000000000000000e+00,-9.000000000000000000e+00,7.000000000000000000e+00,1.000000000000000000e+00,-2.000000000000000000e+00,-4.000000000000000000e+00,-2.000000000000000000e+00,3.802490234375000000e-01,1.210327148437500000e-01,-9.168090820312500000e-01,-1.757812500000000000e-02
-3.000000000000000000e+00,-1.100000000000000000e+01,1.700000000000000000e+01,-7.000000000000000000e+00,-3.000000000000000000e+00,-3.000000000000000000e+00,-4.000000000000000000e+00,-5.000000000000000000e+00,3.802490234375000000e-01,1.210327148437500000e-01,-9.168090820312500000e-01,-1.757812500000000000e-02
-2.000000000000000000e+00,-3.000000000000000000e+00,-2.000000000000000000e+00,-1.300000000000000000e+01,-5.000000000000000000e+00,1.000000000000000000e+00,7.000000000000000000e+00,1.000000000000000000e+00,3.803100585937500000e-01,1.207885742187500000e-01,-9.168090820312500000e-01,-1.776123046875000000e-02
-2.000000000000000000e+00,-6.000000000000000000e+00,-1.000000000000000000e+01,-2.000000000000000000e+00,-5.000000000000000000e+00,-6.000000000000000000e+00,-1.000000000000000000e+00,-2.000000000000000000e+00,3.803100585937500000e-01,1.207885742187500000e-01,-9.168090820312500000e-01,-1.776123046875000000e-02
-5.000000000000000000e+00,1.300000000000000000e+01,1.500000000000000000e+01,5.000000000000000000e+00,8.000000000000000000e+00,6.000000000000000000e+00,5.000000000000000000e+00,5.000000000000000000e+00,3.803100585937500000e-01,1.207885742187500000e-01,-9.168090820312500000e-01,-1.776123046875000000e-02
4.000000000000000000e+00,5.000000000000000000e+00,1.100000000000000000e+01,-3.000000000000000000e+00,-6.000000000000000000e+00,-7.000000000000000000e+00,-3.000000000000000000e+00,-3.000000000000000000e+00,3.803100585937500000e-01,1.207885742187500000e-01,-9.168090820312500000e-01,-1.776123046875000000e-02
-5.000000000000000000e+00,-6.000000000000000000e+00,-1.300000000000000000e+01,5.000000000000000000e+00,8.000000000000000000e+00,4.000000000000000000e+00,-2.000000000000000000e+00,0.000000000000000000e+00,3.803100585937500000e-01,1.208496093750000000e-01,-9.168090820312500000e-01,-1.776123046875000000e-02
-1.500000000000000000e+01,-1.500000000000000000e+01,3.000000000000000000e+00,-1.200000000000000000e+01,-9.000000000000000000e+00,-6.000000000000000000e+00,-2.000000000000000000e+00,-2.000000000000000000e+00,3.803100585937500000e-01,1.208496093750000000e-01,-9.168090820312500000e-01,-1.776123046875000000e-02
-1.000000000000000000e+00,-3.000000000000000000e+00,-5.000000000000000000e+00,6.000000000000000000e+00,-5.000000000000000000e+00,-4.000000000000000000e+00,2.000000000000000000e+00,0.000000000000000000e+00,3.803100585937500000e-01,1.208496093750000000e-01,-9.168090820312500000e-01,-1.776123046875000000e-02
1.200000000000000000e+01,5.000000000000000000e+00,3.000000000000000000e+00,3.000000000000000000e+00,3.000000000000000000e+00,2.000000000000000000e+00,-1.000000000000000000e+00,6.000000000000000000e+00,3.803100585937500000e-01,1.208496093750000000e-01,-9.168090820312500000e-01,-1.776123046875000000e-02
-6.000000000000000000e+00,-3.000000000000000000e+00,-7.000000000000000000e+00,-7.000000000000000000e+00,-5.000000000000000000e+00,-5.000000000000000000e+00,-2.000000000000000000e+00,-4.000000000000000000e+00,3.803710937500000000e-01,1.212768554687500000e-01,-9.166870117187500000e-01,-1.812744140625000000e-02
1.500000000000000000e+01,1.000000000000000000e+01,1.000000000000000000e+00,-3.000000000000000000e+00,-1.000000000000000000e+01,-3.000000000000000000e+00,7.000000000000000000e+00,4.000000000000000000e+00,3.803710937500000000e-01,1.212768554687500000e-01,-9.166870117187500000e-01,-1.812744140625000000e-02
-1.600000000000000000e+01,-1.500000000000000000e+01,-8.000000000000000000e+00,1.400000000000000000e+01,1.200000000000000000e+01,0.000000000000000000e+00,-2.000000000000000000e+00,0.000000000000000000e+00,3.803710937500000000e-01,1.212768554687500000e-01,-9.166870117187500000e-01,-1.812744140625000000e-02
-1.000000000000000000e+00,1.000000000000000000e+00,-1.300000000000000000e+01,-3.000000000000000000e+00,1.000000000000000000e+00,3.000000000000000000e+00,6.000000000000000000e+00,0.000000000000000000e+00,3.803710937500000000e-01,1.212768554687500000e-01,-9.166870117187500000e-01,-1.812744140625000000e-02
-3.000000000000000000e+00,-8.000000000000000000e+00,-6.000000000000000000e+00,-5.000000000000000000e+00,-1.000000000000000000e+00,-5.000000000000000000e+00,-3.000000000000000000e+00,-3.000000000000000000e+00,3.806152343750000000e-01,1.207885742187500000e-01,-9.166259765625000000e-01,-1.873779296875000000e-02
-8.000000000000000000e+00,1.400000000000000000e+01,2.000000000000000000e+01,4.000000000000000000e+00,-1.000000000000000000e+00,-1.000000000000000000e+00,0.000000000000000000e+00,-1.000000000000000000e+00,3.806152343750000000e-01,1.207885742187500000e-01,-9.166259765625000000e-01,-1.873779296875000000e-02
4.000000000000000000e+00,6.000000000000000000e+00,-2.700000000000000000e+01,-1.000000000000000000e+01,-5.000000000000000000e+00,-1.000000000000000000e+00,-4.000000000000000000e+00,-1.000000000000000000e+00,3.806152343750000000e-01,1.207885742187500000e-01,-9.166259765625000000e-01,-1.873779296875000000e-02
-1.400000000000000000e+01,-3.400000000000000000e+01,8.000000000000000000e+00,0.000000000000000000e+00,-8.000000000000000000e+00,-5.000000000000000000e+00,-4.000000000000000000e+00,-2.000000000000000000e+00,3.806152343750000000e-01,1.207885742187500000e-01,-9.166259765625000000e-01,-1.873779296875000000e-02
-2.000000000000000000e+00,-1.000000000000000000e+00,2.000000000000000000e+00,-1.000000000000000000e+00,-3.000000000000000000e+00,-4.000000000000000000e+00,-2.000000000000000000e+00,-5.000000000000000000e+00,3.809204101562500000e-01,1.204223632812500000e-01,-9.165649414062500000e-01,-1.898193359375000000e-02
7.000000000000000000e+00,-7.000000000000000000e+00,2.000000000000000000e+00,6.000000000000000000e+00,4.000000000000000000e+00,-2.000000000000000000e+00,-7.000000000000000000e+00,-4.000000000000000000e+00,3.809204101562500000e-01,1.204223632812500000e-01,-9.165649414062500000e-01,-1.898193359375000000e-02
5.000000000000000000e+00,8.000000000000000000e+00,6.000000000000000000e+00,0.000000000000000000e+00,3.000000000000000000e+00,1.000000000000000000e+00,5.000000000000000000e+00,1.000000000000000000e+00,3.809204101562500000e-01,1.204223632812500000e-01,-9.165649414062500000e-01,-1.898193359375000000e-02
2.000000000000000000e+00,1.800000000000000000e+01,1.000000000000000000e+01,4.000000000000000000e+00,4.000000000000000000e+00,2.000000000000000000e+00,4.000000000000000000e+00,2.000000000000000000e+00,3.809204101562500000e-01,1.204223632812500000e-01,-9.165649414062500000e-01,-1.898193359375000000e-02
-1.000000000000000000e+00,1.100000000000000000e+01,6.000000000000000000e+00,4.000000000000000000e+00,2.000000000000000000e+00,5.000000000000000000e+00,6.000000000000000000e+00,2.000000000000000000e+00,3.811645507812500000e-01,1.206665039062500000e-01,-9.163818359375000000e-01,-1.898193359375000000e-02
1.100000000000000000e+01,-1.000000000000000000e+00,-2.100000000000000000e+01,-4.000000000000000000e+00,-5.000000000000000000e+00,0.000000000000000000e+00,4.000000000000000000e+00,3.000000000000000000e+00,3.811645507812500000e-01,1.206665039062500000e-01,-9.163818359375000000e-01,-1.898193359375000000e-02
-1.700000000000000000e+01,-9.000000000000000000e+00,2.500000000000000000e+01,-3.000000000000000000e+00,-6.000000000000000000e+00,-6.000000000000000000e+00,-3.000000000000000000e+00,1.000000000000000000e+00,3.811645507812500000e-01,1.206665039062500000e-01,-9.163818359375000000e-01,-1.898193359375000000e-02
-4.000000000000000000e+00,-8.000000000000000000e+00,-2.100000000000000000e+01,-6.000000000000000000e+00,-4.000000000000000000e+00,-3.000000000000000000e+00,-6.000000000000000000e+00,-4.000000000000000000e+00,3.811645507812500000e-01,1.206665039062500000e-01,-9.163818359375000000e-01,-1.898193359375000000e-02
-7.000000000000000000e+00,-1.000000000000000000e+01,8.000000000000000000e+00,1.000000000000000000e+00,1.000000000000000000e+00,-1.000000000000000000e+00,0.000000000000000000e+00,2.000000000000000000e+00,3.814697265625000000e-01,1.209106445312500000e-01,-9.162597656250000000e-01,-1.904296875000000000e-02
-2.000000000000000000e+00,1.600000000000000000e+01,3.000000000000000000e+00,8.000000000000000000e+00,1.100000000000000000e+01,6.000000000000000000e+00,3.000000000000000000e+00,2.000000000000000000e+00,3.814697265625000000e-01,1.209106445312500000e-01,-9.162597656250000000e-01,-1.904296875000000000e-02
6.000000000000000000e+00,-7.000000000000000000e+00,-1.000000000000000000e+00,-3.000000000000000000e+00,-2.000000000000000000e+00,2.000000000000000000e+00,-8.000000000000000000e+00,-3.000000000000000000e+00,3.814697265625000000e-01,1.209106445312500000e-01,-9.162597656250000000e-01,-1.904296875000000000e-02
1.300000000000000000e+01,2.600000000000000000e+01,2.300000000000000000e+01,-2.000000000000000000e+00,-5.000000000000000000e+00,3.000000000000000000e+00,9.000000000000000000e+00,0.000000000000000000e+00,3.814697265625000000e-01,1.209106445312500000e-01,-9.162597656250000000e-01,-1.904296875000000000e-02
-1.600000000000000000e+01,-3.100000000000000000e+01,-3.800000000000000000e+01,-6.000000000000000000e+00,-4.000000000000000000e+00,0.000000000000000000e+00,-2.000000000000000000e+00,-3.000000000000000000e+00,3.816528320312500000e-01,1.206665039062500000e-01,-9.161987304687500000e-01,-1.922607421875000000e-02
-1.200000000000000000e+01,-1.200000000000000000e+01,8.000000000000000000e+00,-4.000000000000000000e+00,-3.000000000000000000e+00,-2.000000000000000000e+00,-3.000000000000000000e+00,-6.000000000000000000e+00,3.816528320312500000e-01,1.206665039062500000e-01,-9.161987304687500000e-01,-1.922607421875000000e-02
-3.000000000000000000e+00,-1.800000000000000000e+01,-1.500000000000000000e+01,5.000000000000000000e+00,-4.000000000000000000e+00,-5.000000000000000000e+00,-5.000000000000000000e+00,-3.000000000000000000e+00,3.816528320312500000e-01,1.206665039062500000e-01,-9.161987304687500000e-01,-1.922607421875000000e-02
-1.000000000000000000e+00,1.000000000000000000e+01,1.200000000000000000e+01,-6.000000000000000000e+00,6.000000000000000000e+00,2.000000000000000000e+00,-8.000000000000000000e+00,-3.000000000000000000e+00,3.816528320312500000e-01,1.206665039062500000e-01,-9.161987304687500000e-01,-1.922607421875000000e-02
6.000000000000000000e+00,1.600000000000000000e+01,7.000000000000000000e+00,2.000000000000000000e+00,3.000000000000000000e+00,3.000000000000000000e+00,-4.000000000000000000e+00,2.000000000000000000e+00,3.820800781250000000e-01,1.203002929687500000e-01,-9.160766601562500000e-01,-1.947021484375000000e-02
1.400000000000000000e+01,-4.000000000000000000e+00,-1.200000000000000000e+01,0.000000000000000000e+00,0.000000000000000000e+00,2.000000000000000000e+00,2.000000000000000000e+00,3.000000000000000000e+00,3.820800781250000000e-01,1.203002929687500000e-01,-9.160766601562500000e-01,-1.947021484375000000e-02
-1.500000000000000000e+01,-4.000000000000000000e+00,3.000000000000000000e+00,-8.000000000000000000e+00,-1.100000000000000000e+01,0.000000000000000000e+00,-1.000000000000000000e+00,-2.000000000000000000e+00,3.820800781250000000e-01,1.203002929687500000e-01,-9.160766601562500000e-01,-1.947021484375000000e-02
0.000000000000000000e+00,6.000000000000000000e+00,1.000000000000000000e+00,5.000000000000000000e+00,0.000000000000000000e+00,-3.000000000000000000e+00,-9.000000000000000000e+00,-3.000000000000000000e+00,3.820800781250000000e-01,1.203002929687500000e-01,-9.160766601562500000e-01,-1.947021484375000000e-02
8.000000000000000000e+00,1.600000000000000000e+01,-2.000000000000000000e+00,-1.000000000000000000e+00,-1.000000000000000000e+00,1.000000000000000000e+00,1.500000000000000000e+01,2.000000000000000000e+00,3.823242187500000000e-01,1.201782226562500000e-01,-9.159545898437500000e-01,-1.947021484375000000e-02
-5.000000000000000000e+00,-1.400000000000000000e+01,1.600000000000000000e+01,-6.000000000000000000e+00,-1.000000000000000000e+00,-6.000000000000000000e+00,-1.000000000000000000e+00,0.000000000000000000e+00,3.823242187500000000e-01,1.201782226562500000e-01,-9.159545898437500000e-01,-1.947021484375000000e-02
8.000000000000000000e+00,1.200000000000000000e+01,-1.400000000000000000e+01,-1.000000000000000000e+00,0.000000000000000000e+00,-1.000000000000000000e+00,1.000000000000000000e+00,-2.000000000000000000e+00,3.823242187500000000e-01,1.201782226562500000e-01,-9.159545898437500000e-01,-1.947021484375000000e-02
3.000000000000000000e+00,1.200000000000000000e+01,-1.400000000000000000e+01,1.000000000000000000e+00,0.000000000000000000e+00,-1.000000000000000000e+00,-1.000000000000000000e+00,1.000000000000000000e+00,3.823242187500000000e-01,1.201782226562500000e-01,-9.159545898437500000e-01,-1.947021484375000000e-02
-2.000000000000000000e+01,-3.300000000000000000e+01,0.000000000000000000e+00,1.000000000000000000e+00,-2.000000000000000000e+00,-3.000000000000000000e+00,-5.000000000000000000e+00,-2.000000000000000000e+00,3.827514648437500000e-01,1.203613281250000000e-01,-9.157714843750000000e-01,-1.934814453125000000e-02
-4.000000000000000000e+00,5.000000000000000000e+00,1.300000000000000000e+01,1.000000000000000000e+00,2.000000000000000000e+00,0.000000000000000000e+00,-3.000000000000000000e+00,-3.000000000000000000e+00,3.827514648437500000e-01,1.203613281250000000e-01,-9.157714843750000000e-01,-1.934814453125000000e-02
9.000000000000000000e+00,5.000000000000000000e+00,1.000000000000000000e+00,1.100000000000000000e+01,3.000000000000000000e+00,5.000000000000000000e+00,-2.000000000000000000e+00,-2.000000000000000000e+00,3.827514648437500000e-01,1.203613281250000000e-01,-9.157714843750000000e-01,-1.934814453125000000e-02
-1.000000000000000000e+01,-1.600000000000000000e+01,-2.000000000000000000e+00,-1.900000000000000000e+01,-1.200000000000000000e+01,1.000000000000000000e+00,1.200000000000000000e+01,-3.000000000000000000e+00,3.827514648437500000e-01,1.203613281250000000e-01,-9.157714843750000000e-01,-1.934814453125000000e-02
7.000000000000000000e+00,7.000000000000000000e+00,-1.000000000000000000e+00,-1.000000000000000000e+00,1.000000000000000000e+00,-2.000000000000000000e+00,-3.000000000000000000e+00,-3.000000000000000000e+00,3.831176757812500000e-01,1.202392578125000000e-01,-9.156494140625000000e-01,-1.928710937500000000e-02
-2.300000000000000000e+01,4.000000000000000000e+00,-7.000000000000000000e+00,1.000000000000000000e+00,3.000000000000000000e+00,2.000000000000000000e+00,4.000000000000000000e+00,1.000000000000000000e+00,3.831176757812500000e-01,1.202392578125000000e-01,-9.156494140625000000e-01,-1.928710937500000000e-02
2.000000000000000000e+00,-1.000000000000000000e+01,-7.000000000000000000e+00,-4.000000000000000000e+00,0.000000000000000000e+00,-3.000000000000000000e+00,-1.000000000000000000e+00,0.000000000000000000e+00,3.831176757812500000e-01,1.202392578125000000e-01,-9.156494140625000000e-01,-1.928710937500000000e-02
9.000000000000000000e+00,2.000000000000000000e+01,6.000000000000000000e+00,1.300000000000000000e+01,8.000000000000000000e+00,0.000000000000000000e+00,-3.000000000000000000e+00,2.000000000000000000e+00,3.831176757812500000e-01,1.202392578125000000e-01,-9.156494140625000000e-01,-1.928710937500000000e-02
-9.000000000000000000e+00,-7.000000000000000000e+00,7.000000000000000000e+00,-8.000000000000000000e+00,-8.000000000000000000e+00,-6.000000000000000000e+00,-3.000000000000000000e+00,-2.000000000000000000e+00,3.834838867187500000e-01,1.201782226562500000e-01,-9.155273437500000000e-01,-1.934814453125000000e-02
7.000000000000000000e+00,-5.000000000000000000e+00,-1.200000000000000000e+01,-1.400000000000000000e+01,-6.000000000000000000e+00,3.000000000000000000e+00,3.000000000000000000e+00,0.000000000000000000e+00,3.834838867187500000e-01,1.201782226562500000e-01,-9.155273437500000000e-01,-1.934814453125000000e-02
3.000000000000000000e+00,4.000000000000000000e+00,-9.000000000000000000e+00,1.300000000000000000e+01,3.000000000000000000e+00,-5.000000000000000000e+00,-3.000000000000000000e+00,-5.000000000000000000e+00,3.834838867187500000e-01,1.201782226562500000e-01,-9.155273437500000000e-01,-1.934814453125000000e-02
-4.000000000000000000e+00,-8.000000000000000000e+00,8.000000000000000000e+00,4.000000000000000000e+00,0.000000000000000000e+00,3.000000000000000000e+00,1.000000000000000000e+00,0.000000000000000000e+00,3.834838867187500000e-01,1.201782226562500000e-01,-9.155273437500000000e-01,-1.934814453125000000e-02
7.000000000000000000e+00,1.000000000000000000e+00,-8.000000000000000000e+00,-9.000000000000000000e+00,-1.000000000000000000e+00,1.000000000000000000e+00,0.000000000000000000e+00,0.000000000000000000e+00,3.836669921875000000e-01,1.201782226562500000e-01,-9.154052734375000000e-01,-1.953125000000000000e-02
-1.000000000000000000e+00,5.000000000000000000e+00,-4.000000000000000000e+00,2.000000000000000000e+00,0.000000000000000000e+00,-2.000000000000000000e+00,-6.000000000000000000e+00,-2.000000000000000000e+00,3.836669921875000000e-01,1.201782226562500000e-01,-9.154052734375000000e-01,-1.953125000000000000e-02
-3.000000000000000000e+00,4.000000000000000000e+00,1.100000000000000000e+01,-3.000000000000000000e+00,-4.000000000000000000e+00,-1.000000000000000000e+00,1.000000000000000000e+00,0.000000000000000000e+00,3.836669921875000000e-01,1.201782226562500000e-01,-9.154052734375000000e-01,-1.953125000000000000e-02
3.000000000000000000e+00,2.000000000000000000e+00,1.000000000000000000e+01,4.000000000000000000e+00,5.000000000000000000e+00,-2.000000000000000000e+00,-1.200000000000000000e+01,-4.000000000000000000e+00,3.836669921875000000e-01,1.201782226562500000e-01,-9.154052734375000000e-01,-1.953125000000000000e-02
-5.000000000000000000e+00,6.000000000000000000e+00,-2.000000000000000000e+00,-9.000000000000000000e+00,-7.000000000000000000e+00,2.000000000000000000e+00,7.000000000000000000e+00,-2.000000000000000000e+00,3.837280273437500000e-01,1.203002929687500000e-01,-9.153442382812500000e-01,-1.989746093750000000e-02
7.000000000000000000e+00,-2.400000000000000000e+01,-1.800000000000000000e+01,7.000000000000000000e+00,1.500000000000000000e+01,-2.000000000000000000e+00,-7.000000000000000000e+00,-5.000000000000000000e+00,3.837280273437500000e-01,1.203002929687500000e-01,-9.153442382812500000e-01,-1.989746093750000000e-02
-2.900000000000000000e+01,-2.300000000000000000e+01,1.500000000000000000e+01,-1.000000000000000000e+01,-6.000000000000000000e+00,-2.000000000000000000e+00,3.000000000000000000e+00,1.000000000000000000e+00,3.837280273437500000e-01,1.203002929687500000e-01,-9.153442382812500000e-01,-1.989746093750000000e-02
-4.000000000000000000e+00,-1.000000000000000000e+00,-1.000000000000000000e+01,5.000000000000000000e+00,0.000000000000000000e+00,-3.000000000000000000e+00,-3.000000000000000000e+00,2.000000000000000000e+00,3.837280273437500000e-01,1.203002929687500000e-01,-9.153442382812500000e-01,-1.989746093750000000e-02
1.000000000000000000e+00,1.300000000000000000e+01,1.600000000000000000e+01,-1.000000000000000000e+00,-3.000000000000000000e+00,-3.000000000000000000e+00,-1.000000000000000000e+01,2.000000000000000000e+00,3.836669921875000000e-01,1.203002929687500000e-01,-9.154052734375000000e-01,-1.989746093750000000e-02
6.000000000000000000e+00,9.000000000000000000e+00,2.000000000000000000e+00,-2.000000000000000000e+00,-6.000000000000000000e+00,-1.000000000000000000e+00,-2.000000000000000000e+00,-3.000000000000000000e+00,3.836669921875000000e-01,1.203002929687500000e-01,-9.154052734375000000e-01,-1.989746093750000000e-02
1.500000000000000000e+01,1.000000000000000000e+01,5.000000000000000000e+00,1.000000000000000000e+00,1.000000000000000000e+00,-5.000000000000000000e+00,-1.000000000000000000e+00,1.000000000000000000e+00,3.836669921875000000e-01,1.203002929687500000e-01,-9.154052734375000000e-01,-1.989746093750000000e-02
-1.600000000000000000e+01,-1.600000000000000000e+01,-2.100000000000000000e+01,-8.000000000000000000e+00,-4.000000000000000000e+00,-6.000000000000000000e+00,-8.000000000000000000e+00,-4.000000000000000000e+00,3.836669921875000000e-01,1.203002929687500000e-01,-9.154052734375000000e-01,-1.989746093750000000e-02
-4.000000000000000000e+00,-3.800000000000000000e+01,-2.200000000000000000e+01,0.000000000000000000e+00,3.000000000000000000e+00,-2.000000000000000000e+00,-1.000000000000000000e+00,0.000000000000000000e+00,3.837890625000000000e-01,1.202392578125000000e-01,-9.153442382812500000e-01,-2.001953125000000000e-02
1.100000000000000000e+01,9.000000000000000000e+00,1.000000000000000000e+00,1.100000000000000000e+01,-1.000000000000000000e+00,-2.000000000000000000e+00,2.000000000000000000e+00,0.000000000000000000e+00,3.837890625000000000e-01,1.202392578125000000e-01,-9.153442382812500000e-01,-2.001953125000000000e-02
-1.900000000000000000e+01,-8.000000000000000000e+00,-1.000000000000000000e+00,-1.000000000000000000e+01,-6.000000000000000000e+00,-3.000000000000000000e+00,-4.000000000000000000e+00,-3.000000000000000000e+00,3.837890625000000000e-01,1.202392578125000000e-01,-9.153442382812500000e-01,-2.001953125000000000e-02
8.000000000000000000e+00,9.000000000000000000e+00,2.000000000000000000e+00,-1.000000000000000000e+00,-6.000000000000000000e+00,2.000000000000000000e+00,7.000000000000000000e+00,4.000000000000000000e+00,3.837890625000000000e-01,1.202392578125000000e-01,-9.153442382812500000e-01,-2.001953125000000000e-02
9.000000000000000000e+00,1.900000000000000000e+01,3.000000000000000000e+00,9.000000000000000000e+00,3.000000000000000000e+00,4.000000000000000000e+00,3.000000000000000000e+00,-2.000000000000000000e+00,3.837890625000000000e-01,1.206054687500000000e-01,-9.153442382812500000e-01,-1.989746093750000000e-02
-7.000000000000000000e+00,-7.000000000000000000e+00,-5.000000000000000000e+00,-1.300000000000000000e+01,-1.600000000000000000e+01,-7.000000000000000000e+00,-4.000000000000000000e+00,-2.000000000000000000e+00,3.837890625000000000e-01,1.206054687500000000e-01,-9.153442382812500000e-01,-1.989746093750000000e-02
3.000000000000000000e+00,2.000000000000000000e+00,0.000000000000000000e+00,-4.000000000000000000e+00,3.000000000000000000e+00,-2.000000000000000000e+00,-5.000000000000000000e+00,-2.000000000000000000e+00,3.837890625000000000e-01,1.206054687500000000e-01,-9.153442382812500000e-01,-1.989746093750000000e-02
3.000000000000000000e+00,-2.000000000000000000e+01,-1.600000000000000000e+01,4.000000000000000000e+00,3.000000000000000000e+00,-2.000000000000000000e+00,2.000000000000000000e+00,-2.000000000000000000e+00,3.837890625000000000e-01,1.206054687500000000e-01,-9.153442382812500000e-01,-1.989746093750000000e-02
-1.700000000000000000e+01,2.000000000000000000e+00,-5.000000000000000000e+00,6.000000000000000000e+00,6.000000000000000000e+00,-1.000000000000000000e+00,2.000000000000000000e+00,-1.000000000000000000e+00,3.840332031250000000e-01,1.206665039062500000e-01,-9.151611328125000000e-01,-2.008056640625000000e-02
4.000000000000000000e+00,2.000000000000000000e+00,1.000000000000000000e+00,0.000000000000000000e+00,4.000000000000000000e+00,1.000000000000000000e+00,4.000000000000000000e+00,2.000000000000000000e+00,3.840332031250000000e-01,1.206665039062500000e-01,-9.151611328125000000e-01,-2.008056640625000000e-02
-3.000000000000000000e+00,-1.000000000000000000e+00,6.000000000000000000e+00,-5.000000000000000000e+00,-6.000000000000000000e+00,-1.000000000000000000e+00,-1.000000000000000000e+00,-3.000000000000000000e+00,3.840332031250000000e-01,1.206665039062500000e-01,-9.151611328125000000e-01,-2.008056640625000000e-02
-3.000000000000000000e+00,1.500000000000000000e+01,-6.000000000000000000e+00,-1.000000000000000000e+00,-1.000000000000000000e+00,0.000000000000000000e+00,-1.000000000000000000e+00,-2.000000000000000000e+00,3.840332031250000000e-01,1.206665039062500000e-01,-9.151611328125000000e-01,-2.008056640625000000e-02
4.000000000000000000e+00,4.000000000000000000e+00,1.700000000000000000e+01,2.000000000000000000e+00,-9.000000000000000000e+00,-7.000000000000000000e+00,-5.000000000000000000e+00,-2.000000000000000000e+00,3.842773437500000000e-01,1.202392578125000000e-01,-9.151611328125000000e-01,-2.026367187500000000e-02
-2.000000000000000000e+00,-9.000000000000000000e+00,-1.200000000000000000e+01,3.000000000000000000e+00,6.000000000000000000e+00,-1.000000000000000000e+00,-8.000000000000000000e+00,-3.000000000000000000e+00,3.842773437500000000e-01,1.202392578125000000e-01,-9.151611328125000000e-01,-2.026367187500000000e-02
2.000000000000000000e+01,2.000000000000000000e+00,-4.000000000000000000e+00,-5.000000000000000000e+00,0.000000000000000000e+00,0.000000000000000000e+00,-1.000000000000000000e+00,2.000000000000000000e+00,3.842773437500000000e-01,1.202392578125000000e-01,-9.151611328125000000e-01,-2.026367187500000000e-02
-2.000000000000000000e+01,-1.200000000000000000e+01,9.000000000000000000e+00,-1.000000000000000000e+00,-4.000000000000000000e+00,-3.000000000000000000e+00,5.000000000000000000e+00,-2.000000000000000000e+00,3.842773437500000000e-01,1.202392578125000000e-01,-9.151611328125000000e-01,-2.026367187500000000e-02
3.000000000000000000e+00,-7.000000000000000000e+00,3.000000000000000000e+00,4.000000000000000000e+00,4.000000000000000000e+00,3.000000000000000000e+00,0.000000000000000000e+00,1.000000000000000000e+00,3.846435546875000000e-01,1.199340820312500000e-01,-9.150390625000000000e-01,-2.026367187500000000e-02
-3.000000000000000000e+00,1.100000000000000000e+01,1.000000000000000000e+01,1.000000000000000000e+00,-3.000000000000000000e+00,-2.000000000000000000e+00,-3.000000000000000000e+00,1.000000000000000000e+00,3.846435546875000000e-01,1.199340820312500000e-01,-9.150390625000000000e-01,-2.026367187500000000e-02
3.000000000000000000e+00,0.000000000000000000e+00,-5.000000000000000000e+00,-3.000000000000000000e+00,-1.000000000000000000e+00,1.000000000000000000e+00,2.000000000000000000e+00,0.000000000000000000e+00,3.846435546875000000e-01,1.199340820312500000e-01,-9.150390625000000000e-01,-2.026367187500000000e-02
1.300000000000000000e+01,7.000000000000000000e+00,1.000000000000000000e+00,0.000000000000000000e+00,1.000000000000000000e+00,-1.000000000000000000e+00,3.000000000000000000e+00,0.000000000000000000e+00,3.846435546875000000e-01,1.199340820312500000e-01,-9.150390625000000000e-01,-2.026367187500000000e-02
9.000000000000000000e+00,2.500000000000000000e+01,1.000000000000000000e+00,-4.000000000000000000e+00,-5.000000000000000000e+00,-5.000000000000000000e+00,1.000000000000000000e+00,3.000000000000000000e+00,3.848266601562500000e-01,1.200561523437500000e-01,-9.149169921875000000e-01,-2.008056640625000000e-02
-2.000000000000000000e+01,-3.400000000000000000e+01,-8.000000000000000000e+00,2.000000000000000000e+00,-1.000000000000000000e+00,3.000000000000000000e+00,2.000000000000000000e+00,-4.000000000000000000e+00,3.848266601562500000e-01,1.200561523437500000e-01,-9.149169921875000000e-01,-2.008056640625000000e-02
1.000000000000000000e+00,1.200000000000000000e+01,2.600000000000000000e+01,-1.000000000000000000e+00,0.000000000000000000e+00,-1.000000000000000000e+00,0.000000000000000000e+00,1.000000000000000000e+00,3.848266601562500000e-01,1.200561523437500000e-01,-9.149169921875000000e-01,-2.008056640625000000e-02
-1.600000000000000000e+01,-1.600000000000000000e+01,-1.800000000000000000e+01,0.000000000000000000e+00,-3.000000000000000000e+00,-1.000000000000000000e+00,1.000000000000000000e+00,-1.000000000000000000e+00,3.848266601562500000e-01,1.200561523437500000e-01,-9.149169921875000000e-01,-2.008056640625000000e-02
-5.000000000000000000e+00,-4.000000000000000000e+00,-4.000000000000000000e+00,-3.000000000000000000e+00,0.000000000000000000e+00,1.000000000000000000e+00,2.000000000000000000e+00,-2.000000000000000000e+00,3.850708007812500000e-01,1.203002929687500000e-01,-9.147949218750000000e-01,-1.989746093750000000e-02
5.000000000000000000e+00,9.000000000000000000e+00,2.000000000000000000e+00,1.000000000000000000e+00,-2.000000000000000000e+00,-3.000000000000000000e+00,-4.000000000000000000e+00,-1.000000000000000000e+00,3.850708007812500000e-01,1.203002929687500000e-01,-9.147949218750000000e-01,-1.989746093750000000e-02
3.000000000000000000e+00,7.000000000000000000e+00,-2.000000000000000000e+00,1.000000000000000000e+00,-4.000000000000000000e+00,-1.000000000000000000e+00,-2.000000000000000000e+00,-2.000000000000000000e+00,3.850708007812500000e-01,1.203002929687500000e-01,-9.147949218750000000e-01,-1.989746093750000000e-02
4.000000000000000000e+00,1.200000000000000000e+01,8.000000000000000000e+00,-3.000000000000000000e+00,5.000000000000000000e+00,2.000000000000000000e+00,0.000000000000000000e+00,0.000000000000000000e+00,3.850708007812500000e-01,1.203002929687500000e-01,-9.147949218750000000e-01,-1.989746093750000000e-02
3.000000000000000000e+00,-1.000000000000000000e+00,-1.400000000000000000e+01,-3.000000000000000000e+00,-5.000000000000000000e+00,-2.000000000000000000e+00,-3.000000000000000000e+00,-7.000000000000000000e+00,3.853149414062500000e-01,1.203613281250000000e-01,-9.146728515625000000e-01,-1.995849609375000000e-02
-1.100000000000000000e+01,-2.200000000000000000e+01,-1.000000000000000000e+00,1.200000000000000000e+01,-1.000000000000000000e+00,-1.000000000000000000e+00,2.000000000000000000e+00,-3.000000000000000000e+00,3.853149414062500000e-01,1.203613281250000000e-01,-9.146728515625000000e-01,-1.995849609375000000e-02
-9.000000000000000000e+00,-9.000000000000000000e+00,-7.000000000000000000e+00,-1.800000000000000000e+01,-1.000000000000000000e+00,0.000000000000000000e+00,-1.000000000000000000e+00,-2.000000000000000000e+00,3.853149414062500000e-01,1.203613281250000000e-01,-9.146728515625000000e-01,-1.995849609375000000e-02
1.000000000000000000e+01,7.000000000000000000e+00,4.000000000000000000e+00,4.000000000000000000e+00,6.000000000000000000e+00,1.000000000000000000e+00,-4.000000000000000000e+00,0.000000000000000000e+00,3.853149414062500000e-01,1.203613281250000000e-01,-9.146728515625000000e-01,-1.995849609375000000e-02
6.000000000000000000e+00,1.000000000000000000e+01,9.000000000000000000e+00,3.000000000000000000e+00,3.000000000000000000e+00,2.000000000000000000e+00,-4.000000000000000000e+00,1.000000000000000000e+00,3.854980468750000000e-01,1.199340820312500000e-01,-9.146728515625000000e-01,-2.014160156250000000e-02
4.000000000000000000e+00,2.100000000000000000e+01,-1.600000000000000000e+01,-1.000000000000000000e+01,-3.000000000000000000e+00,-1.000000000000000000e+00,1.000000000000000000e+00,4.000000000000000000e+00,3.854980468750000000e-01,1.199340820312500000e-01,-9.146728515625000000e-01,-2.014160156250000000e-02
-1.900000000000000000e+01,-2.900000000000000000e+01,-7.000000000000000000e+00,6.000000000000000000e+00,-9.000000000000000000e+00,-4.000000000000000000e+00,5.000000000000000000e+00,0.000000000000000000e+00,3.854980468750000000e-01,1.199340820312500000e-01,-9.146728515625000000e-01,-2.014160156250000000e-02
-4.300000000000000000e+01,-1.100000000000000000e+01,-1.300000000000000000e+01,-1.000000000000000000e+01,3.000000000000000000e+00,-3.000000000000000000e+00,-5.000000000000000000e+00,-4.000000000000000000e+00,3.854980468750000000e-01,1.199340820312500000e-01,-9.146728515625000000e-01,-2.014160156250000000e-02
-1.000000000000000000e+00,0.000000000000000000e+00,2.400000000000000000e+01,1.400000000000000000e+01,9.000000000000000000e+00,5.000000000000000000e+00,1.000000000000000000e+00,2.000000000000000000e+00,3.856201171875000000e-01,1.195678710937500000e-01,-9.146728515625000000e-01,-2.026367187500000000e-02
5.000000000000000000e+00,3.000000000000000000e+00,-2.400000000000000000e+01,-5.000000000000000000e+00,-2.000000000000000000e+00,-2.000000000000000000e+00,0.000000000000000000e+00,2.000000000000000000e+00,3.856201171875000000e-01,1.195678710937500000e-01,-9.146728515625000000e-01,-2.026367187500000000e-02
8.000000000000000000e+00,2.000000000000000000e+01,5.000000000000000000e+00,5.000000000000000000e+00,2.000000000000000000e+00,-2.000000000000000000e+00,-3.000000000000000000e+00,-3.000000000000000000e+00,3.856201171875000000e-01,1.195678710937500000e-01,-9.146728515625000000e-01,-2.026367187500000000e-02
1.400000000000000000e+01,1.000000000000000000e+00,-1.200000000000000000e+01,-7.000000000000000000e+00,-8.000000000000000000e+00,-1.000000000000000000e+00,-1.000000000000000000e+00,-3.000000000000000000e+00,3.856201171875000000e-01,1.195678710937500000e-01,-9.146728515625000000e-01,-2.026367187500000000e-02
-1.100000000000000000e+01,-1.800000000000000000e+01,1.000000000000000000e+00,-6.000000000000000000e+00,-5.000000000000000000e+00,-3.000000000000000000e+00,-5.000000000000000000e+00,-5.000000000000000000e+00,3.855590820312500000e-01,1.196899414062500000e-01,-9.146728515625000000e-01,-2.014160156250000000e-02
0.000000000000000000e+00,-4.000000000000000000e+00,-5.000000000000000000e+00,-1.200000000000000000e+01,-6.000000000000000000e+00,-2.000000000000000000e+00,-5.000000000000000000e+00,-1.000000000000000000e+00,3.855590820312500000e-01,1.196899414062500000e-01,-9.146728515625000000e-01,-2.014160156250000000e-02
-2.000000000000000000e+00,-3.000000000000000000e+00,1.000000000000000000e+00,3.000000000000000000e+00,0.000000000000000000e+00,-1.000000000000000000e+00,-3.000000000000000000e+00,-2.000000000000000000e+00,3.855590820312500000e-01,1.196899414062500000e-01,-9.146728515625000000e-01,-2.014160156250000000e-02
2.000000000000000000e+00,0.000000000000000000e+00,1.000000000000000000e+00,6.000000000000000000e+00,3.000000000000000000e+00,-1.000000000000000000e+00,-2.000000000000000000e+00,-1.000000000000000000e+00,3.855590820312500000e-01,1.196899414062500000e-01,-9.146728515625000000e-01,-2.014160156250000000e-02
2.000000000000000000e+00,-4.000000000000000000e+00,-2.000000000000000000e+00,1.000000000000000000e+00,-2.000000000000000000e+00,-5.000000000000000000e+00,-3.000000000000000000e+00,-3.000000000000000000e+00,3.854370117187500000e-01,1.201782226562500000e-01,-9.146728515625000000e-01,-2.008056640625000000e-02
8.000000000000000000e+00,3.000000000000000000e+00,1.800000000000000000e+01,0.000000000000000000e+00,1.000000000000000000e+00,4.000000000000000000e+00,2.000000000000000000e+00,1.000000000000000000e+00,3.854370117187500000e-01,1.201782226562500000e-01,-9.146728515625000000e-01,-2.008056640625000000e-02
-1.000000000000000000e+00,-4.000000000000000000e+00,-3.700000000000000000e+01,-7.000000000000000000e+00,-2.000000000000000000e+00,-1.000000000000000000e+00,0.000000000000000000e+00,-2.000000000000000000e+00,3.854370117187500000e-01,1.201782226562500000e-01,-9.146728515625000000e-01,-2.008056640625000000e-02
3.000000000000000000e+00,5.000000000000000000e+00,1.800000000000000000e+01,3.000000000000000000e+00,-4.000000000000000000e+00,-2.000000000000000000e+00,-1.000000000000000000e+00,0.000000000000000000e+00,3.854370117187500000e-01,1.201782226562500000e-01,-9.146728515625000000e-01,-2.008056640625000000e-02
1.800000000000000000e+01,1.200000000000000000e+01,7.000000000000000000e+00,-3.000000000000000000e+00,0.000000000000000000e+00,-1.000000000000000000e+00,-6.000000000000000000e+00,3.000000000000000000e+00,3.852539062500000000e-01,1.204833984375000000e-01,-9.147338867187500000e-01,-2.032470703125000000e-02
-2.200000000000000000e+01,-1.400000000000000000e+01,-1.900000000000000000e+01,-1.300000000000000000e+01,-7.000000000000000000e+00,-1.000000000000000000e+00,1.000000000000000000e+00,-9.000000000000000000e+00,3.852539062500000000e-01,1.204833984375000000e-01,-9.147338867187500000e-01,-2.032470703125000000e-02
-6.000000000000000000e+00,-1.500000000000000000e+01,4.000000000000000000e+00,8.000000000000000000e+00,8.000000000000000000e+00,6.000000000000000000e+00,9.000000000000000000e+00,1.000000000000000000e+00,3.852539062500000000e-01,1.204833984375000000e-01,-9.147338867187500000e-01,-2.032470703125000000e-02
-3.000000000000000000e+00,-8.000000000000000000e+00,5.000000000000000000e+00,9.000000000000000000e+00,0.000000000000000000e+00,1.000000000000000000e+00,1.000000000000000000e+00,-2.000000000000000000e+00,3.852539062500000000e-01,1.204833984375000000e-01,-9.147338867187500000e-01,-2.032470703125000000e-02
-3.000000000000000000e+00,-3.000000000000000000e+00,-1.600000000000000000e+01,-6.000000000000000000e+00,6.000000000000000000e+00,0.000000000000000000e+00,1.000000000000000000e+00,-2.000000000000000000e+00,3.852539062500000000e-01,1.203002929687500000e-01,-9.147338867187500000e-01,-2.062988281250000000e-02
8.000000000000000000e+00,1.300000000000000000e+01,2.200000000000000000e+01,3.000000000000000000e+00,2.000000000000000000e+00,-4.000000000000000000e+00,-7.000000000000000000e+00,2.000000000000000000e+00,3.852539062500000000e-01,1.203002929687500000e-01,-9.147338867187500000e-01,-2.062988281250000000e-02
2.000000000000000000e+00,5.000000000000000000e+00,-6.000000000000000000e+00,-2.000000000000000000e+00,-4.000000000000000000e+00,-1.000000000000000000e+00,-5.000000000000000000e+00,2.000000000000000000e+00,3.852539062500000000e-01,1.203002929687500000e-01,-9.147338867187500000e-01,-2.062988281250000000e-02
8.000000000000000000e+00,5.000000000000000000e+00,-4.000000000000000000e+00,-5.000000000000000000e+00,-4.000000000000000000e+00,2.000000000000000000e+00,1.000000000000000000e+00,2.000000000000000000e+00,3.852539062500000000e-01,1.203002929687500000e-01,-9.147338867187500000e-01,-2.062988281250000000e-02
8.000000000000000000e+00,7.000000000000000000e+00,8.000000000000000000e+00,0.000000000000000000e+00,-3.000000000000000000e+00,1.000000000000000000e+00,-3.000000000000000000e+00,-1.000000000000000000e+00,3.852539062500000000e-01,1.207275390625000000e-01,-9.146728515625000000e-01,-2.062988281250000000e-02
1.100000000000000000e+01,5.000000000000000000e+00,-1.000000000000000000e+00,3.000000000000000000e+00,-6.000000000000000000e+00,-2.000000000000000000e+00,0.000000000000000000e+00,1.000000000000000000e+00,3.852539062500000000e-01,1.207275390625000000e-01,-9.146728515625000000e-01,-2.062988281250000000e-02
-3.300000000000000000e+01,-2.400000000000000000e+01,2.200000000000000000e+01,5.000000000000000000e+00,4.000000000000000000e+00,0.000000000000000000e+00,-7.000000000000000000e+00,-7.000000000000000000e+00,3.852539062500000000e-01,1.207275390625000000e-01,-9.146728515625000000e-01,-2.062988281250000000e-02
1.000000000000000000e+00,-1.400000000000000000e+01,-6.000000000000000000e+00,-2.000000000000000000e+00,1.000000000000000000e+00,-4.000000000000000000e+00,-3.000000000000000000e+00,-2.000000000000000000e+00,3.852539062500000000e-01,1.207275390625000000e-01,-9.146728515625000000e-01,-2.062988281250000000e-02
-1.400000000000000000e+01,-1.100000000000000000e+01,-7.000000000000000000e+00,-4.000000000000000000e+00,-3.000000000000000000e+00,-3.000000000000000000e+00,-3.000000000000000000e+00,-3.000000000000000000e+00,3.854980468750000000e-01,1.205444335937500000e-01,-9.146118164062500000e-01,-2.069091796875000000e-02
1.000000000000000000e+01,1.400000000000000000e+01,1.100000000000000000e+01,8.000000000000000000e+00,4.000000000000000000e+00,0.000000000000000000e+00,3.000000000000000000e+00,0.000000000000000000e+00,3.854980468750000000e-01,1.205444335937500000e-01,-9.146118164062500000e-01,-2.069091796875000000e-02
1.100000000000000000e+01,1.300000000000000000e+01,2.000000000000000000e+00,-1.000000000000000000e+00,-2.000000000000000000e+00,-2.000000000000000000e+00,-3.000000000000000000e+00,1.000000000000000000e+00,3.854980468750000000e-01,1.205444335937500000e-01,-9.146118164062500000e-01,-2.069091796875000000e-02
3.000000000000000000e+00,2.000000000000000000e+00,0.000000000000000000e+00,-3.000000000000000000e+00,-1.000000000000000000e+00,0.000000000000000000e+00,0.000000000000000000e+00,0.000000000000000000e+00,3.854980468750000000e-01,1.205444335937500000e-01,-9.146118164062500000e-01,-2.069091796875000000e-02
-8.000000000000000000e+00,-2.000000000000000000e+00,-8.000000000000000000e+00,-3.000000000000000000e+00,-1.000000000000000000e+00,-2.000000000000000000e+00,-3.000000000000000000e+00,0.000000000000000000e+00,3.854980468750000000e-01,1.205444335937500000e-01,-9.146118164062500000e-01,-2.069091796875000000e-02
1.100000000000000000e+01,1.700000000000000000e+01,2.600000000000000000e+01,4.000000000000000000e+00,3.000000000000000000e+00,2.000000000000000000e+00,3.000000000000000000e+00,1.000000000000000000e+00,3.854980468750000000e-01,1.205444335937500000e-01,-9.146118164062500000e-01,-2.069091796875000000e-02
-2.000000000000000000e+00,-1.600000000000000000e+01,-1.700000000000000000e+01,-5.000000000000000000e+00,-6.000000000000000000e+00,-7.000000000000000000e+00,-1.100000000000000000e+01,-3.000000000000000000e+00,3.854980468750000000e-01,1.205444335937500000e-01,-9.146118164062500000e-01,-2.069091796875000000e-02
-1.700000000000000000e+01,-6.000000000000000000e+00,2.200000000000000000e+01,9.000000000000000000e+00,3.000000000000000000e+00,4.000000000000000000e+00,4.000000000000000000e+00,-2.000000000000000000e+00,3.854980468750000000e-01,1.205444335937500000e-01,-9.146118164062500000e-01,-2.069091796875000000e-02
-2.000000000000000000e+00,-2.000000000000000000e+01,-4.800000000000000000e+01,-7.000000000000000000e+00,-2.000000000000000000e+00,-2.000000000000000000e+00,1.000000000000000000e+00,-3.000000000000000000e+00,3.856201171875000000e-01,1.204833984375000000e-01,-9.145507812500000000e-01,-2.056884765625000000e-02
-1.300000000000000000e+01,-8.000000000000000000e+00,5.000000000000000000e+00,-2.000000000000000000e+00,5.000000000000000000e+00,0.000000000000000000e+00,-3.000000000000000000e+00,-1.000000000000000000e+00,3.856201171875000000e-01,1.204833984375000000e-01,-9.145507812500000000e-01,-2.056884765625000000e-02
1.500000000000000000e+01,4.000000000000000000e+00,-3.000000000000000000e+00,-2.000000000000000000e+00,-2.000000000000000000e+00,0.000000000000000000e+00,-1.000000000000000000e+00,1.000000000000000000e+00,3.856201171875000000e-01,1.204833984375000000e-01,-9.145507812500000000e-01,-2.056884765625000000e-02
8.000000000000000000e+00,1.000000000000000000e+01,6.000000000000000000e+00,-2.000000000000000000e+00,-2.000000000000000000e+00,-1.000000000000000000e+00,-4.000000000000000000e+00,-1.000000000000000000e+00,3.856201171875000000e-01,1.204833984375000000e-01,-9.145507812500000000e-01,-2.056884765625000000e-02
-4.000000000000000000e+00,-1.000000000000000000e+00,1.100000000000000000e+01,1.000000000000000000e+00,-6.000000000000000000e+00,-1.000000000000000000e+00,0.000000000000000000e+00,-2.000000000000000000e+00,3.856811523437500000e-01,1.207275390625000000e-01,-9.144897460937500000e-01,-2.032470703125000000e-02
-7.000000000000000000e+00,-6.000000000000000000e+00,-5.000000000000000000e+00,-3.000000000000000000e+00,-2.000000000000000000e+00,-5.000000000000000000e+00,-3.000000000000000000e+00,-4.000000000000000000e+00,3.856811523437500000e-01,1.207275390625000000e-01,-9.144897460937500000e-01,-2.032470703125000000e-02
-1.000000000000000000e+00,1.500000000000000000e+01,1.000000000000000000e+00,5.000000000000000000e+00,2.000000000000000000e+00,3.000000000000000000e+00,1.000000000000000000e+00,1.000000000000000000e+00,3.856811523437500000e-01,1.207275390625000000e-01,-9.144897460937500000e-01,-2.032470703125000000e-02
7.000000000000000000e+00,1.400000000000000000e+01,-1.300000000000000000e+01,-9.000000000000000000e+00,-4.000000000000000000e+00,-3.000000000000000000e+00,-6.000000000000000000e+00,-2.000000000000000000e+00,3.856811523437500000e-01,1.207275390625000000e-01,-9.144897460937500000e-01,-2.032470703125000000e-02
1.000000000000000000e+00,-7.000000000000000000e+00,-4.000000000000000000e+00,7.000000000000000000e+00,2.000000000000000000e+00,0.000000000000000000e+00,2.000000000000000000e+00,4.000000000000000000e+00,3.859252929687500000e-01,1.204833984375000000e-01,-9.144287109375000000e-01,-2.038574218750000000e-02
-1.700000000000000000e+01,-3.300000000000000000e+01,-1.500000000000000000e+01,-4.000000000000000000e+00,-7.000000000000000000e+00,-1.000000000000000000e+00,4.000000000000000000e+00,-2.000000000000000000e+00,3.859252929687500000e-01,1.204833984375000000e-01,-9.144287109375000000e-01,-2.038574218750000000e-02
7.000000000000000000e+00,6.000000000000000000e+00,4.000000000000000000e+01,-5.000000000000000000e+00,-2.000000000000000000e+00,0.000000000000000000e+00,4.000000000000000000e+00,1.000000000000000000e+00,3.859252929687500000e-01,1.204833984375000000e-01,-9.144287109375000000e-01,-2.038574218750000000e-02
1.000000000000000000e+00,-1.400000000000000000e+01,-5.100000000000000000e+01,-8.000000000000000000e+00,-2.000000000000000000e+00,-3.000000000000000000e+00,-4.000000000000000000e+00,-2.000000000000000000e+00,3.859252929687500000e-01,1.204833984375000000e-01,-9.144287109375000000e-01,-2.038574218750000000e-02
4.000000000000000000e+00,9.000000000000000000e+00,3.000000000000000000e+00,-7.000000000000000000e+00,-6.000000000000000000e+00,-3.000000000000000000e+00,-1.000000000000000000e+00,-1.000000000000000000e+00,3.859863281250000000e-01,1.205444335937500000e-01,-9.143676757812500000e-01,-2.020263671875000000e-02
0.000000000000000000e+00,1.100000000000000000e+01,1.000000000000000000e+00,4.000000000000000000e+00,-6.000000000000000000e+00,-6.000000000000000000e+00,-7.000000000000000000e+00,-2.000000000000000000e+00,3.859863281250000000e-01,1.205444335937500000e-01,-9.143676757812500000e-01,-2.020263671875000000e-02
3.000000000000000000e+00,-4.000000000000000000e+00,0.000000000000000000e+00,-3.000000000000000000e+00,5.000000000000000000e+00,0.000000000000000000e+00,4.000000000000000000e+00,-1.000000000000000000e+00,3.859863281250000000e-01,1.205444335937500000e-01,-9.143676757812500000e-01,-2.020263671875000000e-02
3.000000000000000000e+00,1.100000000000000000e+01,3.100000000000000000e+01,1.000000000000000000e+00,9.000000000000000000e+00,3.000000000000000000e+00,0.000000000000000000e+00,-2.000000000000000000e+00,3.859863281250000000e-01,1.205444335937500000e-01,-9.143676757812500000e-01,-2.020263671875000000e-02
-1.000000000000000000e+00,3.000000000000000000e+00,-6.000000000000000000e+00,1.500000000000000000e+01,-2.000000000000000000e+00,-5.000000000000000000e+00,-1.300000000000000000e+01,-2.000000000000000000e+00,3.859863281250000000e-01,1.207885742187500000e-01,-9.143676757812500000e-01,-2.014160156250000000e-02
-1.000000000000000000e+01,-3.100000000000000000e+01,-5.000000000000000000e+00,-1.100000000000000000e+01,-4.000000000000000000e+00,-1.000000000000000000e+00,7.000000000000000000e+00,-5.000000000000000000e+00,3.859863281250000000e-01,1.207885742187500000e-01,-9.143676757812500000e-01,-2.014160156250000000e-02
-1.000000000000000000e+00,1.000000000000000000e+00,-8.000000000000000000e+00,-3.000000000000000000e+00,1.000000000000000000e+00,-4.000000000000000000e+00,0.000000000000000000e+00,0.000000000000000000e+00,3.859863281250000000e-01,1.207885742187500000e-01,-9.143676757812500000e-01,-2.014160156250000000e-02
6.000000000000000000e+00,4.000000000000000000e+00,1.000000000000000000e+00,-1.000000000000000000e+00,-4.000000000000000000e+00,-2.000000000000000000e+00,-3.000000000000000000e+00,0.000000000000000000e+00,3.859863281250000000e-01,1.207885742187500000e-01,-9.143676757812500000e-01,-2.014160156250000000e-02
3.000000000000000000e+00,1.000000000000000000e+00,-2.000000000000000000e+00,-3.000000000000000000e+00,1.000000000000000000e+00,2.000000000000000000e+00,3.000000000000000000e+00,1.000000000000000000e+00,3.858032226562500000e-01,1.214599609375000000e-01,-9.143676757812500000e-01,-2.014160156250000000e-02
-2.000000000000000000e+00,6.000000000000000000e+00,0.000000000000000000e+00,2.000000000000000000e+00,3.000000000000000000e+00,1.000000000000000000e+00,-6.000000000000000000e+00,-1.000000000000000000e+00,3.858032226562500000e-01,1.214599609375000000e-01,-9.143676757812500000e-01,-2.014160156250000000e-02
5.000000000000000000e+00,2.000000000000000000e+00,-3.000000000000000000e+00,2.000000000000000000e+00,-3.000000000000000000e+00,-1.000000000000000000e+00,0.000000000000000000e+00,-2.000000000000000000e+00,3.858032226562500000e-01,1.214599609375000000e-01,-9.143676757812500000e-01,-2.014160156250000000e-02
1.000000000000000000e+00,-5.000000000000000000e+00,-2.000000000000000000e+00,2.000000000000000000e+00,0.000000000000000000e+00,5.000000000000000000e+00,2.000000000000000000e+00,2.000000000000000000e+00,3.858032226562500000e-01,1.214599609375000000e-01,-9.143676757812500000e-01,-2.014160156250000000e-02
-2.000000000000000000e+00,5.000000000000000000e+00,8.000000000000000000e+00,0.000000000000000000e+00,0.000000000000000000e+00,0.000000000000000000e+00,1.000000000000000000e+00,-1.000000000000000000e+00,3.857421875000000000e-01,1.212158203125000000e-01,-9.144287109375000000e-01,-2.044677734375000000e-02
1.600000000000000000e+01,9.000000000000000000e+00,6.000000000000000000e+00,-3.000000000000000000e+00,1.000000000000000000e+00,0.000000000000000000e+00,-6.000000000000000000e+00,1.000000000000000000e+00,3.857421875000000000e-01,1.212158203125000000e-01,-9.144287109375000000e-01,-2.044677734375000000e-02
-3.600000000000000000e+01,-1.100000000000000000e+01,-2.000000000000000000e+00,-2.000000000000000000e+00,-2.000000000000000000e+00,1.000000000000000000e+00,4.000000000000000000e+00,-4.000000000000000000e+00,3.857421875000000000e-01,1.212158203125000000e-01,-9.144287109375000000e-01,-2.044677734375000000e-02
-1.200000000000000000e+01,-3.700000000000000000e+01,-1.300000000000000000e+01,-1.000000000000000000e+01,-1.000000000000000000e+01,-5.000000000000000000e+00,-5.000000000000000000e+00,-4.000000000000000000e+00,3.857421875000000000e-01,1.212158203125000000e-01,-9.144287109375000000e-01,-2.044677734375000000e-02
-6.000000000000000000e+00,-3.000000000000000000e+00,-1.800000000000000000e+01,-6.000000000000000000e+00,1.000000000000000000e+00,3.000000000000000000e+00,6.000000000000000000e+00,-2.000000000000000000e+00,3.857421875000000000e-01,1.210327148437500000e-01,-9.144287109375000000e-01,-2.026367187500000000e-02
6.000000000000000000e+00,1.400000000000000000e+01,1.800000000000000000e+01,5.000000000000000000e+00,5.000000000000000000e+00,1.000000000000000000e+00,-3.000000000000000000e+00,0.000000000000000000e+00,3.857421875000000000e-01,1.210327148437500000e-01,-9.144287109375000000e-01,-2.026367187500000000e-02
2.000000000000000000e+01,2.000000000000000000e+00,-3.100000000000000000e+01,-1.000000000000000000e+00,0.000000000000000000e+00,1.000000000000000000e+00,3.000000000000000000e+00,5.000000000000000000e+00,3.857421875000000000e-01,1.210327148437500000e-01,-9.144287109375000000e-01,-2.026367187500000000e-02
-6.000000000000000000e+00,0.000000000000000000e+00,-3.000000000000000000e+00,-1.000000000000000000e+00,-6.000000000000000000e+00,-6.000000000000000000e+00,-9.000000000000000000e+00,-2.000000000000000000e+00,3.857421875000000000e-01,1.210327148437500000e-01,-9.144287109375000000e-01,-2.026367187500000000e-02
-1.000000000000000000e+00,1.100000000000000000e+01,1.700000000000000000e+01,0.000000000000000000e+00,0.000000000000000000e+00,3.000000000000000000e+00,6.000000000000000000e+00,1.000000000000000000e+00,3.857421875000000000e-01,1.213989257812500000e-01,-9.143676757812500000e-01,-1.977539062500000000e-02
4.000000000000000000e+00,-7.000000000000000000e+00,-1.500000000000000000e+01,-7.000000000000000000e+00,-3.000000000000000000e+00,-7.000000000000000000e+00,-4.000000000000000000e+00,-2.000000000000000000e+00,3.857421875000000000e-01,1.213989257812500000e-01,-9.143676757812500000e-01,-1.977539062500000000e-02
-7.000000000000000000e+00,1.000000000000000000e+00,-1.000000000000000000e+00,1.000000000000000000e+00,0.000000000000000000e+00,-1.000000000000000000e+00,-2.000000000000000000e+00,-1.000000000000000000e+00,3.857421875000000000e-01,1.213989257812500000e-01,-9.143676757812500000e-01,-1.977539062500000000e-02
7.000000000000000000e+00,3.000000000000000000e+00,1.000000000000000000e+00,1.000000000000000000e+00,0.000000000000000000e+00,0.000000000000000000e+00,5.000000000000000000e+00,2.000000000000000000e+00,3.857421875000000000e-01,1.213989257812500000e-01,-9.143676757812500000e-01,-1.977539062500000000e-02
-1.000000000000000000e+00,-7.000000000000000000e+00,-3.000000000000000000e+00,-8.000000000000000000e+00,-9.000000000000000000e+00,-5.000000000000000000e+00,-1.000000000000000000e+00,-5.000000000000000000e+00,3.859252929687500000e-01,1.217651367187500000e-01,-9.142456054687500000e-01,-1.947021484375000000e-02
-5.000000000000000000e+00,5.000000000000000000e+00,-6.000000000000000000e+00,-1.000000000000000000e+00,5.000000000000000000e+00,2.000000000000000000e+00,3.000000000000000000e+00,0.000000000000000000e+00,3.859252929687500000e-01,1.217651367187500000e-01,-9.142456054687500000e-01,-1.947021484375000000e-02
1.100000000000000000e+01,1.000000000000000000e+01,1.900000000000000000e+01,7.000000000000000000e+00,3.000000000000000000e+00,1.000000000000000000e+00,0.000000000000000000e+00,-1.000000000000000000e+00,3.859252929687500000e-01,1.217651367187500000e-01,-9.142456054687500000e-01,-1.947021484375000000e-02
2.000000000000000000e+00,8.000000000000000000e+00,-5.200000000000000000e+01,-5.000000000000000000e+00,-3.000000000000000000e+00,1.000000000000000000e+00,-1.000000000000000000e+00,0.000000000000000000e+00,3.859252929687500000e-01,1.217651367187500000e-01,-9.142456054687500000e-01,-1.947021484375000000e-02
-2.000000000000000000e+00,-1.100000000000000000e+01,2.800000000000000000e+01,-7.000000000000000000e+00,-6.000000000000000000e+00,-1.000000000000000000e+00,0.000000000000000000e+00,3.000000000000000000e+00,3.860473632812500000e-01,1.213989257812500000e-01,-9.142456054687500000e-01,-1.965332031250000000e-02
-7.000000000000000000e+00,-2.000000000000000000e+01,-3.500000000000000000e+01,7.000000000000000000e+00,-2.000000000000000000e+00,-3.000000000000000000e+00,0.000000000000000000e+00,-3.000000000000000000e+00,3.860473632812500000e-01,1.213989257812500000e-01,-9.142456054687500000e-01,-1.965332031250000000e-02
-2.400000000000000000e+01,-1.200000000000000000e+01,-4.000000000000000000e+00,-5.000000000000000000e+00,-3.000000000000000000e+00,-1.000000000000000000e+00,-6.000000000000000000e+00,-4.000000000000000000e+00,3.860473632812500000e-01,1.213989257812500000e-01,-9.142456054687500000e-01,-1.965332031250000000e-02
-2.000000000000000000e+00,3.000000000000000000e+00,-1.000000000000000000e+00,-4.000000000000000000e+00,1.000000000000000000e+00,-1.000000000000000000e+00,4.000000000000000000e+00,-3.000000000000000000e+00,3.860473632812500000e-01,1.213989257812500000e-01,-9.142456054687500000e-01,-1.965332031250000000e-02
-1.000000000000000000e+00,9.000000000000000000e+00,3.000000000000000000e+00,4.000000000000000000e+00,9.000000000000000000e+00,1.000000000000000000e+00,-2.000000000000000000e+00,0.000000000000000000e+00,3.861083984375000000e-01,1.213989257812500000e-01,-9.142456054687500000e-01,-1.965332031250000000e-02
-2.000000000000000000e+00,-3.000000000000000000e+00,1.000000000000000000e+00,-3.000000000000000000e+00,0.000000000000000000e+00,0.000000000000000000e+00,2.000000000000000000e+00,-1.000000000000000000e+00,3.861083984375000000e-01,1.213989257812500000e-01,-9.142456054687500000e-01,-1.965332031250000000e-02
1.000000000000000000e+01,8.000000000000000000e+00,-7.000000000000000000e+00,1.000000000000000000e+00,0.000000000000000000e+00,2.000000000000000000e+00,-3.000000000000000000e+00,-1.000000000000000000e+00,3.861083984375000000e-01,1.213989257812500000e-01,-9.142456054687500000e-01,-1.965332031250000000e-02
-5.000000000000000000e+00,-6.000000000000000000e+00,8.000000000000000000e+00,-1.000000000000000000e+00,-4.000000000000000000e+00,-4.000000000000000000e+00,-6.000000000000000000e+00,0.000000000000000000e+00,3.861083984375000000e-01,1.213989257812500000e-01,-9.142456054687500000e-01,-1.965332031250000000e-02
6.000000000000000000e+00,1.100000000000000000e+01,2.000000000000000000e+00,-1.000000000000000000e+00,0.000000000000000000e+00,-2.000000000000000000e+00,-2.000000000000000000e+00,3.000000000000000000e+00,3.859252929687500000e-01,1.215209960937500000e-01,-9.143066406250000000e-01,-1.971435546875000000e-02
-1.600000000000000000e+01,-4.000000000000000000e+00,5.000000000000000000e+00,-3.000000000000000000e+00,0.000000000000000000e+00,0.000000000000000000e+00,3.000000000000000000e+00,-3.000000000000000000e+00,3.859252929687500000e-01,1.215209960937500000e-01,-9.143066406250000000e-01,-1.971435546875000000e-02
2.000000000000000000e+00,-1.000000000000000000e+00,-1.300000000000000000e+01,-4.000000000000000000e+00,-7.000000000000000000e+00,-5.000000000000000000e+00,-4.000000000000000000e+00,-6.000000000000000000e+00,3.859252929687500000e-01,1.215209960937500000e-01,-9.143066406250000000e-01,-1.971435546875000000e-02
2.000000000000000000e+00,0.000000000000000000e+00,2.400000000000000000e+01,4.000000000000000000e+00,0.000000000000000000e+00,-2.000000000000000000e+00,3.000000000000000000e+00,-1.000000000000000000e+00,3.859252929687500000e-01,1.215209960937500000e-01,-9.143066406250000000e-01,-1.971435546875000000e-02
6.000000000000000000e+00,-7.000000000000000000e+00,-7.000000000000000000e+00,1.000000000000000000e+00,1.000000000000000000e+00,0.000000000000000000e+00,-3.000000000000000000e+00,-3.000000000000000000e+00,3.857421875000000000e-01,1.217651367187500000e-01,-9.143676757812500000e-01,-1.977539062500000000e-02
-1.100000000000000000e+01,7.000000000000000000e+00,-2.000000000000000000e+00,0.000000000000000000e+00,-1.000000000000000000e+00,-1.000000000000000000e+00,-5.000000000000000000e+00,2.000000000000000000e+00,3.857421875000000000e-01,1.217651367187500000e-01,-9.143676757812500000e-01,-1.977539062500000000e-02
7.000000000000000000e+00,1.200000000000000000e+01,8.000000000000000000e+00,-3.000000000000000000e+00,1.000000000000000000e+00,-1.000000000000000000e+00,6.000000000000000000e+00,3.000000000000000000e+00,3.857421875000000000e-01,1.217651367187500000e-01,-9.143676757812500000e-01,-1.977539062500000000e-02
4.000000000000000000e+00,1.000000000000000000e+00,-1.000000000000000000e+00,-1.000000000000000000e+00,1.000000000000000000e+00,1.000000000000000000e+00,-6.000000000000000000e+00,-3.000000000000000000e+00,3.857421875000000000e-01,1.217651367187500000e-01,-9.143676757812500000e-01,-1.977539062500000000e-02
-1.500000000000000000e+01,-1.900000000000000000e+01,-1.000000000000000000e+00,7.000000000000000000e+00,-2.000000000000000000e+00,-3.000000000000000000e+00,-6.000000000000000000e+00,-6.000000000000000000e+00,3.853149414062500000e-01,1.218872070312500000e-01,-9.144897460937500000e-01,-1.977539062500000000e-02
-2.000000000000000000e+00,0.000000000000000000e+00,0.000000000000000000e+00,0.000000000000000000e+00,0.000000000000000000e+00,1.000000000000000000e+00,-4.000000000000000000e+00,0.000000000000000000e+00,3.853149414062500000e-01,1.218872070312500000e-01,-9.144897460937500000e-01,-1.977539062500000000e-02
3.000000000000000000e+00,1.000000000000000000e+00,-2.000000000000000000e+00,2.000000000000000000e+00,1.000000000000000000e+00,0.000000000000000000e+00,1.000000000000000000e+00,1.000000000000000000e+00,3.853149414062500000e-01,1.218872070312500000e-01,-9.144897460937500000e-01,-1.977539062500000000e-02
-1.000000000000000000e+00,-8.000000000000000000e+00,1.000000000000000000e+01,-7.000000000000000000e+00,4.000000000000000000e+00,2.000000000000000000e+00,3.000000000000000000e+00,2.000000000000000000e+00,3.853149414062500000e-01,1.218872070312500000e-01,-9.144897460937500000e-01,-1.977539062500000000e-02
7.000000000000000000e+00,4.000000000000000000e+00,-1.000000000000000000e+01,-5.000000000000000000e+00,-4.000000000000000000e+00,-4.000000000000000000e+00,-6.000000000000000000e+00,-3.000000000000000000e+00,3.853149414062500000e-01,1.219482421875000000e-01,-9.144897460937500000e-01,-1.977539062500000000e-02
-6.000000000000000000e+00,2.300000000000000000e+01,3.000000000000000000e+01,5.000000000000000000e+00,3.000000000000000000e+00,5.000000000000000000e+00,4.000000000000000000e+00,0.000000000000000000e+00,3.853149414062500000e-01,1.219482421875000000e-01,-9.144897460937500000e-01,-1.977539062500000000e-02
-4.000000000000000000e+00,-1.500000000000000000e+01,-4.500000000000000000e+01,-1.700000000000000000e+01,-9.000000000000000000e+00,-6.000000000000000000e+00,-5.000000000000000000e+00,-1.000000000000000000e+00,3.853149414062500000e-01,1.219482421875000000e-01,-9.144897460937500000e-01,-1.977539062500000000e-02
-7.000000000000000000e+00,0.000000000000000000e+00,2.200000000000000000e+01,4.000000000000000000e+00,-1.000000000000000000e+01,-4.000000000000000000e+00,2.000000000000000000e+00,0.000000000000000000e+00,3.853149414062500000e-01,1.219482421875000000e-01,-9.144897460937500000e-01,-1.977539062500000000e-02
5.000000000000000000e+00,0.000000000000000000e+00,-9.000000000000000000e+00,0.000000000000000000e+00,1.200000000000000000e+01,4.000000000000000000e+00,1.000000000000000000e+00,-1.000000000000000000e+00,3.853149414062500000e-01,1.218261718750000000e-01,-9.144897460937500000e-01,-1.989746093750000000e-02
2.000000000000000000e+00,-1.000000000000000000e+01,-3.000000000000000000e+00,-7.000000000000000000e+00,-7.000000000000000000e+00,-3.000000000000000000e+00,-3.000000000000000000e+00,-3.000000000000000000e+00,3.853149414062500000e-01,1.218261718750000000e-01,-9.144897460937500000e-01,-1.989746093750000000e-02
5.000000000000000000e+00,4.000000000000000000e+00,5.000000000000000000e+00,0.000000000000000000e+00,5.000000000000000000e+00,2.000000000000000000e+00,-1.000000000000000000e+00,0.000000000000000000e+00,3.853149414062500000e-01,1.218261718750000000e-01,-9.144897460937500000e-01,-1.989746093750000000e-02
-1.000000000000000000e+00,1.000000000000000000e+00,-3.000000000000000000e+00,-6.000000000000000000e+00,-7.000000000000000000e+00,-2.000000000000000000e+00,1.000000000000000000e+00,-1.000000000000000000e+00,3.853149414062500000e-01,1.218261718750000000e-01,-9.144897460937500000e-01,-1.989746093750000000e-02
5.000000000000000000e+00,7.000000000000000000e+00,0.000000000000000000e+00,-4.000000000000000000e+00,-6.000000000000000000e+00,-3.000000000000000000e+00,-3.000000000000000000e+00,-1.000000000000000000e+00,3.853149414062500000e-01,1.213989257812500000e-01,-9.145507812500000000e-01,-2.001953125000000000e-02
4.000000000000000000e+00,2.000000000000000000e+00,-4.000000000000000000e+00,-4.000000000000000000e+00,-2.000000000000000000e+00,-3.000000000000000000e+00,-2.000000000000000000e+00,1.000000000000000000e+00,3.853149414062500000e-01,1.213989257812500000e-01,-9.145507812500000000e-01,-2.001953125000000000e-02
-1.300000000000000000e+01,1.700000000000000000e+01,2.500000000000000000e+01,4.000000000000000000e+00,3.000000000000000000e+00,0.000000000000000000e+00,1.000000000000000000e+00,-1.000000000000000000e+00,3.853149414062500000e-01,1.213989257812500000e-01,-9.145507812500000000e-01,-2.001953125000000000e-02
-2.200000000000000000e+01,-5.300000000000000000e+01,-3.700000000000000000e+01,0.000000000000000000e+00,-5.000000000000000000e+00,-4.000000000000000000e+00,-2.000000000000000000e+00,-4.000000000000000000e+00,3.853149414062500000e-01,1.213989257812500000e-01,-9.145507812500000000e-01,-2.001953125000000000e-02
-2.000000000000000000e+00,1.000000000000000000e+00,2.000000000000000000e+00,3.000000000000000000e+00,7.000000000000000000e+00,1.000000000000000000e+00,-1.000000000000000000e+00,1.000000000000000000e+00,3.853759765625000000e-01,1.209716796875000000e-01,-9.146118164062500000e-01,-1.983642578125000000e-02
6.000000000000000000e+00,-1.600000000000000000e+01,-2.400000000000000000e+01,-1.100000000000000000e+01,-3.000000000000000000e+00,0.000000000000000000e+00,-1.000000000000000000e+00,-2.000000000000000000e+00,3.853759765625000000e-01,1.209716796875000000e-01,-9.146118164062500000e-01,-1.983642578125000000e-02
1.000000000000000000e+01,-1.000000000000000000e+00,4.000000000000000000e+00,-1.000000000000000000e+00,-3.000000000000000000e+00,0.000000000000000000e+00,-3.000000000000000000e+00,-1.000000000000000000e+00,3.853759765625000000e-01,1.209716796875000000e-01,-9.146118164062500000e-01,-1.983642578125000000e-02
1.000000000000000000e+00,1.800000000000000000e+01,6.000000000000000000e+00,-2.000000000000000000e+00,-1.000000000000000000e+00,-1.000000000000000000e+00,-2.000000000000000000e+00,0.000000000000000000e+00,3.853759765625000000e-01,1.209716796875000000e-01,-9.146118164062500000e-01,-1.983642578125000000e-02
-3.000000000000000000e+00,-8.000000000000000000e+00,-1.200000000000000000e+01,-6.000000000000000000e+00,-5.000000000000000000e+00,-2.000000000000000000e+00,2.000000000000000000e+00,0.000000000000000000e+00,3.854370117187500000e-01,1.210937500000000000e-01,-9.145507812500000000e-01,-1.934814453125000000e-02
8.000000000000000000e+00,1.500000000000000000e+01,1.100000000000000000e+01,-1.000000000000000000e+00,-5.000000000000000000e+00,1.000000000000000000e+00,0.000000000000000000e+00,-1.000000000000000000e+00,3.854370117187500000e-01,1.210937500000000000e-01,-9.145507812500000000e-01,-1.934814453125000000e-02
-1.800000000000000000e+01,-2.000000000000000000e+00,5.000000000000000000e+00,9.000000000000000000e+00,2.000000000000000000e+00,-2.000000000000000000e+00,2.000000000000000000e+00,-2.000000000000000000e+00,3.854370117187500000e-01,1.210937500000000000e-01,-9.145507812500000000e-01,-1.934814453125000000e-02
4.000000000000000000e+00,3.000000000000000000e+00,-1.000000000000000000e+00,0.000000000000000000e+00,2.000000000000000000e+00,-1.000000000000000000e+00,-3.000000000000000000e+00,-1.000000000000000000e+00,3.854370117187500000e-01,1.210937500000000000e-01,-9.145507812500000000e-01,-1.934814453125000000e-02
-6.000000000000000000e+00,-1.400000000000000000e+01,-2.300000000000000000e+01,-5.000000000000000000e+00,-8.000000000000000000e+00,-3.000000000000000000e+00,2.000000000000000000e+00,-1.000000000000000000e+00,3.855590820312500000e-01,1.211547851562500000e-01,-9.144897460937500000e-01,-1.892089843750000000e-02
2.000000000000000000e+00,7.000000000000000000e+00,8.000000000000000000e+00,1.000000000000000000e+00,4.000000000000000000e+00,-4.000000000000000000e+00,-2.000000000000000000e+00,2.000000000000000000e+00,3.855590820312500000e-01,1.211547851562500000e-01,-9.144897460937500000e-01,-1.892089843750000000e-02
7.000000000000000000e+00,-2.000000000000000000e+00,-3.000000000000000000e+00,-4.000000000000000000e+00,-3.000000000000000000e+00,-2.000000000000000000e+00,-3.000000000000000000e+00,0.000000000000000000e+00,3.855590820312500000e-01,1.211547851562500000e-01,-9.144897460937500000e-01,-1.892089843750000000e-02
0.000000000000000000e+00,1.000000000000000000e+00,3.000000000000000000e+00,2.000000000000000000e+00,2.000000000000000000e+00,-3.000000000000000000e+00,-3.000000000000000000e+00,0.000000000000000000e+00,3.855590820312500000e-01,1.211547851562500000e-01,-9.144897460937500000e-01,-1.892089843750000000e-02
-6.000000000000000000e+00,-1.000000000000000000e+00,1.100000000000000000e+01,-4.000000000000000000e+00,-6.000000000000000000e+00,-2.000000000000000000e+00,-2.000000000000000000e+00,-1.000000000000000000e+00,3.858032226562500000e-01,1.213989257812500000e-01,-9.143676757812500000e-01,-1.873779296875000000e-02
1.700000000000000000e+01,2.900000000000000000e+01,1.200000000000000000e+01,1.500000000000000000e+01,-1.000000000000000000e+00,0.000000000000000000e+00,-1.000000000000000000e+00,2.000000000000000000e+00,3.858032226562500000e-01,1.213989257812500000e-01,-9.143676757812500000e-01,-1.873779296875000000e-02
-1.600000000000000000e+01,-1.500000000000000000e+01,-1.200000000000000000e+01,-1.800000000000000000e+01,1.000000000000000000e+00,-3.000000000000000000e+00,-4.000000000000000000e+00,-5.000000000000000000e+00,3.858032226562500000e-01,1.213989257812500000e-01,-9.143676757812500000e-01,-1.873779296875000000e-02
-8.000000000000000000e+00,-5.100000000000000000e+01,-3.000000000000000000e+01,-5.000000000000000000e+00,1.000000000000000000e+00,0.000000000000000000e+00,0.000000000000000000e+00,-5.000000000000000000e+00,3.858032226562500000e-01,1.213989257812500000e-01,-9.143676757812500000e-01,-1.873779296875000000e-02
-2.000000000000000000e+00,-6.000000000000000000e+00,4.000000000000000000e+00,-4.000000000000000000e+00,-2.000000000000000000e+00,-2.000000000000000000e+00,-6.000000000000000000e+00,-4.000000000000000000e+00,3.861083984375000000e-01,1.207885742187500000e-01,-9.143066406250000000e-01,-1.904296875000000000e-02
-9.000000000000000000e+00,-8.000000000000000000e+00,-1.000000000000000000e+00,1.000000000000000000e+00,2.000000000000000000e+00,-1.000000000000000000e+00,-3.000000000000000000e+00,-4.000000000000000000e+00,3.861083984375000000e-01,1.207885742187500000e-01,-9.143066406250000000e-01,-1.904296875000000000e-02
1.400000000000000000e+01,1.000000000000000000e+01,7.000000000000000000e+00,3.000000000000000000e+00,-3.000000000000000000e+00,1.000000000000000000e+00,-2.000000000000000000e+00,4.000000000000000000e+00,3.861083984375000000e-01,1.207885742187500000e-01,-9.143066406250000000e-01,-1.904296875000000000e-02
9.000000000000000000e+00,2.800000000000000000e+01,1.100000000000000000e+01,1.000000000000000000e+00,2.000000000000000000e+00,2.000000000000000000e+00,2.000000000000000000e+00,2.000000000000000000e+00,3.861083984375000000e-01,1.207885742187500000e-01,-9.143066406250000000e-01,-1.904296875000000000e-02
-7.000000000000000000e+00,-3.000000000000000000e+00,1.000000000000000000e+00,-1.000000000000000000e+00,-3.000000000000000000e+00,0.000000000000000000e+00,0.000000000000000000e+00,0.000000000000000000e+00,3.862915039062500000e-01,1.203002929687500000e-01,-9.143066406250000000e-01,-1.898193359375000000e-02
1.000000000000000000e+00,-1.000000000000000000e+01,-1.300000000000000000e+01,-6.000000000000000000e+00,-9.000000000000000000e+00,-5.000000000000000000e+00,2.000000000000000000e+00,2.000000000000000000e+00,3.862915039062500000e-01,1.203002929687500000e-01,-9.143066406250000000e-01,-1.898193359375000000e-02
