-1.000000000000000000e+00,5.000000000000000000e+00,2.900000000000000000e+01,5.000000000000000000e+00,-1.000000000000000000e+00,2.000000000000000000e+00,2.000000000000000000e+01,0.000000000000000000e+00,3.716430664062500000e-01,2.288208007812500000e-01,-8.929443359375000000e-01,1.101684570312500000e-01
-3.000000000000000000e+00,-2.000000000000000000e+00,-4.300000000000000000e+01,1.600000000000000000e+01,1.000000000000000000e+00,-3.000000000000000000e+00,-2.000000000000000000e+00,-2.000000000000000000e+00,3.716430664062500000e-01,2.288208007812500000e-01,-8.929443359375000000e-01,1.101684570312500000e-01
-1.000000000000000000e+00,1.000000000000000000e+00,3.800000000000000000e+01,2.500000000000000000e+01,7.000000000000000000e+00,8.000000000000000000e+00,6.000000000000000000e+00,-2.000000000000000000e+00,3.716430664062500000e-01,2.288208007812500000e-01,-8.929443359375000000e-01,1.101684570312500000e-01
-4.000000000000000000e+00,-4.000000000000000000e+00,-1.500000000000000000e+01,-3.000000000000000000e+01,-7.000000000000000000e+00,-9.000000000000000000e+00,-7.000000000000000000e+00,-1.000000000000000000e+00,3.716430664062500000e-01,2.288208007812500000e-01,-8.929443359375000000e-01,1.101684570312500000e-01
2.000000000000000000e+00,-2.000000000000000000e+00,9.000000000000000000e+00,8.000000000000000000e+00,1.000000000000000000e+00,2.000000000000000000e+00,-5.000000000000000000e+00,-1.000000000000000000e+00,3.711547851562500000e-01,2.290039062500000000e-01,-8.931274414062500000e-01,1.102294921875000000e-01
-2.000000000000000000e+00,0.000000000000000000e+00,-1.100000000000000000e+01,-2.300000000000000000e+01,-9.000000000000000000e+00,-5.000000000000000000e+00,0.000000000000000000e+00,-3.000000000000000000e+00,3.711547851562500000e-01,2.290039062500000000e-01,-8.931274414062500000e-01,1.102294921875000000e-01
-1.000000000000000000e+00,-1.000000000000000000e+00,-3.000000000000000000e+00,2.600000000000000000e+01,4.000000000000000000e+00,3.000000000000000000e+00,4.000000000000000000e+00,2.000000000000000000e+00,3.711547851562500000e-01,2.290039062500000000e-01,-8.931274414062500000e-01,1.102294921875000000e-01
-1.000000000000000000e+00,4.000000000000000000e+00,-8.000000000000000000e+00,-2.100000000000000000e+01,1.000000000000000000e+00,-3.000000000000000000e+00,5.000000000000000000e+00,-1.000000000000000000e+00,3.711547851562500000e-01,2.290039062500000000e-01,-8.931274414062500000e-01,1.102294921875000000e-01
-3.000000000000000000e+00,0.000000000000000000e+00,1.600000000000000000e+01,2.000000000000000000e+00,-3.000000000000000000e+00,-1.000000000000000000e+00,-4.000000000000000000e+00,0.000000000000000000e+00,3.708496093750000000e-01,2.286987304687500000e-01,-8.933105468750000000e-01,1.101684570312500000e-01
3.000000000000000000e+00,-5.000000000000000000e+00,-1.500000000000000000e+01,-1.100000000000000000e+01,1.000000000000000000e+00,2.000000000000000000e+00,0.000000000000000000e+00,0.000000000000000000e+00,3.708496093750000000e-01,2.286987304687500000e-01,-8.933105468750000000e-01,1.101684570312500000e-01
1.000000000000000000e+00,1.000000000000000000e+00,2.300000000000000000e+01,-2.900000000000000000e+01,-6.000000000000000000e+00,-4.000000000000000000e+00,-4.000000000000000000e+00,-1.000000000000000000e+00,3.708496093750000000e-01,2.286987304687500000e-01,-8.933105468750000000e-01,1.101684570312500000e-01
-5.000000000000000000e+00,-3.000000000000000000e+00,-5.100000000000000000e+01,2.000000000000000000e+01,-3.000000000000000000e+00,0.000000000000000000e+00,-2.000000000000000000e+00,-4.000000000000000000e+00,3.708496093750000000e-01,2.286987304687500000e-01,-8.933105468750000000e-01,1.101684570312500000e-01
2.000000000000000000e+00,-4.000000000000000000e+00,5.400000000000000000e+01,1.100000000000000000e+01,-2.000000000000000000e+00,-3.000000000000000000e+00,-1.000000000000000000e+00,-4.000000000000000000e+00,3.706665039062500000e-01,2.282714843750000000e-01,-8.934936523437500000e-01,1.102905273437500000e-01
-5.000000000000000000e+00,1.000000000000000000e+01,-5.000000000000000000e+00,-3.000000000000000000e+01,-3.000000000000000000e+00,3.000000000000000000e+00,-4.000000000000000000e+00,1.000000000000000000e+00,3.706665039062500000e-01,2.282714843750000000e-01,-8.934936523437500000e-01,1.102905273437500000e-01
-3.000000000000000000e+00,-9.000000000000000000e+00,-3.900000000000000000e+01,0.000000000000000000e+00,1.000000000000000000e+00,-3.000000000000000000e+00,0.000000000000000000e+00,-1.000000000000000000e+00,3.706665039062500000e-01,2.282714843750000000e-01,-8.934936523437500000e-01,1.102905273437500000e-01
0.000000000000000000e+00,5.000000000000000000e+00,2.100000000000000000e+01,8.000000000000000000e+00,1.000000000000000000e+00,1.000000000000000000e+00,9.000000000000000000e+00,0.000000000000000000e+00,3.706665039062500000e-01,2.282714843750000000e-01,-8.934936523437500000e-01,1.102905273437500000e-01
2.000000000000000000e+00,4.000000000000000000e+00,3.000000000000000000e+00,1.000000000000000000e+00,5.000000000000000000e+00,2.000000000000000000e+00,-6.000000000000000000e+00,1.000000000000000000e+00,3.704833984375000000e-01,2.286376953125000000e-01,-8.934326171875000000e-01,1.105957031250000000e-01
0.000000000000000000e+00,-6.000000000000000000e+00,2.100000000000000000e+01,2.900000000000000000e+01,-1.000000000000000000e+00,-2.000000000000000000e+00,-2.000000000000000000e+00,0.000000000000000000e+00,3.704833984375000000e-01,2.286376953125000000e-01,-8.934326171875000000e-01,1.105957031250000000e-01
-1.000000000000000000e+00,3.000000000000000000e+00,2.000000000000000000e+00,-1.700000000000000000e+01,-4.000000000000000000e+00,4.000000000000000000e+00,4.000000000000000000e+00,-1.000000000000000000e+00,3.704833984375000000e-01,2.286376953125000000e-01,-8.934326171875000000e-01,1.105957031250000000e-01
-1.000000000000000000e+00,-5.000000000000000000e+00,-6.800000000000000000e+01,-3.500000000000000000e+01,-2.000000000000000000e+00,2.000000000000000000e+00,1.200000000000000000e+01,-4.000000000000000000e+00,3.704833984375000000e-01,2.286376953125000000e-01,-8.934326171875000000e-01,1.105957031250000000e-01
-2.000000000000000000e+00,-1.000000000000000000e+00,1.700000000000000000e+01,8.000000000000000000e+00,-1.000000000000000000e+00,-1.000000000000000000e+00,-6.000000000000000000e+00,-1.000000000000000000e+00,3.701171875000000000e-01,2.288208007812500000e-01,-8.935546875000000000e-01,1.108398437500000000e-01
4.000000000000000000e+00,1.000000000000000000e+00,2.000000000000000000e+01,7.000000000000000000e+00,3.000000000000000000e+00,-3.000000000000000000e+00,-3.000000000000000000e+00,1.000000000000000000e+00,3.701171875000000000e-01,2.288208007812500000e-01,-8.935546875000000000e-01,1.108398437500000000e-01
-4.000000000000000000e+00,-2.000000000000000000e+00,-6.000000000000000000e+00,5.000000000000000000e+00,-3.000000000000000000e+00,-2.000000000000000000e+00,1.700000000000000000e+01,-2.000000000000000000e+00,3.701171875000000000e-01,2.288208007812500000e-01,-8.935546875000000000e-01,1.108398437500000000e-01
0.000000000000000000e+00,0.000000000000000000e+00,2.000000000000000000e+01,3.000000000000000000e+00,0.000000000000000000e+00,1.000000000000000000e+00,2.000000000000000000e+00,-1.000000000000000000e+00,3.701171875000000000e-01,2.288208007812500000e-01,-8.935546875000000000e-01,1.108398437500000000e-01
-2.000000000000000000e+00,-1.000000000000000000e+00,-2.900000000000000000e+01,-9.000000000000000000e+00,2.000000000000000000e+00,0.000000000000000000e+00,-1.100000000000000000e+01,-2.000000000000000000e+00,3.698120117187500000e-01,2.290039062500000000e-01,-8.935546875000000000e-01,1.109619140625000000e-01
0.000000000000000000e+00,-1.000000000000000000e+00,-9.000000000000000000e+00,-3.000000000000000000e+00,-6.000000000000000000e+00,-5.000000000000000000e+00,-1.100000000000000000e+01,-4.000000000000000000e+00,3.698120117187500000e-01,2.290039062500000000e-01,-8.935546875000000000e-01,1.109619140625000000e-01
-4.000000000000000000e+00,-7.000000000000000000e+00,1.100000000000000000e+01,-1.000000000000000000e+00,-4.000000000000000000e+00,4.000000000000000000e+00,2.300000000000000000e+01,-1.000000000000000000e+00,3.698120117187500000e-01,2.290039062500000000e-01,-8.935546875000000000e-01,1.109619140625000000e-01
0.000000000000000000e+00,5.000000000000000000e+00,2.700000000000000000e+01,1.300000000000000000e+01,9.000000000000000000e+00,3.000000000000000000e+00,2.000000000000000000e+00,2.000000000000000000e+00,3.698120117187500000e-01,2.290039062500000000e-01,-8.935546875000000000e-01,1.109619140625000000e-01
-2.000000000000000000e+00,-3.000000000000000000e+00,-1.700000000000000000e+01,0.000000000000000000e+00,4.000000000000000000e+00,-1.000000000000000000e+00,1.000000000000000000e+00,-1.000000000000000000e+00,3.696899414062500000e-01,2.288818359375000000e-01,-8.936767578125000000e-01,1.110229492187500000e-01
-2.000000000000000000e+00,1.000000000000000000e+00,7.000000000000000000e+00,1.000000000000000000e+00,-1.000000000000000000e+00,-1.000000000000000000e+00,-1.000000000000000000e+00,0.000000000000000000e+00,3.696899414062500000e-01,2.288818359375000000e-01,-8.936767578125000000e-01,1.110229492187500000e-01
0.000000000000000000e+00,1.000000000000000000e+00,-5.000000000000000000e+00,-1.000000000000000000e+00,-5.000000000000000000e+00,-3.000000000000000000e+00,-5.000000000000000000e+00,-2.000000000000000000e+00,3.696899414062500000e-01,2.288818359375000000e-01,-8.936767578125000000e-01,1.110229492187500000e-01
0.000000000000000000e+00,0.000000000000000000e+00,2.500000000000000000e+01,6.000000000000000000e+00,-3.000000000000000000e+00,-2.000000000000000000e+00,3.000000000000000000e+00,0.000000000000000000e+00,3.696899414062500000e-01,2.288818359375000000e-01,-8.936767578125000000e-01,1.110229492187500000e-01
1.000000000000000000e+00,-4.000000000000000000e+00,-1.100000000000000000e+01,-3.000000000000000000e+00,-3.000000000000000000e+00,-6.000000000000000000e+00,-1.200000000000000000e+01,-1.000000000000000000e+00,3.695068359375000000e-01,2.288208007812500000e-01,-8.937377929687500000e-01,1.113281250000000000e-01
-1.000000000000000000e+00,3.000000000000000000e+00,-2.000000000000000000e+01,-1.000000000000000000e+00,2.000000000000000000e+00,5.000000000000000000e+00,-3.300000000000000000e+01,-2.000000000000000000e+00,3.695068359375000000e-01,2.288208007812500000e-01,-8.937377929687500000e-01,1.113281250000000000e-01
6.000000000000000000e+00,7.000000000000000000e+00,4.400000000000000000e+01,2.500000000000000000e+01,1.000000000000000000e+01,1.000000000000000000e+00,4.000000000000000000e+00,2.000000000000000000e+00,3.695068359375000000e-01,2.288208007812500000e-01,-8.937377929687500000e-01,1.113281250000000000e-01
-1.500000000000000000e+01,-2.900000000000000000e+01,-6.900000000000000000e+01,-5.200000000000000000e+01,-2.300000000000000000e+01,-8.000000000000000000e+00,-4.000000000000000000e+00,-9.000000000000000000e+00,3.695068359375000000e-01,2.288208007812500000e-01,-8.937377929687500000e-01,1.113281250000000000e-01
0.000000000000000000e+00,-2.000000000000000000e+00,-7.000000000000000000e+00,1.500000000000000000e+01,3.000000000000000000e+00,1.000000000000000000e+00,-3.000000000000000000e+00,-1.000000000000000000e+00,3.693847656250000000e-01,2.290039062500000000e-01,-8.936767578125000000e-01,1.115112304687500000e-01
-5.000000000000000000e+00,-1.000000000000000000e+00,-1.500000000000000000e+01,-7.000000000000000000e+00,6.000000000000000000e+00,3.000000000000000000e+00,3.000000000000000000e+00,0.000000000000000000e+00,3.693847656250000000e-01,2.290039062500000000e-01,-8.936767578125000000e-01,1.115112304687500000e-01
3.000000000000000000e+00,7.000000000000000000e+00,3.400000000000000000e+01,3.900000000000000000e+01,5.000000000000000000e+00,1.000000000000000000e+00,-7.000000000000000000e+00,1.000000000000000000e+00,3.693847656250000000e-01,2.290039062500000000e-01,-8.936767578125000000e-01,1.115112304687500000e-01
6.000000000000000000e+00,9.000000000000000000e+00,3.500000000000000000e+01,2.100000000000000000e+01,6.000000000000000000e+00,1.000000000000000000e+00,2.000000000000000000e+00,3.000000000000000000e+00,3.693847656250000000e-01,2.290039062500000000e-01,-8.936767578125000000e-01,1.115112304687500000e-01
-1.000000000000000000e+00,-5.000000000000000000e+00,-5.000000000000000000e+00,-1.100000000000000000e+01,-6.000000000000000000e+00,-2.000000000000000000e+00,-3.000000000000000000e+00,-2.000000000000000000e+00,3.690795898437500000e-01,2.291870117187500000e-01,-8.937377929687500000e-01,1.119384765625000000e-01
0.000000000000000000e+00,-2.000000000000000000e+00,-2.400000000000000000e+01,-8.000000000000000000e+00,1.000000000000000000e+00,0.000000000000000000e+00,1.000000000000000000e+01,0.000000000000000000e+00,3.690795898437500000e-01,2.291870117187500000e-01,-8.937377929687500000e-01,1.119384765625000000e-01
-2.000000000000000000e+00,-2.000000000000000000e+00,-9.000000000000000000e+00,-8.000000000000000000e+00,-6.000000000000000000e+00,-4.000000000000000000e+00,-1.000000000000000000e+01,-3.000000000000000000e+00,3.690795898437500000e-01,2.291870117187500000e-01,-8.937377929687500000e-01,1.119384765625000000e-01
0.000000000000000000e+00,2.000000000000000000e+00,1.000000000000000000e+01,5.000000000000000000e+00,0.000000000000000000e+00,-2.000000000000000000e+00,4.000000000000000000e+00,-1.000000000000000000e+00,3.690795898437500000e-01,2.291870117187500000e-01,-8.937377929687500000e-01,1.119384765625000000e-01
-3.000000000000000000e+00,-3.000000000000000000e+00,-1.300000000000000000e+01,-1.100000000000000000e+01,-6.000000000000000000e+00,-1.000000000000000000e+00,4.000000000000000000e+00,-1.000000000000000000e+00,3.689575195312500000e-01,2.289428710937500000e-01,-8.938598632812500000e-01,1.120605468750000000e-01
0.000000000000000000e+00,0.000000000000000000e+00,1.100000000000000000e+01,8.000000000000000000e+00,0.000000000000000000e+00,0.000000000000000000e+00,1.000000000000000000e+01,-3.000000000000000000e+00,3.689575195312500000e-01,2.289428710937500000e-01,-8.938598632812500000e-01,1.120605468750000000e-01
-3.000000000000000000e+00,-4.000000000000000000e+00,-2.200000000000000000e+01,-2.200000000000000000e+01,-5.000000000000000000e+00,-3.000000000000000000e+00,-7.000000000000000000e+00,-2.000000000000000000e+00,3.689575195312500000e-01,2.289428710937500000e-01,-8.938598632812500000e-01,1.120605468750000000e-01
-1.000000000000000000e+00,2.000000000000000000e+00,1.000000000000000000e+01,9.000000000000000000e+00,5.000000000000000000e+00,5.000000000000000000e+00,-4.000000000000000000e+00,2.000000000000000000e+00,3.689575195312500000e-01,2.289428710937500000e-01,-8.938598632812500000e-01,1.120605468750000000e-01
8.000000000000000000e+00,1.300000000000000000e+01,3.400000000000000000e+01,1.700000000000000000e+01,9.000000000000000000e+00,9.000000000000000000e+00,1.600000000000000000e+01,7.000000000000000000e+00,3.686523437500000000e-01,2.285156250000000000e-01,-8.940429687500000000e-01,1.122436523437500000e-01
-8.000000000000000000e+00,-1.100000000000000000e+01,-2.300000000000000000e+01,7.000000000000000000e+00,-1.200000000000000000e+01,0.000000000000000000e+00,1.300000000000000000e+01,-8.000000000000000000e+00,3.686523437500000000e-01,2.285156250000000000e-01,-8.940429687500000000e-01,1.122436523437500000e-01
-8.000000000000000000e+00,-1.100000000000000000e+01,4.300000000000000000e+01,-2.600000000000000000e+01,-1.700000000000000000e+01,-1.600000000000000000e+01,-1.300000000000000000e+01,-8.000000000000000000e+00,3.686523437500000000e-01,2.285156250000000000e-01,-8.940429687500000000e-01,1.122436523437500000e-01
1.000000000000000000e+00,1.000000000000000000e+00,8.000000000000000000e+00,0.000000000000000000e+00,2.000000000000000000e+00,-1.000000000000000000e+00,-3.000000000000000000e+00,-1.000000000000000000e+00,3.686523437500000000e-01,2.285156250000000000e-01,-8.940429687500000000e-01,1.122436523437500000e-01
2.000000000000000000e+00,6.000000000000000000e+00,1.800000000000000000e+01,1.100000000000000000e+01,5.000000000000000000e+00,5.000000000000000000e+00,1.300000000000000000e+01,-2.000000000000000000e+00,3.685302734375000000e-01,2.293090820312500000e-01,-8.937988281250000000e-01,1.128540039062500000e-01
4.000000000000000000e+00,7.000000000000000000e+00,3.000000000000000000e+00,2.000000000000000000e+00,1.000000000000000000e+00,1.000000000000000000e+00,4.000000000000000000e+00,3.000000000000000000e+00,3.685302734375000000e-01,2.293090820312500000e-01,-8.937988281250000000e-01,1.128540039062500000e-01
1.000000000000000000e+00,-5.000000000000000000e+00,-1.800000000000000000e+01,-4.000000000000000000e+00,2.000000000000000000e+00,4.000000000000000000e+00,0.000000000000000000e+00,2.000000000000000000e+00,3.685302734375000000e-01,2.293090820312500000e-01,-8.937988281250000000e-01,1.128540039062500000e-01
1.000000000000000000e+00,3.000000000000000000e+00,-1.000000000000000000e+01,8.000000000000000000e+00,-2.000000000000000000e+00,-2.000000000000000000e+00,9.000000000000000000e+00,-2.000000000000000000e+00,3.685302734375000000e-01,2.293090820312500000e-01,-8.937988281250000000e-01,1.128540039062500000e-01
-5.000000000000000000e+00,-3.000000000000000000e+00,5.300000000000000000e+01,1.700000000000000000e+01,0.000000000000000000e+00,-4.000000000000000000e+00,-1.800000000000000000e+01,-3.000000000000000000e+00,3.683471679687500000e-01,2.296752929687500000e-01,-8.937988281250000000e-01,1.129760742187500000e-01
5.000000000000000000e+00,6.000000000000000000e+00,-4.000000000000000000e+01,-2.400000000000000000e+01,-3.000000000000000000e+00,-4.000000000000000000e+00,-3.000000000000000000e+00,0.000000000000000000e+00,3.683471679687500000e-01,2.296752929687500000e-01,-8.937988281250000000e-01,1.129760742187500000e-01
-1.100000000000000000e+01,-6.000000000000000000e+00,-2.800000000000000000e+01,3.000000000000000000e+00,1.000000000000000000e+00,1.000000000000000000e+00,-2.000000000000000000e+00,0.000000000000000000e+00,3.683471679687500000e-01,2.296752929687500000e-01,-8.937988281250000000e-01,1.129760742187500000e-01
-2.000000000000000000e+00,-2.000000000000000000e+00,3.100000000000000000e+01,1.000000000000000000e+01,1.000000000000000000e+00,-2.000000000000000000e+00,-9.000000000000000000e+00,0.000000000000000000e+00,3.683471679687500000e-01,2.296752929687500000e-01,-8.937988281250000000e-01,1.129760742187500000e-01
-2.000000000000000000e+00,-2.000000000000000000e+00,-3.700000000000000000e+01,-1.200000000000000000e+01,-3.000000000000000000e+00,1.000000000000000000e+00,4.000000000000000000e+00,1.000000000000000000e+00,3.684082031250000000e-01,2.295532226562500000e-01,-8.937988281250000000e-01,1.126708984375000000e-01
0.000000000000000000e+00,-4.000000000000000000e+00,1.400000000000000000e+01,-5.000000000000000000e+00,-3.000000000000000000e+00,-4.000000000000000000e+00,-4.000000000000000000e+00,-1.000000000000000000e+00,3.684082031250000000e-01,2.295532226562500000e-01,-8.937988281250000000e-01,1.126708984375000000e-01
2.000000000000000000e+00,1.000000000000000000e+00,-9.000000000000000000e+00,-1.000000000000000000e+01,-4.000000000000000000e+00,2.000000000000000000e+00,2.000000000000000000e+00,-1.000000000000000000e+00,3.684082031250000000e-01,2.295532226562500000e-01,-8.937988281250000000e-01,1.126708984375000000e-01
5.000000000000000000e+00,9.000000000000000000e+00,-2.000000000000000000e+00,1.600000000000000000e+01,6.000000000000000000e+00,4.000000000000000000e+00,1.500000000000000000e+01,1.000000000000000000e+00,3.684082031250000000e-01,2.295532226562500000e-01,-8.937988281250000000e-01,1.126708984375000000e-01
2.000000000000000000e+00,1.300000000000000000e+01,-1.000000000000000000e+01,-1.600000000000000000e+01,3.000000000000000000e+00,-4.000000000000000000e+00,-1.600000000000000000e+01,2.000000000000000000e+00,3.687744140625000000e-01,2.285766601562500000e-01,-8.939208984375000000e-01,1.126708984375000000e-01
-1.400000000000000000e+01,-3.200000000000000000e+01,-5.000000000000000000e+00,-2.600000000000000000e+01,-2.000000000000000000e+01,-1.100000000000000000e+01,5.000000000000000000e+00,-6.000000000000000000e+00,3.687744140625000000e-01,2.285766601562500000e-01,-8.939208984375000000e-01,1.126708984375000000e-01
-3.000000000000000000e+00,0.000000000000000000e+00,-1.500000000000000000e+01,1.000000000000000000e+00,1.000000000000000000e+00,-7.000000000000000000e+00,-1.400000000000000000e+01,-1.000000000000000000e+00,3.687744140625000000e-01,2.285766601562500000e-01,-8.939208984375000000e-01,1.126708984375000000e-01
-1.000000000000000000e+00,-2.000000000000000000e+00,-4.000000000000000000e+00,4.000000000000000000e+00,-2.000000000000000000e+00,4.000000000000000000e+00,-2.000000000000000000e+00,-1.000000000000000000e+00,3.687744140625000000e-01,2.285766601562500000e-01,-8.939208984375000000e-01,1.126708984375000000e-01
1.000000000000000000e+00,3.000000000000000000e+00,1.500000000000000000e+01,0.000000000000000000e+00,0.000000000000000000e+00,2.000000000000000000e+00,4.000000000000000000e+00,0.000000000000000000e+00,3.692016601562500000e-01,2.288818359375000000e-01,-8.935546875000000000e-01,1.132812500000000000e-01
5.000000000000000000e+00,2.000000000000000000e+00,-2.400000000000000000e+01,-6.000000000000000000e+00,3.000000000000000000e+00,-1.000000000000000000e+00,-3.000000000000000000e+00,3.000000000000000000e+00,3.692016601562500000e-01,2.288818359375000000e-01,-8.935546875000000000e-01,1.132812500000000000e-01
-6.000000000000000000e+00,-5.000000000000000000e+00,-5.000000000000000000e+00,1.600000000000000000e+01,5.000000000000000000e+00,2.000000000000000000e+00,-7.000000000000000000e+00,-3.000000000000000000e+00,3.692016601562500000e-01,2.288818359375000000e-01,-8.935546875000000000e-01,1.132812500000000000e-01
0.000000000000000000e+00,-1.000000000000000000e+00,1.300000000000000000e+01,-1.700000000000000000e+01,-2.000000000000000000e+00,-5.000000000000000000e+00,-7.000000000000000000e+00,-3.000000000000000000e+00,3.692016601562500000e-01,2.288818359375000000e-01,-8.935546875000000000e-01,1.132812500000000000e-01
-4.000000000000000000e+00,0.000000000000000000e+00,-1.300000000000000000e+01,4.000000000000000000e+00,-2.000000000000000000e+00,-2.000000000000000000e+00,-7.000000000000000000e+00,-4.000000000000000000e+00,3.695068359375000000e-01,2.291259765625000000e-01,-8.933715820312500000e-01,1.135864257812500000e-01
-1.000000000000000000e+00,-1.000000000000000000e+00,-3.000000000000000000e+01,6.000000000000000000e+00,1.000000000000000000e+00,-1.000000000000000000e+00,0.000000000000000000e+00,1.000000000000000000e+00,3.695068359375000000e-01,2.291259765625000000e-01,-8.933715820312500000e-01,1.135864257812500000e-01
3.000000000000000000e+00,-2.000000000000000000e+00,-9.000000000000000000e+00,-1.400000000000000000e+01,-6.000000000000000000e+00,-1.000000000000000000e+00,6.000000000000000000e+00,0.000000000000000000e+00,3.695068359375000000e-01,2.291259765625000000e-01,-8.933715820312500000e-01,1.135864257812500000e-01
0.000000000000000000e+00,1.000000000000000000e+00,-2.600000000000000000e+01,9.000000000000000000e+00,4.000000000000000000e+00,1.000000000000000000e+00,7.000000000000000000e+00,1.000000000000000000e+00,3.695068359375000000e-01,2.291259765625000000e-01,-8.933715820312500000e-01,1.135864257812500000e-01
-7.000000000000000000e+00,-8.000000000000000000e+00,-3.800000000000000000e+01,-7.000000000000000000e+00,-5.000000000000000000e+00,-2.000000000000000000e+00,-8.000000000000000000e+00,-7.000000000000000000e+00,3.698120117187500000e-01,2.288818359375000000e-01,-8.932495117187500000e-01,1.137084960937500000e-01
-4.000000000000000000e+00,-7.000000000000000000e+00,-2.100000000000000000e+01,-2.100000000000000000e+01,-1.000000000000000000e+00,1.000000000000000000e+00,-1.500000000000000000e+01,-3.000000000000000000e+00,3.698120117187500000e-01,2.288818359375000000e-01,-8.932495117187500000e-01,1.137084960937500000e-01
2.000000000000000000e+00,5.000000000000000000e+00,3.000000000000000000e+00,1.200000000000000000e+01,8.000000000000000000e+00,5.000000000000000000e+00,2.200000000000000000e+01,0.000000000000000000e+00,3.698120117187500000e-01,2.288818359375000000e-01,-8.932495117187500000e-01,1.137084960937500000e-01
1.000000000000000000e+00,2.000000000000000000e+00,-7.000000000000000000e+00,6.000000000000000000e+00,-2.000000000000000000e+00,1.000000000000000000e+00,-4.000000000000000000e+00,0.000000000000000000e+00,3.698120117187500000e-01,2.288818359375000000e-01,-8.932495117187500000e-01,1.137084960937500000e-01
3.000000000000000000e+00,-3.000000000000000000e+00,-1.800000000000000000e+01,-2.900000000000000000e+01,-2.000000000000000000e+00,-9.000000000000000000e+00,-4.000000000000000000e+00,-1.000000000000000000e+00,3.701171875000000000e-01,2.290039062500000000e-01,-8.930664062500000000e-01,1.140136718750000000e-01
-3.000000000000000000e+00,-5.000000000000000000e+00,2.700000000000000000e+01,2.000000000000000000e+01,2.000000000000000000e+00,0.000000000000000000e+00,-3.000000000000000000e+00,-2.000000000000000000e+00,3.701171875000000000e-01,2.290039062500000000e-01,-8.930664062500000000e-01,1.140136718750000000e-01
0.000000000000000000e+00,2.000000000000000000e+00,-6.000000000000000000e+00,-7.000000000000000000e+00,-3.000000000000000000e+00,-2.000000000000000000e+00,-6.000000000000000000e+00,-2.000000000000000000e+00,3.701171875000000000e-01,2.290039062500000000e-01,-8.930664062500000000e-01,1.140136718750000000e-01
-2.000000000000000000e+00,-8.000000000000000000e+00,1.500000000000000000e+01,5.000000000000000000e+00,2.000000000000000000e+00,0.000000000000000000e+00,-7.000000000000000000e+00,2.000000000000000000e+00,3.701171875000000000e-01,2.290039062500000000e-01,-8.930664062500000000e-01,1.140136718750000000e-01
-1.000000000000000000e+00,-4.000000000000000000e+00,-3.900000000000000000e+01,-1.000000000000000000e+01,-3.000000000000000000e+00,0.000000000000000000e+00,-2.100000000000000000e+01,0.000000000000000000e+00,3.701171875000000000e-01,2.290039062500000000e-01,-8.930664062500000000e-01,1.143188476562500000e-01
3.000000000000000000e+00,6.000000000000000000e+00,4.100000000000000000e+01,9.000000000000000000e+00,4.000000000000000000e+00,1.000000000000000000e+00,5.000000000000000000e+00,-1.000000000000000000e+00,3.701171875000000000e-01,2.290039062500000000e-01,-8.930664062500000000e-01,1.143188476562500000e-01
-1.000000000000000000e+00,-9.000000000000000000e+00,-1.800000000000000000e+01,-9.000000000000000000e+00,-3.000000000000000000e+00,-4.000000000000000000e+00,2.000000000000000000e+00,0.000000000000000000e+00,3.701171875000000000e-01,2.290039062500000000e-01,-8.930664062500000000e-01,1.143188476562500000e-01
-2.000000000000000000e+00,0.000000000000000000e+00,2.200000000000000000e+01,-2.000000000000000000e+00,-8.000000000000000000e+00,-4.000000000000000000e+00,5.000000000000000000e+00,-2.000000000000000000e+00,3.701171875000000000e-01,2.290039062500000000e-01,-8.930664062500000000e-01,1.143188476562500000e-01
0.000000000000000000e+00,-1.400000000000000000e+01,8.000000000000000000e+00,-2.000000000000000000e+00,-4.000000000000000000e+00,-1.000000000000000000e+00,-5.000000000000000000e+00,-2.000000000000000000e+00,3.699340820312500000e-01,2.290649414062500000e-01,-8.930664062500000000e-01,1.144409179687500000e-01
0.000000000000000000e+00,7.000000000000000000e+00,1.100000000000000000e+01,1.000000000000000000e+00,5.000000000000000000e+00,1.000000000000000000e+00,-5.000000000000000000e+00,-1.000000000000000000e+00,3.699340820312500000e-01,2.290649414062500000e-01,-8.930664062500000000e-01,1.144409179687500000e-01
1.000000000000000000e+00,0.000000000000000000e+00,-2.000000000000000000e+00,-1.000000000000000000e+00,-4.000000000000000000e+00,-5.000000000000000000e+00,-6.000000000000000000e+00,-1.000000000000000000e+00,3.699340820312500000e-01,2.290649414062500000e-01,-8.930664062500000000e-01,1.144409179687500000e-01
-1.000000000000000000e+00,2.000000000000000000e+00,4.000000000000000000e+00,-3.000000000000000000e+00,-1.000000000000000000e+00,1.000000000000000000e+00,-5.000000000000000000e+00,-1.000000000000000000e+00,3.699340820312500000e-01,2.290649414062500000e-01,-8.930664062500000000e-01,1.144409179687500000e-01
-3.000000000000000000e+00,-1.100000000000000000e+01,-2.300000000000000000e+01,1.000000000000000000e+01,1.000000000000000000e+00,-2.000000000000000000e+00,-3.000000000000000000e+00,-1.000000000000000000e+00,3.699951171875000000e-01,2.283325195312500000e-01,-8.932495117187500000e-01,1.145019531250000000e-01
-3.000000000000000000e+00,0.000000000000000000e+00,3.100000000000000000e+01,-1.300000000000000000e+01,-2.000000000000000000e+00,-2.000000000000000000e+00,6.000000000000000000e+00,-3.000000000000000000e+00,3.699951171875000000e-01,2.283325195312500000e-01,-8.932495117187500000e-01,1.145019531250000000e-01
3.000000000000000000e+00,7.000000000000000000e+00,1.300000000000000000e+01,2.000000000000000000e+00,0.000000000000000000e+00,-2.000000000000000000e+00,6.000000000000000000e+00,-1.000000000000000000e+00,3.699951171875000000e-01,2.283325195312500000e-01,-8.932495117187500000e-01,1.145019531250000000e-01
2.000000000000000000e+00,-3.000000000000000000e+00,2.600000000000000000e+01,1.400000000000000000e+01,-1.000000000000000000e+00,0.000000000000000000e+00,1.000000000000000000e+01,-1.000000000000000000e+00,3.699951171875000000e-01,2.283325195312500000e-01,-8.932495117187500000e-01,1.145019531250000000e-01
-2.000000000000000000e+00,0.000000000000000000e+00,9.000000000000000000e+00,-1.400000000000000000e+01,2.000000000000000000e+00,-1.000000000000000000e+00,-8.000000000000000000e+00,-1.000000000000000000e+00,3.698730468750000000e-01,2.283935546875000000e-01,-8.932495117187500000e-01,1.148071289062500000e-01
2.000000000000000000e+00,1.000000000000000000e+00,-2.200000000000000000e+01,3.000000000000000000e+00,-4.000000000000000000e+00,-3.000000000000000000e+00,2.000000000000000000e+00,0.000000000000000000e+00,3.698730468750000000e-01,2.283935546875000000e-01,-8.932495117187500000e-01,1.148071289062500000e-01
0.000000000000000000e+00,0.000000000000000000e+00,-7.100000000000000000e+01,-3.800000000000000000e+01,-5.000000000000000000e+00,0.000000000000000000e+00,-1.400000000000000000e+01,0.000000000000000000e+00,3.698730468750000000e-01,2.283935546875000000e-01,-8.932495117187500000e-01,1.148071289062500000e-01
5.000000000000000000e+00,6.000000000000000000e+00,4.500000000000000000e+01,-9.000000000000000000e+00,-2.000000000000000000e+00,-1.000000000000000000e+00,3.000000000000000000e+00,1.000000000000000000e+00,3.698730468750000000e-01,2.283935546875000000e-01,-8.932495117187500000e-01,1.148071289062500000e-01
-1.400000000000000000e+01,-4.000000000000000000e+00,0.000000000000000000e+00,1.000000000000000000e+01,-5.000000000000000000e+00,-1.000000000000000000e+00,8.000000000000000000e+00,-3.000000000000000000e+00,3.696899414062500000e-01,2.285156250000000000e-01,-8.932495117187500000e-01,1.149902343750000000e-01
2.000000000000000000e+00,1.000000000000000000e+00,-5.000000000000000000e+00,1.100000000000000000e+01,2.000000000000000000e+00,1.000000000000000000e+00,-1.100000000000000000e+01,-3.000000000000000000e+00,3.696899414062500000e-01,2.285156250000000000e-01,-8.932495117187500000e-01,1.149902343750000000e-01
-5.000000000000000000e+00,-1.400000000000000000e+01,6.000000000000000000e+00,-3.000000000000000000e+00,-2.000000000000000000e+00,-4.000000000000000000e+00,-1.500000000000000000e+01,-1.000000000000000000e+00,3.696899414062500000e-01,2.285156250000000000e-01,-8.932495117187500000e-01,1.149902343750000000e-01
0.000000000000000000e+00,3.000000000000000000e+00,-1.300000000000000000e+01,0.000000000000000000e+00,2.000000000000000000e+00,2.000000000000000000e+00,5.000000000000000000e+00,-1.000000000000000000e+00,3.696899414062500000e-01,2.285156250000000000e-01,-8.932495117187500000e-01,1.149902343750000000e-01
5.000000000000000000e+00,3.000000000000000000e+00,2.200000000000000000e+01,1.000000000000000000e+01,0.000000000000000000e+00,5.000000000000000000e+00,1.200000000000000000e+01,1.000000000000000000e+00,3.693237304687500000e-01,2.285766601562500000e-01,-8.934326171875000000e-01,1.148071289062500000e-01
3.000000000000000000e+00,9.000000000000000000e+00,2.300000000000000000e+01,5.000000000000000000e+00,0.000000000000000000e+00,-5.000000000000000000e+00,-6.000000000000000000e+00,0.000000000000000000e+00,3.693237304687500000e-01,2.285766601562500000e-01,-8.934326171875000000e-01,1.148071289062500000e-01
-2.000000000000000000e+00,-5.000000000000000000e+00,-3.000000000000000000e+01,-6.000000000000000000e+00,-7.000000000000000000e+00,-1.000000000000000000e+00,1.100000000000000000e+01,-2.000000000000000000e+00,3.693237304687500000e-01,2.285766601562500000e-01,-8.934326171875000000e-01,1.148071289062500000e-01
-3.000000000000000000e+00,-9.000000000000000000e+00,1.100000000000000000e+01,-1.000000000000000000e+00,-2.000000000000000000e+00,0.000000000000000000e+00,-1.100000000000000000e+01,-3.000000000000000000e+00,3.693237304687500000e-01,2.285766601562500000e-01,-8.934326171875000000e-01,1.148071289062500000e-01
-1.000000000000000000e+00,0.000000000000000000e+00,4.000000000000000000e+00,1.000000000000000000e+00,-3.000000000000000000e+00,-7.000000000000000000e+00,-5.000000000000000000e+00,-3.000000000000000000e+00,3.690185546875000000e-01,2.283325195312500000e-01,-8.936157226562500000e-01,1.147460937500000000e-01
2.000000000000000000e+00,2.000000000000000000e+00,1.100000000000000000e+01,1.600000000000000000e+01,-1.000000000000000000e+00,3.000000000000000000e+00,1.100000000000000000e+01,3.000000000000000000e+00,3.690185546875000000e-01,2.283325195312500000e-01,-8.936157226562500000e-01,1.147460937500000000e-01
4.000000000000000000e+00,1.300000000000000000e+01,-4.000000000000000000e+00,-5.000000000000000000e+00,7.000000000000000000e+00,4.000000000000000000e+00,4.000000000000000000e+00,2.000000000000000000e+00,3.690185546875000000e-01,2.283325195312500000e-01,-8.936157226562500000e-01,1.147460937500000000e-01
-4.000000000000000000e+00,-5.000000000000000000e+00,1.000000000000000000e+00,-3.000000000000000000e+00,-6.000000000000000000e+00,-9.000000000000000000e+00,-5.000000000000000000e+00,-4.000000000000000000e+00,3.690185546875000000e-01,2.283325195312500000e-01,-8.936157226562500000e-01,1.147460937500000000e-01
1.000000000000000000e+00,-8.000000000000000000e+00,-3.600000000000000000e+01,3.000000000000000000e+00,-4.000000000000000000e+00,-2.000000000000000000e+00,-9.000000000000000000e+00,-1.000000000000000000e+00,3.687133789062500000e-01,2.285156250000000000e-01,-8.936767578125000000e-01,1.149902343750000000e-01
-7.000000000000000000e+00,-7.000000000000000000e+00,2.400000000000000000e+01,4.000000000000000000e+00,-5.000000000000000000e+00,7.000000000000000000e+00,5.400000000000000000e+01,2.000000000000000000e+00,3.687133789062500000e-01,2.285156250000000000e-01,-8.936767578125000000e-01,1.149902343750000000e-01
1.000000000000000000e+00,0.000000000000000000e+00,1.200000000000000000e+01,-5.000000000000000000e+00,-6.000000000000000000e+00,-4.000000000000000000e+00,-2.000000000000000000e+00,-1.000000000000000000e+00,3.687133789062500000e-01,2.285156250000000000e-01,-8.936767578125000000e-01,1.149902343750000000e-01
-3.000000000000000000e+00,-1.000000000000000000e+00,-3.300000000000000000e+01,5.000000000000000000e+00,8.000000000000000000e+00,1.000000000000000000e+00,-1.000000000000000000e+00,-1.000000000000000000e+00,3.687133789062500000e-01,2.285156250000000000e-01,-8.936767578125000000e-01,1.149902343750000000e-01
3.000000000000000000e+00,4.000000000000000000e+00,3.500000000000000000e+01,0.000000000000000000e+00,-4.000000000000000000e+00,0.000000000000000000e+00,1.200000000000000000e+01,2.000000000000000000e+00,3.685913085937500000e-01,2.291870117187500000e-01,-8.934936523437500000e-01,1.151733398437500000e-01
1.000000000000000000e+00,-1.000000000000000000e+01,-6.600000000000000000e+01,-2.000000000000000000e+01,-3.000000000000000000e+00,-6.000000000000000000e+00,-3.400000000000000000e+01,-4.000000000000000000e+00,3.685913085937500000e-01,2.291870117187500000e-01,-8.934936523437500000e-01,1.151733398437500000e-01
-3.000000000000000000e+00,0.000000000000000000e+00,5.800000000000000000e+01,2.200000000000000000e+01,1.000000000000000000e+00,-2.000000000000000000e+00,-1.100000000000000000e+01,-2.000000000000000000e+00,3.685913085937500000e-01,2.291870117187500000e-01,-8.934936523437500000e-01,1.151733398437500000e-01
-4.000000000000000000e+00,2.000000000000000000e+00,-3.000000000000000000e+01,-1.400000000000000000e+01,2.000000000000000000e+00,-1.000000000000000000e+00,8.000000000000000000e+00,-1.000000000000000000e+00,3.685913085937500000e-01,2.291870117187500000e-01,-8.934936523437500000e-01,1.151733398437500000e-01
-5.000000000000000000e+00,-9.000000000000000000e+00,-1.100000000000000000e+01,-7.000000000000000000e+00,-3.000000000000000000e+00,-1.000000000000000000e+00,0.000000000000000000e+00,-4.000000000000000000e+00,3.685302734375000000e-01,2.290649414062500000e-01,-8.936157226562500000e-01,1.149291992187500000e-01
0.000000000000000000e+00,4.000000000000000000e+00,-3.000000000000000000e+00,-9.000000000000000000e+00,-1.000000000000000000e+00,-2.000000000000000000e+00,-5.000000000000000000e+00,0.000000000000000000e+00,3.685302734375000000e-01,2.290649414062500000e-01,-8.936157226562500000e-01,1.149291992187500000e-01
3.000000000000000000e+00,5.000000000000000000e+00,1.000000000000000000e+01,5.000000000000000000e+00,-2.000000000000000000e+00,-2.000000000000000000e+00,-1.000000000000000000e+00,3.000000000000000000e+00,3.685302734375000000e-01,2.290649414062500000e-01,-8.936157226562500000e-01,1.149291992187500000e-01
-5.000000000000000000e+00,-4.000000000000000000e+00,-6.000000000000000000e+00,4.000000000000000000e+00,-2.000000000000000000e+00,-5.000000000000000000e+00,-2.200000000000000000e+01,-3.000000000000000000e+00,3.685302734375000000e-01,2.290649414062500000e-01,-8.936157226562500000e-01,1.149291992187500000e-01
2.000000000000000000e+00,5.000000000000000000e+00,1.500000000000000000e+01,-9.000000000000000000e+00,4.000000000000000000e+00,1.000000000000000000e+01,2.700000000000000000e+01,2.000000000000000000e+00,3.685913085937500000e-01,2.288208007812500000e-01,-8.936157226562500000e-01,1.149291992187500000e-01
-5.000000000000000000e+00,1.000000000000000000e+00,-2.900000000000000000e+01,-2.000000000000000000e+01,-7.000000000000000000e+00,-1.000000000000000000e+01,-1.400000000000000000e+01,-3.000000000000000000e+00,3.685913085937500000e-01,2.288208007812500000e-01,-8.936157226562500000e-01,1.149291992187500000e-01
-3.000000000000000000e+00,-5.000000000000000000e+00,0.000000000000000000e+00,2.900000000000000000e+01,4.000000000000000000e+00,-1.000000000000000000e+00,-3.000000000000000000e+00,-2.000000000000000000e+00,3.685913085937500000e-01,2.288208007812500000e-01,-8.936157226562500000e-01,1.149291992187500000e-01
-1.000000000000000000e+00,-1.000000000000000000e+00,1.100000000000000000e+01,1.300000000000000000e+01,-1.000000000000000000e+00,-5.000000000000000000e+00,-3.000000000000000000e+00,-1.000000000000000000e+00,3.685913085937500000e-01,2.288208007812500000e-01,-8.936157226562500000e-01,1.149291992187500000e-01
0.000000000000000000e+00,4.000000000000000000e+00,-2.100000000000000000e+01,-1.500000000000000000e+01,-4.000000000000000000e+00,0.000000000000000000e+00,6.000000000000000000e+00,0.000000000000000000e+00,3.685302734375000000e-01,2.290649414062500000e-01,-8.935546875000000000e-01,1.150512695312500000e-01
-2.000000000000000000e+00,0.000000000000000000e+00,2.600000000000000000e+01,6.000000000000000000e+00,0.000000000000000000e+00,0.000000000000000000e+00,6.000000000000000000e+00,0.000000000000000000e+00,3.685302734375000000e-01,2.290649414062500000e-01,-8.935546875000000000e-01,1.150512695312500000e-01
1.000000000000000000e+00,4.000000000000000000e+00,1.900000000000000000e+01,2.500000000000000000e+01,2.000000000000000000e+00,2.000000000000000000e+00,2.000000000000000000e+00,-3.000000000000000000e+00,3.685302734375000000e-01,2.290649414062500000e-01,-8.935546875000000000e-01,1.150512695312500000e-01
-4.000000000000000000e+00,-1.500000000000000000e+01,-5.200000000000000000e+01,-2.100000000000000000e+01,-7.000000000000000000e+00,-1.000000000000000000e+00,-5.000000000000000000e+00,-3.000000000000000000e+00,3.685302734375000000e-01,2.290649414062500000e-01,-8.935546875000000000e-01,1.150512695312500000e-01
1.000000000000000000e+00,1.000000000000000000e+00,2.800000000000000000e+01,1.000000000000000000e+00,-2.000000000000000000e+00,-6.000000000000000000e+00,-2.000000000000000000e+00,-2.000000000000000000e+00,3.685302734375000000e-01,2.290649414062500000e-01,-8.935546875000000000e-01,1.149902343750000000e-01
-1.000000000000000000e+00,-1.000000000000000000e+00,-7.000000000000000000e+00,3.000000000000000000e+00,0.000000000000000000e+00,0.000000000000000000e+00,-9.000000000000000000e+00,-3.000000000000000000e+00,3.685302734375000000e-01,2.290649414062500000e-01,-8.935546875000000000e-01,1.149902343750000000e-01
-1.000000000000000000e+00,1.000000000000000000e+00,5.000000000000000000e+00,3.000000000000000000e+00,-1.000000000000000000e+00,0.000000000000000000e+00,2.000000000000000000e+00,-1.000000000000000000e+00,3.685302734375000000e-01,2.290649414062500000e-01,-8.935546875000000000e-01,1.149902343750000000e-01
0.000000000000000000e+00,5.000000000000000000e+00,1.500000000000000000e+01,1.000000000000000000e+01,3.000000000000000000e+00,3.000000000000000000e+00,2.000000000000000000e+00,0.000000000000000000e+00,3.685302734375000000e-01,2.290649414062500000e-01,-8.935546875000000000e-01,1.149902343750000000e-01
-1.000000000000000000e+00,-1.000000000000000000e+00,-6.000000000000000000e+00,2.000000000000000000e+00,-1.000000000000000000e+00,-3.000000000000000000e+00,-6.000000000000000000e+00,0.000000000000000000e+00,3.685913085937500000e-01,2.287597656250000000e-01,-8.936157226562500000e-01,1.149291992187500000e-01
0.000000000000000000e+00,-1.000000000000000000e+00,2.200000000000000000e+01,-2.400000000000000000e+01,-2.000000000000000000e+00,0.000000000000000000e+00,9.000000000000000000e+00,-1.000000000000000000e+00,3.685913085937500000e-01,2.287597656250000000e-01,-8.936157226562500000e-01,1.149291992187500000e-01
-4.000000000000000000e+00,-4.000000000000000000e+00,-2.700000000000000000e+01,-2.100000000000000000e+01,-4.000000000000000000e+00,-2.000000000000000000e+00,4.000000000000000000e+00,0.000000000000000000e+00,3.685913085937500000e-01,2.287597656250000000e-01,-8.936157226562500000e-01,1.149291992187500000e-01
-2.000000000000000000e+00,3.000000000000000000e+00,2.500000000000000000e+01,1.200000000000000000e+01,-3.000000000000000000e+00,-2.000000000000000000e+00,-4.000000000000000000e+00,0.000000000000000000e+00,3.685913085937500000e-01,2.287597656250000000e-01,-8.936157226562500000e-01,1.149291992187500000e-01
-1.000000000000000000e+00,-1.100000000000000000e+01,-2.400000000000000000e+01,-4.000000000000000000e+00,0.000000000000000000e+00,-5.000000000000000000e+00,-1.600000000000000000e+01,2.000000000000000000e+00,3.685913085937500000e-01,2.287597656250000000e-01,-8.936157226562500000e-01,1.149291992187500000e-01
-2.000000000000000000e+00,-6.000000000000000000e+00,1.500000000000000000e+01,2.600000000000000000e+01,8.000000000000000000e+00,9.000000000000000000e+00,6.000000000000000000e+00,1.000000000000000000e+00,3.685913085937500000e-01,2.287597656250000000e-01,-8.936157226562500000e-01,1.149291992187500000e-01
0.000000000000000000e+00,4.000000000000000000e+00,2.700000000000000000e+01,-4.000000000000000000e+00,3.000000000000000000e+00,2.000000000000000000e+00,2.000000000000000000e+00,-1.000000000000000000e+00,3.685913085937500000e-01,2.287597656250000000e-01,-8.936157226562500000e-01,1.149291992187500000e-01
2.000000000000000000e+00,3.000000000000000000e+00,-3.500000000000000000e+01,-1.700000000000000000e+01,-2.000000000000000000e+00,-1.000000000000000000e+00,7.000000000000000000e+00,1.000000000000000000e+00,3.685913085937500000e-01,2.287597656250000000e-01,-8.936157226562500000e-01,1.149291992187500000e-01
1.000000000000000000e+00,4.000000000000000000e+00,3.200000000000000000e+01,1.100000000000000000e+01,-4.000000000000000000e+00,-4.000000000000000000e+00,-7.000000000000000000e+00,-3.000000000000000000e+00,3.684082031250000000e-01,2.289428710937500000e-01,-8.936157226562500000e-01,1.151123046875000000e-01
-5.000000000000000000e+00,-3.000000000000000000e+00,-3.000000000000000000e+00,2.000000000000000000e+00,-3.000000000000000000e+00,0.000000000000000000e+00,-6.000000000000000000e+00,-1.000000000000000000e+00,3.684082031250000000e-01,2.289428710937500000e-01,-8.936157226562500000e-01,1.151123046875000000e-01
-1.000000000000000000e+00,-1.100000000000000000e+01,-9.000000000000000000e+00,-2.000000000000000000e+00,1.000000000000000000e+00,3.000000000000000000e+00,0.000000000000000000e+00,0.000000000000000000e+00,3.684082031250000000e-01,2.289428710937500000e-01,-8.936157226562500000e-01,1.151123046875000000e-01
1.000000000000000000e+00,3.000000000000000000e+00,1.000000000000000000e+01,-2.000000000000000000e+00,-1.000000000000000000e+00,-2.000000000000000000e+00,-7.000000000000000000e+00,-2.000000000000000000e+00,3.684082031250000000e-01,2.289428710937500000e-01,-8.936157226562500000e-01,1.151123046875000000e-01
0.000000000000000000e+00,2.000000000000000000e+00,-1.100000000000000000e+01,-6.000000000000000000e+00,1.000000000000000000e+00,2.000000000000000000e+00,-1.000000000000000000e+00,-1.000000000000000000e+00,3.682861328125000000e-01,2.291870117187500000e-01,-8.936157226562500000e-01,1.152343750000000000e-01
9.000000000000000000e+00,9.000000000000000000e+00,-1.100000000000000000e+01,1.000000000000000000e+00,2.000000000000000000e+00,6.000000000000000000e+00,1.900000000000000000e+01,5.000000000000000000e+00,3.682861328125000000e-01,2.291870117187500000e-01,-8.936157226562500000e-01,1.152343750000000000e-01
-7.000000000000000000e+00,-9.000000000000000000e+00,-2.400000000000000000e+01,1.500000000000000000e+01,-4.000000000000000000e+00,-5.000000000000000000e+00,8.000000000000000000e+00,-2.000000000000000000e+00,3.682861328125000000e-01,2.291870117187500000e-01,-8.936157226562500000e-01,1.152343750000000000e-01
-3.000000000000000000e+00,-1.000000000000000000e+00,4.500000000000000000e+01,-3.400000000000000000e+01,-3.000000000000000000e+00,-2.000000000000000000e+00,-5.000000000000000000e+00,-4.000000000000000000e+00,3.682861328125000000e-01,2.291870117187500000e-01,-8.936157226562500000e-01,1.152343750000000000e-01
-1.000000000000000000e+00,1.000000000000000000e+00,1.200000000000000000e+01,8.000000000000000000e+00,-1.000000000000000000e+00,0.000000000000000000e+00,8.000000000000000000e+00,-2.000000000000000000e+00,3.682861328125000000e-01,2.291870117187500000e-01,-8.936157226562500000e-01,1.152954101562500000e-01
4.000000000000000000e+00,0.000000000000000000e+00,-5.300000000000000000e+01,-1.200000000000000000e+01,4.000000000000000000e+00,2.000000000000000000e+00,-5.000000000000000000e+00,-1.000000000000000000e+00,3.682861328125000000e-01,2.291870117187500000e-01,-8.936157226562500000e-01,1.152954101562500000e-01
1.000000000000000000e+00,2.000000000000000000e+00,4.000000000000000000e+00,2.000000000000000000e+00,-1.000000000000000000e+00,5.000000000000000000e+00,-1.000000000000000000e+00,3.000000000000000000e+00,3.682861328125000000e-01,2.291870117187500000e-01,-8.936157226562500000e-01,1.152954101562500000e-01
1.000000000000000000e+00,-5.000000000000000000e+00,-4.000000000000000000e+00,7.000000000000000000e+00,-1.000000000000000000e+00,-1.000000000000000000e+00,6.000000000000000000e+00,0.000000000000000000e+00,3.682861328125000000e-01,2.291870117187500000e-01,-8.936157226562500000e-01,1.152954101562500000e-01
-4.000000000000000000e+00,0.000000000000000000e+00,-3.000000000000000000e+00,-3.000000000000000000e+00,0.000000000000000000e+00,1.000000000000000000e+00,2.000000000000000000e+00,-1.000000000000000000e+00,3.684082031250000000e-01,2.294311523437500000e-01,-8.934936523437500000e-01,1.154785156250000000e-01
-2.000000000000000000e+00,2.000000000000000000e+00,2.900000000000000000e+01,7.000000000000000000e+00,-1.000000000000000000e+00,-2.000000000000000000e+00,-7.000000000000000000e+00,0.000000000000000000e+00,3.684082031250000000e-01,2.294311523437500000e-01,-8.934936523437500000e-01,1.154785156250000000e-01
-1.000000000000000000e+00,0.000000000000000000e+00,-9.000000000000000000e+00,-1.500000000000000000e+01,-5.000000000000000000e+00,-2.000000000000000000e+00,-4.000000000000000000e+00,-1.000000000000000000e+00,3.684082031250000000e-01,2.294311523437500000e-01,-8.934936523437500000e-01,1.154785156250000000e-01
-1.000000000000000000e+00,-3.000000000000000000e+00,-9.000000000000000000e+00,3.000000000000000000e+00,-1.000000000000000000e+00,-1.000000000000000000e+00,-4.000000000000000000e+00,-1.000000000000000000e+00,3.684082031250000000e-01,2.294311523437500000e-01,-8.934936523437500000e-01,1.154785156250000000e-01
-4.000000000000000000e+00,-2.000000000000000000e+00,7.000000000000000000e+00,-2.000000000000000000e+00,-1.000000000000000000e+00,-1.000000000000000000e+00,-3.000000000000000000e+00,-3.000000000000000000e+00,3.684692382812500000e-01,2.290649414062500000e-01,-8.935546875000000000e-01,1.153564453125000000e-01
-4.000000000000000000e+00,-2.000000000000000000e+00,-2.000000000000000000e+00,4.000000000000000000e+00,-1.000000000000000000e+00,-4.000000000000000000e+00,-3.000000000000000000e+00,0.000000000000000000e+00,3.684692382812500000e-01,2.290649414062500000e-01,-8.935546875000000000e-01,1.153564453125000000e-01
3.000000000000000000e+00,-3.000000000000000000e+00,-2.000000000000000000e+00,-1.200000000000000000e+01,-1.000000000000000000e+00,-3.000000000000000000e+00,-4.000000000000000000e+00,0.000000000000000000e+00,3.684692382812500000e-01,2.290649414062500000e-01,-8.935546875000000000e-01,1.153564453125000000e-01
2.000000000000000000e+00,7.000000000000000000e+00,-1.600000000000000000e+01,0.000000000000000000e+00,-3.000000000000000000e+00,4.000000000000000000e+00,2.300000000000000000e+01,4.000000000000000000e+00,3.684692382812500000e-01,2.290649414062500000e-01,-8.935546875000000000e-01,1.153564453125000000e-01
0.000000000000000000e+00,-5.000000000000000000e+00,5.100000000000000000e+01,1.500000000000000000e+01,1.000000000000000000e+00,3.000000000000000000e+00,-4.000000000000000000e+00,-4.000000000000000000e+00,3.683471679687500000e-01,2.286987304687500000e-01,-8.936767578125000000e-01,1.155395507812500000e-01
-8.000000000000000000e+00,-1.000000000000000000e+01,-4.600000000000000000e+01,-2.400000000000000000e+01,-7.000000000000000000e+00,-1.300000000000000000e+01,-5.000000000000000000e+00,-5.000000000000000000e+00,3.683471679687500000e-01,2.286987304687500000e-01,-8.936767578125000000e-01,1.155395507812500000e-01
3.000000000000000000e+00,-2.000000000000000000e+00,2.800000000000000000e+01,-5.000000000000000000e+00,-2.000000000000000000e+00,-8.000000000000000000e+00,-4.000000000000000000e+00,-5.000000000000000000e+00,3.683471679687500000e-01,2.286987304687500000e-01,-8.936767578125000000e-01,1.155395507812500000e-01
-1.200000000000000000e+01,-1.700000000000000000e+01,1.000000000000000000e+01,-4.000000000000000000e+00,0.000000000000000000e+00,-7.000000000000000000e+00,-4.800000000000000000e+01,-4.000000000000000000e+00,3.683471679687500000e-01,2.286987304687500000e-01,-8.936767578125000000e-01,1.155395507812500000e-01
1.000000000000000000e+00,1.600000000000000000e+01,3.300000000000000000e+01,2.700000000000000000e+01,2.000000000000000000e+00,4.000000000000000000e+00,2.200000000000000000e+01,1.000000000000000000e+00,3.682250976562500000e-01,2.292480468750000000e-01,-8.935546875000000000e-01,1.159667968750000000e-01
-2.000000000000000000e+00,4.000000000000000000e+00,8.000000000000000000e+00,-5.000000000000000000e+00,-3.000000000000000000e+00,2.000000000000000000e+00,1.000000000000000000e+00,-1.000000000000000000e+00,3.682250976562500000e-01,2.292480468750000000e-01,-8.935546875000000000e-01,1.159667968750000000e-01
3.000000000000000000e+00,0.000000000000000000e+00,6.000000000000000000e+00,4.000000000000000000e+00,5.000000000000000000e+00,4.000000000000000000e+00,6.000000000000000000e+00,3.000000000000000000e+00,3.682250976562500000e-01,2.292480468750000000e-01,-8.935546875000000000e-01,1.159667968750000000e-01
5.000000000000000000e+00,6.000000000000000000e+00,2.800000000000000000e+01,1.000000000000000000e+01,0.000000000000000000e+00,-1.000000000000000000e+00,-4.000000000000000000e+00,1.000000000000000000e+00,3.682250976562500000e-01,2.292480468750000000e-01,-8.935546875000000000e-01,1.159667968750000000e-01
-7.000000000000000000e+00,-1.300000000000000000e+01,-2.600000000000000000e+01,-1.200000000000000000e+01,-4.000000000000000000e+00,-5.000000000000000000e+00,-2.000000000000000000e+00,0.000000000000000000e+00,3.681640625000000000e-01,2.299804687500000000e-01,-8.933715820312500000e-01,1.160278320312500000e-01
-1.000000000000000000e+00,2.000000000000000000e+00,1.200000000000000000e+01,5.000000000000000000e+00,-1.000000000000000000e+00,-1.000000000000000000e+00,-6.000000000000000000e+00,0.000000000000000000e+00,3.681640625000000000e-01,2.299804687500000000e-01,-8.933715820312500000e-01,1.160278320312500000e-01
-2.000000000000000000e+00,3.000000000000000000e+00,-1.300000000000000000e+01,4.000000000000000000e+00,1.000000000000000000e+00,-2.000000000000000000e+00,0.000000000000000000e+00,0.000000000000000000e+00,3.681640625000000000e-01,2.299804687500000000e-01,-8.933715820312500000e-01,1.160278320312500000e-01
4.000000000000000000e+00,6.000000000000000000e+00,9.000000000000000000e+00,1.000000000000000000e+00,0.000000000000000000e+00,0.000000000000000000e+00,1.000000000000000000e+01,0.000000000000000000e+00,3.681640625000000000e-01,2.299804687500000000e-01,-8.933715820312500000e-01,1.160278320312500000e-01
-3.000000000000000000e+00,-2.000000000000000000e+00,-2.800000000000000000e+01,-5.000000000000000000e+00,-2.000000000000000000e+00,-3.000000000000000000e+00,-1.700000000000000000e+01,-2.000000000000000000e+00,3.682861328125000000e-01,2.294921875000000000e-01,-8.934936523437500000e-01,1.154174804687500000e-01
2.000000000000000000e+00,1.000000000000000000e+00,1.300000000000000000e+01,-1.000000000000000000e+00,0.000000000000000000e+00,5.000000000000000000e+00,2.000000000000000000e+01,1.000000000000000000e+00,3.682861328125000000e-01,2.294921875000000000e-01,-8.934936523437500000e-01,1.154174804687500000e-01
-2.000000000000000000e+00,4.000000000000000000e+00,-2.700000000000000000e+01,0.000000000000000000e+00,4.000000000000000000e+00,5.000000000000000000e+00,0.000000000000000000e+00,3.000000000000000000e+00,3.682861328125000000e-01,2.294921875000000000e-01,-8.934936523437500000e-01,1.154174804687500000e-01
-5.000000000000000000e+00,-8.000000000000000000e+00,2.800000000000000000e+01,2.500000000000000000e+01,-2.000000000000000000e+00,-2.000000000000000000e+00,4.000000000000000000e+00,-4.000000000000000000e+00,3.682861328125000000e-01,2.294921875000000000e-01,-8.934936523437500000e-01,1.154174804687500000e-01
0.000000000000000000e+00,-2.000000000000000000e+00,8.000000000000000000e+00,-4.100000000000000000e+01,-5.000000000000000000e+00,-5.000000000000000000e+00,-1.300000000000000000e+01,-3.000000000000000000e+00,3.684082031250000000e-01,2.286376953125000000e-01,-8.936767578125000000e-01,1.154785156250000000e-01
-1.000000000000000000e+00,-6.000000000000000000e+00,-4.000000000000000000e+00,6.000000000000000000e+00,-5.000000000000000000e+00,-2.000000000000000000e+00,-7.000000000000000000e+00,-2.000000000000000000e+00,3.684082031250000000e-01,2.286376953125000000e-01,-8.936767578125000000e-01,1.154785156250000000e-01
-2.000000000000000000e+00,-5.000000000000000000e+00,2.500000000000000000e+01,-1.400000000000000000e+01,2.000000000000000000e+00,-2.000000000000000000e+00,-7.000000000000000000e+00,-3.000000000000000000e+00,3.684082031250000000e-01,2.286376953125000000e-01,-8.936767578125000000e-01,1.154785156250000000e-01
3.000000000000000000e+00,8.000000000000000000e+00,-9.000000000000000000e+00,4.000000000000000000e+00,4.000000000000000000e+00,3.000000000000000000e+00,8.000000000000000000e+00,3.000000000000000000e+00,3.684082031250000000e-01,2.286376953125000000e-01,-8.936767578125000000e-01,1.154785156250000000e-01
1.000000000000000000e+00,-2.000000000000000000e+00,-4.100000000000000000e+01,3.000000000000000000e+00,-1.000000000000000000e+00,-1.000000000000000000e+00,0.000000000000000000e+00,0.000000000000000000e+00,3.683471679687500000e-01,2.293090820312500000e-01,-8.934326171875000000e-01,1.163330078125000000e-01
-5.000000000000000000e+00,-7.000000000000000000e+00,1.500000000000000000e+01,0.000000000000000000e+00,-1.000000000000000000e+00,-3.000000000000000000e+00,-3.000000000000000000e+00,-1.000000000000000000e+00,3.683471679687500000e-01,2.293090820312500000e-01,-8.934326171875000000e-01,1.163330078125000000e-01
-2.000000000000000000e+00,2.000000000000000000e+00,-1.000000000000000000e+01,-5.000000000000000000e+00,-5.000000000000000000e+00,3.000000000000000000e+00,3.000000000000000000e+00,-4.000000000000000000e+00,3.683471679687500000e-01,2.293090820312500000e-01,-8.934326171875000000e-01,1.163330078125000000e-01
0.000000000000000000e+00,1.000000000000000000e+00,-3.000000000000000000e+00,-5.000000000000000000e+00,0.000000000000000000e+00,-1.000000000000000000e+00,4.000000000000000000e+00,0.000000000000000000e+00,3.683471679687500000e-01,2.293090820312500000e-01,-8.934326171875000000e-01,1.163330078125000000e-01
1.000000000000000000e+00,-6.000000000000000000e+00,-8.000000000000000000e+00,-7.000000000000000000e+00,2.000000000000000000e+00,4.000000000000000000e+00,7.000000000000000000e+00,2.000000000000000000e+00,3.682250976562500000e-01,2.299804687500000000e-01,-8.932495117187500000e-01,1.165771484375000000e-01
0.000000000000000000e+00,1.000000000000000000e+00,-7.000000000000000000e+00,1.000000000000000000e+01,-1.000000000000000000e+00,-3.000000000000000000e+00,-2.000000000000000000e+01,-1.000000000000000000e+00,3.682250976562500000e-01,2.299804687500000000e-01,-8.932495117187500000e-01,1.165771484375000000e-01
-8.000000000000000000e+00,-7.000000000000000000e+00,4.400000000000000000e+01,-1.300000000000000000e+01,-1.500000000000000000e+01,-1.400000000000000000e+01,-3.500000000000000000e+01,-8.000000000000000000e+00,3.682250976562500000e-01,2.299804687500000000e-01,-8.932495117187500000e-01,1.165771484375000000e-01
-5.000000000000000000e+00,-6.000000000000000000e+00,-7.000000000000000000e+00,-8.000000000000000000e+00,5.000000000000000000e+00,2.000000000000000000e+00,4.000000000000000000e+00,0.000000000000000000e+00,3.682250976562500000e-01,2.299804687500000000e-01,-8.932495117187500000e-01,1.165771484375000000e-01
3.000000000000000000e+00,7.000000000000000000e+00,-4.000000000000000000e+00,3.200000000000000000e+01,4.000000000000000000e+00,3.000000000000000000e+00,8.000000000000000000e+00,-1.000000000000000000e+00,3.684082031250000000e-01,2.297973632812500000e-01,-8.932495117187500000e-01,1.163940429687500000e-01
-2.000000000000000000e+00,-1.400000000000000000e+01,3.100000000000000000e+01,-1.500000000000000000e+01,-7.000000000000000000e+00,-2.000000000000000000e+00,9.000000000000000000e+00,-2.000000000000000000e+00,3.684082031250000000e-01,2.297973632812500000e-01,-8.932495117187500000e-01,1.163940429687500000e-01
-1.000000000000000000e+00,-3.000000000000000000e+00,-6.000000000000000000e+01,-1.400000000000000000e+01,-1.000000000000000000e+00,-1.000000000000000000e+00,-4.000000000000000000e+00,2.000000000000000000e+00,3.684082031250000000e-01,2.297973632812500000e-01,-8.932495117187500000e-01,1.163940429687500000e-01
0.000000000000000000e+00,-3.000000000000000000e+00,1.300000000000000000e+01,-8.000000000000000000e+00,-7.000000000000000000e+00,0.000000000000000000e+00,4.000000000000000000e+00,-2.000000000000000000e+00,3.684082031250000000e-01,2.297973632812500000e-01,-8.932495117187500000e-01,1.163940429687500000e-01
-1.000000000000000000e+00,0.000000000000000000e+00,-2.500000000000000000e+01,4.000000000000000000e+00,-2.000000000000000000e+00,-5.000000000000000000e+00,0.000000000000000000e+00,1.000000000000000000e+00,3.687744140625000000e-01,2.293701171875000000e-01,-8.932495117187500000e-01,1.164550781250000000e-01
3.000000000000000000e+00,9.000000000000000000e+00,2.600000000000000000e+01,-1.000000000000000000e+01,-1.000000000000000000e+00,-2.000000000000000000e+00,-1.300000000000000000e+01,-1.000000000000000000e+00,3.687744140625000000e-01,2.293701171875000000e-01,-8.932495117187500000e-01,1.164550781250000000e-01
1.000000000000000000e+00,3.000000000000000000e+00,-1.100000000000000000e+01,-4.000000000000000000e+00,4.000000000000000000e+00,2.000000000000000000e+00,-1.100000000000000000e+01,-3.000000000000000000e+00,3.687744140625000000e-01,2.293701171875000000e-01,-8.932495117187500000e-01,1.164550781250000000e-01
-1.000000000000000000e+00,-6.000000000000000000e+00,-2.000000000000000000e+01,-8.000000000000000000e+00,-3.000000000000000000e+00,2.000000000000000000e+00,1.700000000000000000e+01,0.000000000000000000e+00,3.687744140625000000e-01,2.293701171875000000e-01,-8.932495117187500000e-01,1.164550781250000000e-01
0.000000000000000000e+00,2.000000000000000000e+00,-2.400000000000000000e+01,6.000000000000000000e+00,-2.000000000000000000e+00,-1.000000000000000000e+00,-2.000000000000000000e+00,-3.000000000000000000e+00,3.687133789062500000e-01,2.297973632812500000e-01,-8.931274414062500000e-01,1.167602539062500000e-01
-2.000000000000000000e+00,-1.000000000000000000e+00,-7.000000000000000000e+00,-8.000000000000000000e+00,2.000000000000000000e+00,0.000000000000000000e+00,-2.000000000000000000e+00,-3.000000000000000000e+00,3.687133789062500000e-01,2.297973632812500000e-01,-8.931274414062500000e-01,1.167602539062500000e-01
-1.000000000000000000e+00,-1.000000000000000000e+00,-1.100000000000000000e+01,-2.000000000000000000e+00,-7.000000000000000000e+00,-4.000000000000000000e+00,5.000000000000000000e+00,1.000000000000000000e+00,3.687133789062500000e-01,2.297973632812500000e-01,-8.931274414062500000e-01,1.167602539062500000e-01
4.000000000000000000e+00,4.000000000000000000e+00,-1.600000000000000000e+01,-1.200000000000000000e+01,-1.000000000000000000e+00,0.000000000000000000e+00,-1.000000000000000000e+00,3.000000000000000000e+00,3.687133789062500000e-01,2.297973632812500000e-01,-8.931274414062500000e-01,1.167602539062500000e-01
-2.000000000000000000e+00,5.000000000000000000e+00,-6.000000000000000000e+00,-1.600000000000000000e+01,3.000000000000000000e+00,2.000000000000000000e+00,-7.000000000000000000e+00,-2.000000000000000000e+00,3.687133789062500000e-01,2.304687500000000000e-01,-8.928833007812500000e-01,1.170043945312500000e-01
-6.000000000000000000e+00,-2.000000000000000000e+00,3.800000000000000000e+01,2.700000000000000000e+01,-1.000000000000000000e+00,2.000000000000000000e+00,-5.000000000000000000e+00,-5.000000000000000000e+00,3.687133789062500000e-01,2.304687500000000000e-01,-8.928833007812500000e-01,1.170043945312500000e-01
1.000000000000000000e+00,-6.000000000000000000e+00,-3.000000000000000000e+01,-5.000000000000000000e+00,-5.000000000000000000e+00,-4.000000000000000000e+00,6.000000000000000000e+00,-2.000000000000000000e+00,3.687133789062500000e-01,2.304687500000000000e-01,-8.928833007812500000e-01,1.170043945312500000e-01
-2.000000000000000000e+00,3.000000000000000000e+00,-1.500000000000000000e+01,-6.000000000000000000e+00,-7.000000000000000000e+00,-3.000000000000000000e+00,-1.200000000000000000e+01,-2.000000000000000000e+00,3.687133789062500000e-01,2.304687500000000000e-01,-8.928833007812500000e-01,1.170043945312500000e-01
-2.000000000000000000e+00,-5.000000000000000000e+00,2.500000000000000000e+01,2.000000000000000000e+00,-2.000000000000000000e+00,-2.000000000000000000e+00,4.000000000000000000e+00,-2.000000000000000000e+00,3.687133789062500000e-01,2.303466796875000000e-01,-8.929443359375000000e-01,1.168823242187500000e-01
-3.000000000000000000e+00,-2.000000000000000000e+00,6.000000000000000000e+00,1.900000000000000000e+01,3.000000000000000000e+00,-4.000000000000000000e+00,-8.000000000000000000e+00,1.000000000000000000e+00,3.687133789062500000e-01,2.303466796875000000e-01,-8.929443359375000000e-01,1.168823242187500000e-01
5.000000000000000000e+00,5.000000000000000000e+00,4.000000000000000000e+00,-2.000000000000000000e+00,3.000000000000000000e+00,6.000000000000000000e+00,1.100000000000000000e+01,0.000000000000000000e+00,3.687133789062500000e-01,2.303466796875000000e-01,-8.929443359375000000e-01,1.168823242187500000e-01
1.000000000000000000e+00,-7.000000000000000000e+00,-4.000000000000000000e+00,7.000000000000000000e+00,3.000000000000000000e+00,2.000000000000000000e+00,-3.000000000000000000e+00,-2.000000000000000000e+00,3.687133789062500000e-01,2.303466796875000000e-01,-8.929443359375000000e-01,1.168823242187500000e-01
-7.000000000000000000e+00,-4.000000000000000000e+00,8.000000000000000000e+00,-9.000000000000000000e+00,-6.000000000000000000e+00,-8.000000000000000000e+00,-4.000000000000000000e+00,-2.000000000000000000e+00,3.688964843750000000e-01,2.301025390625000000e-01,-8.929443359375000000e-01,1.166992187500000000e-01
4.000000000000000000e+00,8.000000000000000000e+00,6.000000000000000000e+00,1.200000000000000000e+01,6.000000000000000000e+00,2.000000000000000000e+00,2.000000000000000000e+00,2.000000000000000000e+00,3.688964843750000000e-01,2.301025390625000000e-01,-8.929443359375000000e-01,1.166992187500000000e-01
-4.000000000000000000e+00,-5.000000000000000000e+00,-2.700000000000000000e+01,4.000000000000000000e+00,0.000000000000000000e+00,-2.000000000000000000e+00,3.000000000000000000e+00,3.000000000000000000e+00,3.688964843750000000e-01,2.301025390625000000e-01,-8.929443359375000000e-01,1.166992187500000000e-01
3.000000000000000000e+00,1.000000000000000000e+00,1.600000000000000000e+01,6.000000000000000000e+00,2.000000000000000000e+00,3.000000000000000000e+00,-2.000000000000000000e+00,0.000000000000000000e+00,3.688964843750000000e-01,2.301025390625000000e-01,-8.929443359375000000e-01,1.166992187500000000e-01
1.000000000000000000e+00,0.000000000000000000e+00,7.000000000000000000e+00,-7.000000000000000000e+00,-2.000000000000000000e+00,-1.000000000000000000e+00,-2.000000000000000000e+00,-1.000000000000000000e+00,3.688964843750000000e-01,2.301025390625000000e-01,-8.929443359375000000e-01,1.166992187500000000e-01
2.000000000000000000e+00,0.000000000000000000e+00,-4.800000000000000000e+01,5.000000000000000000e+00,-1.000000000000000000e+00,-3.000000000000000000e+00,5.000000000000000000e+00,0.000000000000000000e+00,3.688964843750000000e-01,2.301025390625000000e-01,-8.929443359375000000e-01,1.166992187500000000e-01
-5.000000000000000000e+00,-3.000000000000000000e+00,5.600000000000000000e+01,1.300000000000000000e+01,-8.000000000000000000e+00,-7.000000000000000000e+00,4.000000000000000000e+00,-3.000000000000000000e+00,3.688964843750000000e-01,2.301025390625000000e-01,-8.929443359375000000e-01,1.166992187500000000e-01
-1.000000000000000000e+00,1.000000000000000000e+00,2.000000000000000000e+01,-2.500000000000000000e+01,-7.000000000000000000e+00,-6.000000000000000000e+00,-1.600000000000000000e+01,-5.000000000000000000e+00,3.688964843750000000e-01,2.301025390625000000e-01,-8.929443359375000000e-01,1.166992187500000000e-01
-4.000000000000000000e+00,-1.300000000000000000e+01,-1.500000000000000000e+01,-3.000000000000000000e+00,2.000000000000000000e+00,2.000000000000000000e+00,2.000000000000000000e+00,-1.000000000000000000e+00,3.689575195312500000e-01,2.302246093750000000e-01,-8.928222656250000000e-01,1.170043945312500000e-01
0.000000000000000000e+00,4.000000000000000000e+00,6.000000000000000000e+00,4.000000000000000000e+00,4.000000000000000000e+00,-4.000000000000000000e+00,-3.100000000000000000e+01,-2.000000000000000000e+00,3.689575195312500000e-01,2.302246093750000000e-01,-8.928222656250000000e-01,1.170043945312500000e-01
2.000000000000000000e+00,6.000000000000000000e+00,1.000000000000000000e+01,1.700000000000000000e+01,5.000000000000000000e+00,1.000000000000000000e+01,4.000000000000000000e+01,4.000000000000000000e+00,3.689575195312500000e-01,2.302246093750000000e-01,-8.928222656250000000e-01,1.170043945312500000e-01
-2.000000000000000000e+00,1.000000000000000000e+00,-2.400000000000000000e+01,6.000000000000000000e+00,-4.000000000000000000e+00,-4.000000000000000000e+00,3.000000000000000000e+00,-2.000000000000000000e+00,3.689575195312500000e-01,2.302246093750000000e-01,-8.928222656250000000e-01,1.170043945312500000e-01
-1.000000000000000000e+00,-1.000000000000000000e+00,2.100000000000000000e+01,1.000000000000000000e+00,-2.000000000000000000e+00,-5.000000000000000000e+00,-8.000000000000000000e+00,0.000000000000000000e+00,3.687744140625000000e-01,2.306518554687500000e-01,-8.927612304687500000e-01,1.172485351562500000e-01
3.000000000000000000e+00,5.000000000000000000e+00,1.200000000000000000e+01,-1.200000000000000000e+01,-5.000000000000000000e+00,2.000000000000000000e+00,1.200000000000000000e+01,0.000000000000000000e+00,3.687744140625000000e-01,2.306518554687500000e-01,-8.927612304687500000e-01,1.172485351562500000e-01
0.000000000000000000e+00,-1.000000000000000000e+00,8.000000000000000000e+00,3.000000000000000000e+00,1.000000000000000000e+00,0.000000000000000000e+00,-1.600000000000000000e+01,-2.000000000000000000e+00,3.687744140625000000e-01,2.306518554687500000e-01,-8.927612304687500000e-01,1.172485351562500000e-01
-3.000000000000000000e+00,4.000000000000000000e+00,6.000000000000000000e+00,5.000000000000000000e+00,2.000000000000000000e+00,-4.000000000000000000e+00,0.000000000000000000e+00,-1.000000000000000000e+00,3.687744140625000000e-01,2.306518554687500000e-01,-8.927612304687500000e-01,1.172485351562500000e-01
0.000000000000000000e+00,1.000000000000000000e+00,1.000000000000000000e+00,-3.000000000000000000e+00,-7.000000000000000000e+00,0.000000000000000000e+00,5.000000000000000000e+00,-2.000000000000000000e+00,3.687744140625000000e-01,2.306518554687500000e-01,-8.927612304687500000e-01,1.172485351562500000e-01
2.000000000000000000e+00,2.000000000000000000e+00,2.500000000000000000e+01,5.000000000000000000e+00,3.000000000000000000e+00,1.000000000000000000e+00,6.000000000000000000e+00,0.000000000000000000e+00,3.687744140625000000e-01,2.306518554687500000e-01,-8.927612304687500000e-01,1.172485351562500000e-01
-1.000000000000000000e+00,-4.000000000000000000e+00,-4.700000000000000000e+01,-1.400000000000000000e+01,-1.000000000000000000e+00,-3.000000000000000000e+00,-7.000000000000000000e+00,-1.000000000000000000e+00,3.687744140625000000e-01,2.306518554687500000e-01,-8.927612304687500000e-01,1.172485351562500000e-01
2.000000000000000000e+00,-3.000000000000000000e+00,-1.300000000000000000e+01,-6.000000000000000000e+00,1.000000000000000000e+00,2.000000000000000000e+00,4.000000000000000000e+00,-1.000000000000000000e+00,3.687744140625000000e-01,2.306518554687500000e-01,-8.927612304687500000e-01,1.172485351562500000e-01
-2.000000000000000000e+00,1.000000000000000000e+00,7.000000000000000000e+00,5.000000000000000000e+00,3.000000000000000000e+00,-3.000000000000000000e+00,-1.300000000000000000e+01,0.000000000000000000e+00,3.686523437500000000e-01,2.304077148437500000e-01,-8.928833007812500000e-01,1.173095703125000000e-01
-6.000000000000000000e+00,-1.000000000000000000e+01,-5.000000000000000000e+00,-6.000000000000000000e+00,-7.000000000000000000e+00,-5.000000000000000000e+00,8.000000000000000000e+00,-1.000000000000000000e+00,3.686523437500000000e-01,2.304077148437500000e-01,-8.928833007812500000e-01,1.173095703125000000e-01
1.000000000000000000e+00,6.000000000000000000e+00,1.700000000000000000e+01,0.000000000000000000e+00,4.000000000000000000e+00,5.000000000000000000e+00,-4.000000000000000000e+00,0.000000000000000000e+00,3.686523437500000000e-01,2.304077148437500000e-01,-8.928833007812500000e-01,1.173095703125000000e-01
2.000000000000000000e+00,3.000000000000000000e+00,-3.000000000000000000e+00,3.800000000000000000e+01,4.000000000000000000e+00,2.000000000000000000e+00,5.000000000000000000e+00,2.000000000000000000e+00,3.686523437500000000e-01,2.304077148437500000e-01,-8.928833007812500000e-01,1.173095703125000000e-01
-1.000000000000000000e+00,-1.200000000000000000e+01,-1.500000000000000000e+01,-3.700000000000000000e+01,-7.000000000000000000e+00,-6.000000000000000000e+00,-1.200000000000000000e+01,-6.000000000000000000e+00,3.687133789062500000e-01,2.300415039062500000e-01,-8.929443359375000000e-01,1.173095703125000000e-01
-5.000000000000000000e+00,-5.000000000000000000e+00,-3.300000000000000000e+01,-1.800000000000000000e+01,-7.000000000000000000e+00,-8.000000000000000000e+00,-1.000000000000000000e+00,-1.000000000000000000e+00,3.687133789062500000e-01,2.300415039062500000e-01,-8.929443359375000000e-01,1.173095703125000000e-01
0.000000000000000000e+00,4.000000000000000000e+00,-3.300000000000000000e+01,3.000000000000000000e+00,-1.000000000000000000e+00,-2.000000000000000000e+00,-3.000000000000000000e+00,-2.000000000000000000e+00,3.687133789062500000e-01,2.300415039062500000e-01,-8.929443359375000000e-01,1.173095703125000000e-01
-4.000000000000000000e+00,-1.200000000000000000e+01,1.300000000000000000e+01,-2.000000000000000000e+00,-3.000000000000000000e+00,2.000000000000000000e+00,6.000000000000000000e+00,-1.000000000000000000e+00,3.687133789062500000e-01,2.300415039062500000e-01,-8.929443359375000000e-01,1.173095703125000000e-01
1.000000000000000000e+00,9.000000000000000000e+00,8.000000000000000000e+00,1.000000000000000000e+01,3.000000000000000000e+00,3.000000000000000000e+00,6.000000000000000000e+00,2.000000000000000000e+00,3.684692382812500000e-01,2.305908203125000000e-01,-8.928833007812500000e-01,1.176147460937500000e-01
0.000000000000000000e+00,-5.000000000000000000e+00,-2.500000000000000000e+01,-6.000000000000000000e+00,1.000000000000000000e+00,0.000000000000000000e+00,1.000000000000000000e+00,0.000000000000000000e+00,3.684692382812500000e-01,2.305908203125000000e-01,-8.928833007812500000e-01,1.176147460937500000e-01
-1.000000000000000000e+00,-1.000000000000000000e+01,-3.500000000000000000e+01,-1.700000000000000000e+01,1.000000000000000000e+00,1.000000000000000000e+00,-5.000000000000000000e+00,-1.000000000000000000e+00,3.684692382812500000e-01,2.305908203125000000e-01,-8.928833007812500000e-01,1.176147460937500000e-01
-4.000000000000000000e+00,-3.000000000000000000e+00,-2.800000000000000000e+01,1.100000000000000000e+01,-8.000000000000000000e+00,-9.000000000000000000e+00,-7.000000000000000000e+00,-2.000000000000000000e+00,3.684692382812500000e-01,2.305908203125000000e-01,-8.928833007812500000e-01,1.176147460937500000e-01
-2.000000000000000000e+00,-3.000000000000000000e+00,2.600000000000000000e+01,-3.100000000000000000e+01,-1.000000000000000000e+01,0.000000000000000000e+00,-5.000000000000000000e+00,-2.000000000000000000e+00,3.682250976562500000e-01,2.307128906250000000e-01,-8.929443359375000000e-01,1.176757812500000000e-01
-4.000000000000000000e+00,-6.000000000000000000e+00,5.900000000000000000e+01,5.000000000000000000e+00,3.000000000000000000e+00,0.000000000000000000e+00,-2.100000000000000000e+01,-6.000000000000000000e+00,3.682250976562500000e-01,2.307128906250000000e-01,-8.929443359375000000e-01,1.176757812500000000e-01
0.000000000000000000e+00,6.000000000000000000e+00,-7.000000000000000000e+00,1.000000000000000000e+01,-1.000000000000000000e+00,1.000000000000000000e+00,4.300000000000000000e+01,0.000000000000000000e+00,3.682250976562500000e-01,2.307128906250000000e-01,-8.929443359375000000e-01,1.176757812500000000e-01
-2.000000000000000000e+00,-1.300000000000000000e+01,-4.300000000000000000e+01,-2.600000000000000000e+01,-1.000000000000000000e+00,0.000000000000000000e+00,-3.000000000000000000e+00,2.000000000000000000e+00,3.682250976562500000e-01,2.307128906250000000e-01,-8.929443359375000000e-01,1.176757812500000000e-01
-2.000000000000000000e+00,-2.000000000000000000e+00,-6.000000000000000000e+00,1.200000000000000000e+01,-1.000000000000000000e+00,-2.000000000000000000e+00,-2.000000000000000000e+00,-2.000000000000000000e+00,3.679809570312500000e-01,2.310791015625000000e-01,-8.929443359375000000e-01,1.178588867187500000e-01
4.000000000000000000e+00,5.000000000000000000e+00,-1.200000000000000000e+01,1.700000000000000000e+01,1.000000000000000000e+00,1.000000000000000000e+00,-1.000000000000000000e+00,5.000000000000000000e+00,3.679809570312500000e-01,2.310791015625000000e-01,-8.929443359375000000e-01,1.178588867187500000e-01
