-4.000000000000000000e+00,-3.000000000000000000e+00,-2.400000000000000000e+01,-7.000000000000000000e+00,-8.000000000000000000e+00,-7.000000000000000000e+00,-2.000000000000000000e+00,-3.000000000000000000e+00,4.436645507812500000e-01,1.896362304687500000e-01,-8.636474609375000000e-01,1.459350585937500000e-01
-2.600000000000000000e+01,-1.200000000000000000e+01,9.000000000000000000e+00,1.100000000000000000e+01,1.000000000000000000e+01,0.000000000000000000e+00,-3.000000000000000000e+00,-4.000000000000000000e+00,4.436645507812500000e-01,1.896362304687500000e-01,-8.636474609375000000e-01,1.459350585937500000e-01
1.300000000000000000e+01,-7.000000000000000000e+00,-8.000000000000000000e+00,-7.000000000000000000e+00,-1.200000000000000000e+01,-5.000000000000000000e+00,0.000000000000000000e+00,1.000000000000000000e+00,4.436645507812500000e-01,1.896362304687500000e-01,-8.636474609375000000e-01,1.459350585937500000e-01
4.000000000000000000e+00,0.000000000000000000e+00,2.000000000000000000e+00,-3.000000000000000000e+00,-7.000000000000000000e+00,-4.000000000000000000e+00,-2.000000000000000000e+00,-2.000000000000000000e+00,4.436645507812500000e-01,1.896362304687500000e-01,-8.636474609375000000e-01,1.459350585937500000e-01
4.000000000000000000e+00,6.000000000000000000e+00,3.000000000000000000e+00,0.000000000000000000e+00,-6.000000000000000000e+00,0.000000000000000000e+00,-4.000000000000000000e+00,1.000000000000000000e+00,4.428100585937500000e-01,1.896972656250000000e-01,-8.640136718750000000e-01,1.465454101562500000e-01
-3.000000000000000000e+00,8.000000000000000000e+00,-3.000000000000000000e+00,0.000000000000000000e+00,1.200000000000000000e+01,3.000000000000000000e+00,0.000000000000000000e+00,2.000000000000000000e+00,4.428100585937500000e-01,1.896972656250000000e-01,-8.640136718750000000e-01,1.465454101562500000e-01
-2.000000000000000000e+00,-3.000000000000000000e+00,-8.000000000000000000e+00,-2.000000000000000000e+00,4.000000000000000000e+00,6.000000000000000000e+00,3.000000000000000000e+00,-5.000000000000000000e+00,4.428100585937500000e-01,1.896972656250000000e-01,-8.640136718750000000e-01,1.465454101562500000e-01
-3.000000000000000000e+00,0.000000000000000000e+00,8.000000000000000000e+00,0.000000000000000000e+00,0.000000000000000000e+00,1.000000000000000000e+00,0.000000000000000000e+00,-1.000000000000000000e+00,4.428100585937500000e-01,1.896972656250000000e-01,-8.640136718750000000e-01,1.465454101562500000e-01
0.000000000000000000e+00,7.000000000000000000e+00,2.000000000000000000e+00,3.000000000000000000e+00,0.000000000000000000e+00,1.000000000000000000e+00,-2.000000000000000000e+00,-1.000000000000000000e+00,4.418945312500000000e-01,1.897583007812500000e-01,-8.643188476562500000e-01,1.471557617187500000e-01
1.800000000000000000e+01,-4.000000000000000000e+00,-8.000000000000000000e+00,-6.000000000000000000e+00,-8.000000000000000000e+00,-2.000000000000000000e+00,1.000000000000000000e+00,2.000000000000000000e+00,4.418945312500000000e-01,1.897583007812500000e-01,-8.643188476562500000e-01,1.471557617187500000e-01
-3.600000000000000000e+01,-5.000000000000000000e+00,6.000000000000000000e+00,-2.000000000000000000e+00,-8.000000000000000000e+00,-1.000000000000000000e+01,-2.000000000000000000e+00,0.000000000000000000e+00,4.418945312500000000e-01,1.897583007812500000e-01,-8.643188476562500000e-01,1.471557617187500000e-01
-4.000000000000000000e+00,-3.000000000000000000e+01,-9.000000000000000000e+00,-1.400000000000000000e+01,-1.000000000000000000e+01,-5.000000000000000000e+00,-2.000000000000000000e+00,-3.000000000000000000e+00,4.418945312500000000e-01,1.897583007812500000e-01,-8.643188476562500000e-01,1.471557617187500000e-01
-9.000000000000000000e+00,-1.000000000000000000e+00,8.000000000000000000e+00,5.000000000000000000e+00,6.000000000000000000e+00,-1.000000000000000000e+00,0.000000000000000000e+00,-3.000000000000000000e+00,4.410400390625000000e-01,1.901855468750000000e-01,-8.645629882812500000e-01,1.478881835937500000e-01
5.000000000000000000e+00,-7.000000000000000000e+00,-1.200000000000000000e+01,1.000000000000000000e+00,8.000000000000000000e+00,6.000000000000000000e+00,1.000000000000000000e+00,0.000000000000000000e+00,4.410400390625000000e-01,1.901855468750000000e-01,-8.645629882812500000e-01,1.478881835937500000e-01
1.800000000000000000e+01,1.600000000000000000e+01,1.800000000000000000e+01,1.000000000000000000e+00,-2.000000000000000000e+00,1.000000000000000000e+00,-1.000000000000000000e+00,1.000000000000000000e+00,4.410400390625000000e-01,1.901855468750000000e-01,-8.645629882812500000e-01,1.478881835937500000e-01
4.000000000000000000e+00,5.000000000000000000e+00,-3.000000000000000000e+00,-1.000000000000000000e+00,-4.000000000000000000e+00,-4.000000000000000000e+00,-4.000000000000000000e+00,3.000000000000000000e+00,4.410400390625000000e-01,1.901855468750000000e-01,-8.645629882812500000e-01,1.478881835937500000e-01
-6.000000000000000000e+00,8.000000000000000000e+00,-9.000000000000000000e+00,0.000000000000000000e+00,-4.000000000000000000e+00,0.000000000000000000e+00,2.000000000000000000e+00,1.000000000000000000e+00,4.402465820312500000e-01,1.905517578125000000e-01,-8.648681640625000000e-01,1.481933593750000000e-01
1.000000000000000000e+01,-1.100000000000000000e+01,4.000000000000000000e+00,-2.000000000000000000e+00,0.000000000000000000e+00,-1.000000000000000000e+00,-5.000000000000000000e+00,-4.000000000000000000e+00,4.402465820312500000e-01,1.905517578125000000e-01,-8.648681640625000000e-01,1.481933593750000000e-01
-5.000000000000000000e+00,-1.400000000000000000e+01,-5.000000000000000000e+00,-1.000000000000000000e+00,3.000000000000000000e+00,2.000000000000000000e+00,-2.000000000000000000e+00,-2.000000000000000000e+00,4.402465820312500000e-01,1.905517578125000000e-01,-8.648681640625000000e-01,1.481933593750000000e-01
0.000000000000000000e+00,7.000000000000000000e+00,-2.000000000000000000e+01,-5.000000000000000000e+00,-3.000000000000000000e+00,-1.000000000000000000e+00,1.000000000000000000e+00,-3.000000000000000000e+00,4.402465820312500000e-01,1.905517578125000000e-01,-8.648681640625000000e-01,1.481933593750000000e-01
6.000000000000000000e+00,-2.000000000000000000e+00,5.000000000000000000e+00,2.000000000000000000e+00,2.000000000000000000e+00,1.000000000000000000e+00,-3.000000000000000000e+00,-5.000000000000000000e+00,4.397583007812500000e-01,1.901855468750000000e-01,-8.651123046875000000e-01,1.481933593750000000e-01
2.000000000000000000e+00,2.000000000000000000e+01,-5.000000000000000000e+00,-7.000000000000000000e+00,-8.000000000000000000e+00,-6.000000000000000000e+00,-2.000000000000000000e+00,4.000000000000000000e+00,4.397583007812500000e-01,1.901855468750000000e-01,-8.651123046875000000e-01,1.481933593750000000e-01
-4.000000000000000000e+00,1.000000000000000000e+00,-7.000000000000000000e+00,-6.000000000000000000e+00,-4.000000000000000000e+00,2.000000000000000000e+00,-1.000000000000000000e+00,-1.000000000000000000e+00,4.397583007812500000e-01,1.901855468750000000e-01,-8.651123046875000000e-01,1.481933593750000000e-01
4.000000000000000000e+00,-3.000000000000000000e+00,-7.000000000000000000e+00,-2.000000000000000000e+00,1.000000000000000000e+00,3.000000000000000000e+00,1.000000000000000000e+00,-3.000000000000000000e+00,4.397583007812500000e-01,1.901855468750000000e-01,-8.651123046875000000e-01,1.481933593750000000e-01
-5.000000000000000000e+00,-1.100000000000000000e+01,-2.000000000000000000e+00,0.000000000000000000e+00,1.000000000000000000e+00,-3.000000000000000000e+00,2.000000000000000000e+00,1.000000000000000000e+00,4.394531250000000000e-01,1.898193359375000000e-01,-8.653564453125000000e-01,1.483154296875000000e-01
-8.000000000000000000e+00,-1.000000000000000000e+00,-4.000000000000000000e+00,-8.000000000000000000e+00,-6.000000000000000000e+00,-3.000000000000000000e+00,1.000000000000000000e+00,-2.000000000000000000e+00,4.394531250000000000e-01,1.898193359375000000e-01,-8.653564453125000000e-01,1.483154296875000000e-01
1.100000000000000000e+01,4.000000000000000000e+00,-4.000000000000000000e+00,0.000000000000000000e+00,-2.000000000000000000e+00,-4.000000000000000000e+00,-2.000000000000000000e+00,0.000000000000000000e+00,4.394531250000000000e-01,1.898193359375000000e-01,-8.653564453125000000e-01,1.483154296875000000e-01
-1.500000000000000000e+01,-8.000000000000000000e+00,1.900000000000000000e+01,3.000000000000000000e+00,5.000000000000000000e+00,5.000000000000000000e+00,-3.000000000000000000e+00,-1.000000000000000000e+00,4.394531250000000000e-01,1.898193359375000000e-01,-8.653564453125000000e-01,1.483154296875000000e-01
6.000000000000000000e+00,0.000000000000000000e+00,-1.000000000000000000e+01,-5.000000000000000000e+00,-9.000000000000000000e+00,-5.000000000000000000e+00,6.000000000000000000e+00,1.000000000000000000e+00,4.389648437500000000e-01,1.898193359375000000e-01,-8.655395507812500000e-01,1.487426757812500000e-01
-7.000000000000000000e+00,0.000000000000000000e+00,7.000000000000000000e+00,1.000000000000000000e+01,7.000000000000000000e+00,4.000000000000000000e+00,2.000000000000000000e+00,0.000000000000000000e+00,4.389648437500000000e-01,1.898193359375000000e-01,-8.655395507812500000e-01,1.487426757812500000e-01
7.000000000000000000e+00,-3.000000000000000000e+00,-3.000000000000000000e+00,-2.000000000000000000e+00,3.000000000000000000e+00,2.000000000000000000e+00,6.000000000000000000e+00,-1.000000000000000000e+00,4.389648437500000000e-01,1.898193359375000000e-01,-8.655395507812500000e-01,1.487426757812500000e-01
1.000000000000000000e+00,7.000000000000000000e+00,8.000000000000000000e+00,-4.000000000000000000e+00,-7.000000000000000000e+00,-7.000000000000000000e+00,-7.000000000000000000e+00,-3.000000000000000000e+00,4.389648437500000000e-01,1.898193359375000000e-01,-8.655395507812500000e-01,1.487426757812500000e-01
-8.000000000000000000e+00,-6.000000000000000000e+00,9.000000000000000000e+00,-2.000000000000000000e+00,-4.000000000000000000e+00,-3.000000000000000000e+00,-8.000000000000000000e+00,-5.000000000000000000e+00,4.382324218750000000e-01,1.900634765625000000e-01,-8.657836914062500000e-01,1.492309570312500000e-01
6.000000000000000000e+00,6.000000000000000000e+00,-1.300000000000000000e+01,-7.000000000000000000e+00,-5.000000000000000000e+00,-7.000000000000000000e+00,0.000000000000000000e+00,-1.000000000000000000e+00,4.382324218750000000e-01,1.900634765625000000e-01,-8.657836914062500000e-01,1.492309570312500000e-01
-2.000000000000000000e+01,-1.400000000000000000e+01,-1.200000000000000000e+01,-3.000000000000000000e+00,-2.000000000000000000e+00,1.000000000000000000e+00,-2.000000000000000000e+00,-1.000000000000000000e+00,4.382324218750000000e-01,1.900634765625000000e-01,-8.657836914062500000e-01,1.492309570312500000e-01
-3.000000000000000000e+00,-6.000000000000000000e+00,-5.000000000000000000e+00,0.000000000000000000e+00,4.000000000000000000e+00,-1.000000000000000000e+00,-3.000000000000000000e+00,-3.000000000000000000e+00,4.382324218750000000e-01,1.900634765625000000e-01,-8.657836914062500000e-01,1.492309570312500000e-01
-2.000000000000000000e+00,-7.000000000000000000e+00,7.000000000000000000e+00,1.000000000000000000e+00,-4.000000000000000000e+00,1.000000000000000000e+00,0.000000000000000000e+00,-2.000000000000000000e+00,4.377441406250000000e-01,1.904296875000000000e-01,-8.659667968750000000e-01,1.492309570312500000e-01
-6.000000000000000000e+00,3.000000000000000000e+00,-7.000000000000000000e+00,-2.000000000000000000e+00,7.000000000000000000e+00,0.000000000000000000e+00,-3.000000000000000000e+00,-2.000000000000000000e+00,4.377441406250000000e-01,1.904296875000000000e-01,-8.659667968750000000e-01,1.492309570312500000e-01
3.000000000000000000e+01,1.300000000000000000e+01,1.000000000000000000e+00,1.000000000000000000e+00,-1.000000000000000000e+00,1.000000000000000000e+00,1.000000000000000000e+00,3.000000000000000000e+00,4.377441406250000000e-01,1.904296875000000000e-01,-8.659667968750000000e-01,1.492309570312500000e-01
-3.900000000000000000e+01,5.000000000000000000e+00,2.000000000000000000e+00,5.000000000000000000e+00,4.000000000000000000e+00,4.000000000000000000e+00,2.000000000000000000e+00,-2.000000000000000000e+00,4.377441406250000000e-01,1.904296875000000000e-01,-8.659667968750000000e-01,1.492309570312500000e-01
0.000000000000000000e+00,-1.200000000000000000e+01,-1.100000000000000000e+01,-1.300000000000000000e+01,-7.000000000000000000e+00,-6.000000000000000000e+00,-1.000000000000000000e+00,-1.000000000000000000e+00,4.373779296875000000e-01,1.900024414062500000e-01,-8.662719726562500000e-01,1.489868164062500000e-01
0.000000000000000000e+00,-5.000000000000000000e+00,2.000000000000000000e+00,-1.000000000000000000e+00,-4.000000000000000000e+00,-2.000000000000000000e+00,-5.000000000000000000e+00,-3.000000000000000000e+00,4.373779296875000000e-01,1.900024414062500000e-01,-8.662719726562500000e-01,1.489868164062500000e-01
0.000000000000000000e+00,-8.000000000000000000e+00,-1.900000000000000000e+01,-6.000000000000000000e+00,-5.000000000000000000e+00,-4.000000000000000000e+00,-3.000000000000000000e+00,-3.000000000000000000e+00,4.373779296875000000e-01,1.900024414062500000e-01,-8.662719726562500000e-01,1.489868164062500000e-01
1.300000000000000000e+01,-1.000000000000000000e+00,4.000000000000000000e+00,5.000000000000000000e+00,5.000000000000000000e+00,2.000000000000000000e+00,1.000000000000000000e+00,0.000000000000000000e+00,4.373779296875000000e-01,1.900024414062500000e-01,-8.662719726562500000e-01,1.489868164062500000e-01
1.000000000000000000e+00,1.000000000000000000e+00,-9.000000000000000000e+00,-2.000000000000000000e+00,4.000000000000000000e+00,1.000000000000000000e+00,-4.000000000000000000e+00,2.000000000000000000e+00,4.370117187500000000e-01,1.895141601562500000e-01,-8.665771484375000000e-01,1.488647460937500000e-01
-1.200000000000000000e+01,-2.000000000000000000e+00,5.000000000000000000e+00,-1.000000000000000000e+00,-7.000000000000000000e+00,-5.000000000000000000e+00,-8.000000000000000000e+00,0.000000000000000000e+00,4.370117187500000000e-01,1.895141601562500000e-01,-8.665771484375000000e-01,1.488647460937500000e-01
-1.000000000000000000e+00,0.000000000000000000e+00,7.000000000000000000e+00,-7.000000000000000000e+00,1.000000000000000000e+00,-6.000000000000000000e+00,1.000000000000000000e+00,-1.000000000000000000e+00,4.370117187500000000e-01,1.895141601562500000e-01,-8.665771484375000000e-01,1.488647460937500000e-01
1.200000000000000000e+01,1.300000000000000000e+01,3.000000000000000000e+00,6.000000000000000000e+00,-5.000000000000000000e+00,-2.000000000000000000e+00,1.000000000000000000e+00,2.000000000000000000e+00,4.370117187500000000e-01,1.895141601562500000e-01,-8.665771484375000000e-01,1.488647460937500000e-01
3.000000000000000000e+00,7.000000000000000000e+00,-2.000000000000000000e+00,-4.000000000000000000e+00,6.000000000000000000e+00,3.000000000000000000e+00,5.000000000000000000e+00,4.000000000000000000e+00,4.365234375000000000e-01,1.894531250000000000e-01,-8.667602539062500000e-01,1.491699218750000000e-01
-5.000000000000000000e+00,-2.000000000000000000e+00,-3.000000000000000000e+00,3.000000000000000000e+00,5.000000000000000000e+00,2.000000000000000000e+00,5.000000000000000000e+00,0.000000000000000000e+00,4.365234375000000000e-01,1.894531250000000000e-01,-8.667602539062500000e-01,1.491699218750000000e-01
-1.500000000000000000e+01,-1.900000000000000000e+01,2.000000000000000000e+00,1.000000000000000000e+00,-6.000000000000000000e+00,0.000000000000000000e+00,-1.000000000000000000e+00,-2.000000000000000000e+00,4.365234375000000000e-01,1.894531250000000000e-01,-8.667602539062500000e-01,1.491699218750000000e-01
9.000000000000000000e+00,1.400000000000000000e+01,6.000000000000000000e+00,0.000000000000000000e+00,-1.000000000000000000e+00,1.000000000000000000e+00,-3.000000000000000000e+00,-5.000000000000000000e+00,4.365234375000000000e-01,1.894531250000000000e-01,-8.667602539062500000e-01,1.491699218750000000e-01
-6.000000000000000000e+00,-7.000000000000000000e+00,-3.000000000000000000e+00,2.000000000000000000e+00,4.000000000000000000e+00,-1.000000000000000000e+00,-1.000000000000000000e+00,-3.000000000000000000e+00,4.359130859375000000e-01,1.895751953125000000e-01,-8.670043945312500000e-01,1.494750976562500000e-01
2.000000000000000000e+00,7.000000000000000000e+00,-2.000000000000000000e+00,-5.000000000000000000e+00,-6.000000000000000000e+00,-3.000000000000000000e+00,-1.000000000000000000e+00,-3.000000000000000000e+00,4.359130859375000000e-01,1.895751953125000000e-01,-8.670043945312500000e-01,1.494750976562500000e-01
1.000000000000000000e+00,1.000000000000000000e+01,7.000000000000000000e+00,5.000000000000000000e+00,1.000000000000000000e+00,-2.000000000000000000e+00,-2.000000000000000000e+00,2.000000000000000000e+00,4.359130859375000000e-01,1.895751953125000000e-01,-8.670043945312500000e-01,1.494750976562500000e-01
0.000000000000000000e+00,-1.000000000000000000e+00,1.000000000000000000e+01,1.000000000000000000e+00,0.000000000000000000e+00,-2.000000000000000000e+00,1.000000000000000000e+00,0.000000000000000000e+00,4.359130859375000000e-01,1.895751953125000000e-01,-8.670043945312500000e-01,1.494750976562500000e-01
4.000000000000000000e+00,-3.000000000000000000e+00,-2.500000000000000000e+01,-5.000000000000000000e+00,-6.000000000000000000e+00,-2.000000000000000000e+00,-4.000000000000000000e+00,-4.000000000000000000e+00,4.354858398437500000e-01,1.895141601562500000e-01,-8.672485351562500000e-01,1.495971679687500000e-01
-1.600000000000000000e+01,-8.000000000000000000e+00,3.100000000000000000e+01,8.000000000000000000e+00,3.000000000000000000e+00,2.000000000000000000e+00,2.000000000000000000e+00,-3.000000000000000000e+00,4.354858398437500000e-01,1.895141601562500000e-01,-8.672485351562500000e-01,1.495971679687500000e-01
3.000000000000000000e+00,8.000000000000000000e+00,-4.000000000000000000e+00,-4.000000000000000000e+00,-2.000000000000000000e+00,0.000000000000000000e+00,-3.000000000000000000e+00,-8.000000000000000000e+00,4.354858398437500000e-01,1.895141601562500000e-01,-8.672485351562500000e-01,1.495971679687500000e-01
6.000000000000000000e+00,-1.100000000000000000e+01,-6.000000000000000000e+00,-4.000000000000000000e+00,-6.000000000000000000e+00,-3.000000000000000000e+00,-1.000000000000000000e+00,-1.000000000000000000e+00,4.354858398437500000e-01,1.895141601562500000e-01,-8.672485351562500000e-01,1.495971679687500000e-01
-1.600000000000000000e+01,3.000000000000000000e+00,3.000000000000000000e+00,0.000000000000000000e+00,0.000000000000000000e+00,-2.000000000000000000e+00,-2.000000000000000000e+00,0.000000000000000000e+00,4.351806640625000000e-01,1.890258789062500000e-01,-8.675537109375000000e-01,1.492309570312500000e-01
1.000000000000000000e+01,6.000000000000000000e+00,-4.000000000000000000e+00,-1.000000000000000000e+00,-2.000000000000000000e+00,-1.000000000000000000e+00,-5.000000000000000000e+00,1.000000000000000000e+00,4.351806640625000000e-01,1.890258789062500000e-01,-8.675537109375000000e-01,1.492309570312500000e-01
4.000000000000000000e+00,-9.000000000000000000e+00,2.000000000000000000e+00,3.000000000000000000e+00,6.000000000000000000e+00,7.000000000000000000e+00,0.000000000000000000e+00,-1.000000000000000000e+00,4.351806640625000000e-01,1.890258789062500000e-01,-8.675537109375000000e-01,1.492309570312500000e-01
-8.000000000000000000e+00,4.000000000000000000e+00,-1.500000000000000000e+01,-5.000000000000000000e+00,1.000000000000000000e+00,-2.000000000000000000e+00,-2.000000000000000000e+00,-2.000000000000000000e+00,4.351806640625000000e-01,1.890258789062500000e-01,-8.675537109375000000e-01,1.492309570312500000e-01
-7.000000000000000000e+00,-2.100000000000000000e+01,1.800000000000000000e+01,0.000000000000000000e+00,-8.000000000000000000e+00,-7.000000000000000000e+00,-1.000000000000000000e+00,0.000000000000000000e+00,4.348754882812500000e-01,1.882324218750000000e-01,-8.679199218750000000e-01,1.489257812500000000e-01
5.000000000000000000e+00,3.000000000000000000e+00,-1.500000000000000000e+01,-8.000000000000000000e+00,-1.000000000000000000e+00,2.000000000000000000e+00,-3.000000000000000000e+00,-2.000000000000000000e+00,4.348754882812500000e-01,1.882324218750000000e-01,-8.679199218750000000e-01,1.489257812500000000e-01
4.000000000000000000e+00,8.000000000000000000e+00,3.000000000000000000e+00,-3.000000000000000000e+00,-5.000000000000000000e+00,-5.000000000000000000e+00,-4.000000000000000000e+00,3.000000000000000000e+00,4.348754882812500000e-01,1.882324218750000000e-01,-8.679199218750000000e-01,1.489257812500000000e-01
1.000000000000000000e+00,5.000000000000000000e+00,4.000000000000000000e+00,6.000000000000000000e+00,9.000000000000000000e+00,5.000000000000000000e+00,3.000000000000000000e+00,2.000000000000000000e+00,4.348754882812500000e-01,1.882324218750000000e-01,-8.679199218750000000e-01,1.489257812500000000e-01
1.500000000000000000e+01,7.000000000000000000e+00,-1.100000000000000000e+01,4.000000000000000000e+00,9.000000000000000000e+00,5.000000000000000000e+00,-1.000000000000000000e+00,-3.000000000000000000e+00,4.343872070312500000e-01,1.877441406250000000e-01,-8.682861328125000000e-01,1.489257812500000000e-01
-1.800000000000000000e+01,-1.900000000000000000e+01,-8.000000000000000000e+00,-6.000000000000000000e+00,-1.100000000000000000e+01,-7.000000000000000000e+00,-3.000000000000000000e+00,-4.000000000000000000e+00,4.343872070312500000e-01,1.877441406250000000e-01,-8.682861328125000000e-01,1.489257812500000000e-01
1.000000000000000000e+00,3.000000000000000000e+00,6.000000000000000000e+00,4.000000000000000000e+00,0.000000000000000000e+00,2.000000000000000000e+00,0.000000000000000000e+00,3.000000000000000000e+00,4.343872070312500000e-01,1.877441406250000000e-01,-8.682861328125000000e-01,1.489257812500000000e-01
-4.000000000000000000e+00,-6.000000000000000000e+00,6.000000000000000000e+00,-6.000000000000000000e+00,-6.000000000000000000e+00,-5.000000000000000000e+00,0.000000000000000000e+00,0.000000000000000000e+00,4.343872070312500000e-01,1.877441406250000000e-01,-8.682861328125000000e-01,1.489257812500000000e-01
-5.000000000000000000e+00,4.000000000000000000e+00,-3.000000000000000000e+00,-2.000000000000000000e+00,0.000000000000000000e+00,1.000000000000000000e+00,3.000000000000000000e+00,2.000000000000000000e+00,4.337768554687500000e-01,1.878051757812500000e-01,-8.685302734375000000e-01,1.491699218750000000e-01
2.000000000000000000e+00,8.000000000000000000e+00,-1.000000000000000000e+00,0.000000000000000000e+00,-1.000000000000000000e+00,0.000000000000000000e+00,1.000000000000000000e+00,1.000000000000000000e+00,4.337768554687500000e-01,1.878051757812500000e-01,-8.685302734375000000e-01,1.491699218750000000e-01
-2.000000000000000000e+00,-7.000000000000000000e+00,-6.000000000000000000e+00,-3.000000000000000000e+00,-8.000000000000000000e+00,-3.000000000000000000e+00,-3.000000000000000000e+00,-4.000000000000000000e+00,4.337768554687500000e-01,1.878051757812500000e-01,-8.685302734375000000e-01,1.491699218750000000e-01
-1.000000000000000000e+00,3.000000000000000000e+00,-5.000000000000000000e+00,-5.000000000000000000e+00,-4.000000000000000000e+00,-9.000000000000000000e+00,4.000000000000000000e+00,1.000000000000000000e+00,4.337768554687500000e-01,1.878051757812500000e-01,-8.685302734375000000e-01,1.491699218750000000e-01
1.000000000000000000e+00,-7.000000000000000000e+00,2.200000000000000000e+01,6.000000000000000000e+00,9.000000000000000000e+00,4.000000000000000000e+00,-1.000000000000000000e+00,-3.000000000000000000e+00,4.332275390625000000e-01,1.881103515625000000e-01,-8.686523437500000000e-01,1.494750976562500000e-01
1.000000000000000000e+00,1.200000000000000000e+01,0.000000000000000000e+00,-4.000000000000000000e+00,3.000000000000000000e+00,3.000000000000000000e+00,-2.000000000000000000e+00,-1.000000000000000000e+00,4.332275390625000000e-01,1.881103515625000000e-01,-8.686523437500000000e-01,1.494750976562500000e-01
1.100000000000000000e+01,-9.000000000000000000e+00,-1.400000000000000000e+01,-3.000000000000000000e+00,-5.000000000000000000e+00,-4.000000000000000000e+00,-4.000000000000000000e+00,-2.000000000000000000e+00,4.332275390625000000e-01,1.881103515625000000e-01,-8.686523437500000000e-01,1.494750976562500000e-01
-3.200000000000000000e+01,3.000000000000000000e+00,7.000000000000000000e+00,-1.000000000000000000e+00,-8.000000000000000000e+00,-1.000000000000000000e+00,2.000000000000000000e+00,-5.000000000000000000e+00,4.332275390625000000e-01,1.881103515625000000e-01,-8.686523437500000000e-01,1.494750976562500000e-01
-2.400000000000000000e+01,-3.000000000000000000e+01,-3.900000000000000000e+01,-1.000000000000000000e+01,-8.000000000000000000e+00,-4.000000000000000000e+00,-7.000000000000000000e+00,-5.000000000000000000e+00,4.327392578125000000e-01,1.883544921875000000e-01,-8.688354492187500000e-01,1.495971679687500000e-01
6.000000000000000000e+00,-1.100000000000000000e+01,8.000000000000000000e+00,-2.000000000000000000e+00,-1.000000000000000000e+00,0.000000000000000000e+00,2.000000000000000000e+00,1.000000000000000000e+00,4.327392578125000000e-01,1.883544921875000000e-01,-8.688354492187500000e-01,1.495971679687500000e-01
-3.000000000000000000e+00,6.000000000000000000e+00,-2.000000000000000000e+00,4.000000000000000000e+00,3.000000000000000000e+00,-1.000000000000000000e+00,-4.000000000000000000e+00,-2.000000000000000000e+00,4.327392578125000000e-01,1.883544921875000000e-01,-8.688354492187500000e-01,1.495971679687500000e-01
1.200000000000000000e+01,-1.000000000000000000e+00,-8.000000000000000000e+00,-2.000000000000000000e+00,1.000000000000000000e+00,0.000000000000000000e+00,-4.000000000000000000e+00,-1.000000000000000000e+00,4.327392578125000000e-01,1.883544921875000000e-01,-8.688354492187500000e-01,1.495971679687500000e-01
3.000000000000000000e+00,1.100000000000000000e+01,2.000000000000000000e+00,-2.000000000000000000e+00,-2.000000000000000000e+00,0.000000000000000000e+00,0.000000000000000000e+00,2.000000000000000000e+00,4.326782226562500000e-01,1.883544921875000000e-01,-8.688354492187500000e-01,1.495361328125000000e-01
1.000000000000000000e+00,-2.000000000000000000e+00,-2.000000000000000000e+00,1.000000000000000000e+00,-4.000000000000000000e+00,-3.000000000000000000e+00,0.000000000000000000e+00,0.000000000000000000e+00,4.326782226562500000e-01,1.883544921875000000e-01,-8.688354492187500000e-01,1.495361328125000000e-01
6.000000000000000000e+00,2.000000000000000000e+00,7.000000000000000000e+00,4.000000000000000000e+00,-3.000000000000000000e+00,-4.000000000000000000e+00,1.000000000000000000e+00,1.000000000000000000e+00,4.326782226562500000e-01,1.883544921875000000e-01,-8.688354492187500000e-01,1.495361328125000000e-01
-4.000000000000000000e+00,-7.000000000000000000e+00,-1.000000000000000000e+01,-1.100000000000000000e+01,-3.000000000000000000e+00,3.000000000000000000e+00,-2.000000000000000000e+00,-1.000000000000000000e+00,4.326782226562500000e-01,1.883544921875000000e-01,-8.688354492187500000e-01,1.495361328125000000e-01
0.000000000000000000e+00,-9.000000000000000000e+00,8.000000000000000000e+00,4.000000000000000000e+00,7.000000000000000000e+00,5.000000000000000000e+00,1.000000000000000000e+00,1.000000000000000000e+00,4.326782226562500000e-01,1.883544921875000000e-01,-8.688354492187500000e-01,1.495971679687500000e-01
-6.000000000000000000e+00,-8.000000000000000000e+00,-2.300000000000000000e+01,0.000000000000000000e+00,2.000000000000000000e+00,-2.000000000000000000e+00,3.000000000000000000e+00,2.000000000000000000e+00,4.326782226562500000e-01,1.883544921875000000e-01,-8.688354492187500000e-01,1.495971679687500000e-01
-1.000000000000000000e+00,5.000000000000000000e+00,6.000000000000000000e+00,-4.000000000000000000e+00,-1.000000000000000000e+00,-6.000000000000000000e+00,-2.000000000000000000e+00,-3.000000000000000000e+00,4.326782226562500000e-01,1.883544921875000000e-01,-8.688354492187500000e-01,1.495971679687500000e-01
3.000000000000000000e+00,0.000000000000000000e+00,1.000000000000000000e+00,0.000000000000000000e+00,-4.000000000000000000e+00,-3.000000000000000000e+00,-2.000000000000000000e+00,1.000000000000000000e+00,4.326782226562500000e-01,1.883544921875000000e-01,-8.688354492187500000e-01,1.495971679687500000e-01
2.000000000000000000e+00,9.000000000000000000e+00,8.000000000000000000e+00,3.000000000000000000e+00,-2.000000000000000000e+00,-3.000000000000000000e+00,-2.000000000000000000e+00,-3.000000000000000000e+00,4.326171875000000000e-01,1.885986328125000000e-01,-8.688354492187500000e-01,1.497802734375000000e-01
-6.000000000000000000e+00,-4.000000000000000000e+00,-2.000000000000000000e+00,-2.000000000000000000e+00,0.000000000000000000e+00,4.000000000000000000e+00,-4.000000000000000000e+00,-2.000000000000000000e+00,4.326171875000000000e-01,1.885986328125000000e-01,-8.688354492187500000e-01,1.497802734375000000e-01
-4.000000000000000000e+00,0.000000000000000000e+00,-3.000000000000000000e+00,2.000000000000000000e+00,1.000000000000000000e+00,2.000000000000000000e+00,6.000000000000000000e+00,2.000000000000000000e+00,4.326171875000000000e-01,1.885986328125000000e-01,-8.688354492187500000e-01,1.497802734375000000e-01
2.600000000000000000e+01,1.900000000000000000e+01,-5.000000000000000000e+00,3.000000000000000000e+00,4.000000000000000000e+00,-1.000000000000000000e+00,0.000000000000000000e+00,1.000000000000000000e+00,4.326171875000000000e-01,1.885986328125000000e-01,-8.688354492187500000e-01,1.497802734375000000e-01
-2.300000000000000000e+01,-1.200000000000000000e+01,2.100000000000000000e+01,-4.000000000000000000e+00,-2.000000000000000000e+00,-4.000000000000000000e+00,-2.000000000000000000e+00,-5.000000000000000000e+00,4.326171875000000000e-01,1.889648437500000000e-01,-8.687133789062500000e-01,1.499023437500000000e-01
-1.700000000000000000e+01,-2.500000000000000000e+01,-5.000000000000000000e+00,1.000000000000000000e+00,-6.000000000000000000e+00,-1.000000000000000000e+01,-1.000000000000000000e+01,-9.000000000000000000e+00,4.326171875000000000e-01,1.889648437500000000e-01,-8.687133789062500000e-01,1.499023437500000000e-01
-4.000000000000000000e+00,1.000000000000000000e+00,-1.100000000000000000e+01,-7.000000000000000000e+00,-2.000000000000000000e+00,3.000000000000000000e+00,-1.000000000000000000e+00,-1.000000000000000000e+00,4.326171875000000000e-01,1.889648437500000000e-01,-8.687133789062500000e-01,1.499023437500000000e-01
1.000000000000000000e+01,-3.000000000000000000e+00,-8.000000000000000000e+00,2.000000000000000000e+00,0.000000000000000000e+00,0.000000000000000000e+00,-1.000000000000000000e+00,0.000000000000000000e+00,4.326171875000000000e-01,1.889648437500000000e-01,-8.687133789062500000e-01,1.499023437500000000e-01
9.000000000000000000e+00,2.300000000000000000e+01,8.000000000000000000e+00,2.000000000000000000e+00,0.000000000000000000e+00,-2.000000000000000000e+00,-1.000000000000000000e+00,1.000000000000000000e+00,4.327392578125000000e-01,1.891479492187500000e-01,-8.685913085937500000e-01,1.499633789062500000e-01
4.000000000000000000e+00,1.000000000000000000e+01,4.000000000000000000e+00,0.000000000000000000e+00,-2.000000000000000000e+00,2.000000000000000000e+00,0.000000000000000000e+00,0.000000000000000000e+00,4.327392578125000000e-01,1.891479492187500000e-01,-8.685913085937500000e-01,1.499633789062500000e-01
-9.000000000000000000e+00,-5.000000000000000000e+00,-4.000000000000000000e+00,-6.000000000000000000e+00,-4.000000000000000000e+00,-5.000000000000000000e+00,-3.000000000000000000e+00,0.000000000000000000e+00,4.327392578125000000e-01,1.891479492187500000e-01,-8.685913085937500000e-01,1.499633789062500000e-01
-3.000000000000000000e+00,2.000000000000000000e+00,8.000000000000000000e+00,3.000000000000000000e+00,4.000000000000000000e+00,-1.000000000000000000e+00,0.000000000000000000e+00,-1.000000000000000000e+00,4.327392578125000000e-01,1.891479492187500000e-01,-8.685913085937500000e-01,1.499633789062500000e-01
1.100000000000000000e+01,-4.000000000000000000e+00,-1.700000000000000000e+01,-2.000000000000000000e+00,0.000000000000000000e+00,-1.000000000000000000e+00,0.000000000000000000e+00,-2.000000000000000000e+00,4.329223632812500000e-01,1.893310546875000000e-01,-8.684692382812500000e-01,1.497802734375000000e-01
-6.000000000000000000e+00,-9.000000000000000000e+00,-1.000000000000000000e+00,0.000000000000000000e+00,0.000000000000000000e+00,0.000000000000000000e+00,-1.000000000000000000e+00,0.000000000000000000e+00,4.329223632812500000e-01,1.893310546875000000e-01,-8.684692382812500000e-01,1.497802734375000000e-01
-1.000000000000000000e+00,-2.000000000000000000e+00,-8.000000000000000000e+00,-6.000000000000000000e+00,-1.000000000000000000e+00,-1.000000000000000000e+00,0.000000000000000000e+00,0.000000000000000000e+00,4.329223632812500000e-01,1.893310546875000000e-01,-8.684692382812500000e-01,1.497802734375000000e-01
-4.000000000000000000e+00,-1.000000000000000000e+00,-2.000000000000000000e+00,-2.000000000000000000e+00,-6.000000000000000000e+00,-5.000000000000000000e+00,-6.000000000000000000e+00,-4.000000000000000000e+00,4.329223632812500000e-01,1.893310546875000000e-01,-8.684692382812500000e-01,1.497802734375000000e-01
-2.000000000000000000e+00,1.300000000000000000e+01,0.000000000000000000e+00,-1.000000000000000000e+00,2.000000000000000000e+00,1.000000000000000000e+00,3.000000000000000000e+00,2.000000000000000000e+00,4.334106445312500000e-01,1.890869140625000000e-01,-8.683471679687500000e-01,1.494750976562500000e-01
-2.000000000000000000e+00,-1.000000000000000000e+00,-8.000000000000000000e+00,-1.000000000000000000e+00,-2.000000000000000000e+00,-3.000000000000000000e+00,-7.000000000000000000e+00,-4.000000000000000000e+00,4.334106445312500000e-01,1.890869140625000000e-01,-8.683471679687500000e-01,1.494750976562500000e-01
2.000000000000000000e+00,5.000000000000000000e+00,0.000000000000000000e+00,2.000000000000000000e+00,3.000000000000000000e+00,3.000000000000000000e+00,3.000000000000000000e+00,-1.000000000000000000e+00,4.334106445312500000e-01,1.890869140625000000e-01,-8.683471679687500000e-01,1.494750976562500000e-01
-3.000000000000000000e+00,-3.000000000000000000e+00,1.000000000000000000e+01,-2.000000000000000000e+00,-2.000000000000000000e+00,-2.000000000000000000e+00,-5.000000000000000000e+00,1.000000000000000000e+00,4.334106445312500000e-01,1.890869140625000000e-01,-8.683471679687500000e-01,1.494750976562500000e-01
-2.000000000000000000e+01,-1.000000000000000000e+00,0.000000000000000000e+00,-1.000000000000000000e+00,-6.000000000000000000e+00,-6.000000000000000000e+00,-8.000000000000000000e+00,-6.000000000000000000e+00,4.338989257812500000e-01,1.888427734375000000e-01,-8.682250976562500000e-01,1.493530273437500000e-01
0.000000000000000000e+00,-1.700000000000000000e+01,-1.400000000000000000e+01,-8.000000000000000000e+00,-4.000000000000000000e+00,-1.000000000000000000e+00,3.000000000000000000e+00,0.000000000000000000e+00,4.338989257812500000e-01,1.888427734375000000e-01,-8.682250976562500000e-01,1.493530273437500000e-01
0.000000000000000000e+00,4.000000000000000000e+00,8.000000000000000000e+00,2.000000000000000000e+00,2.000000000000000000e+00,1.000000000000000000e+00,0.000000000000000000e+00,-1.000000000000000000e+00,4.338989257812500000e-01,1.888427734375000000e-01,-8.682250976562500000e-01,1.493530273437500000e-01
-4.000000000000000000e+00,-8.000000000000000000e+00,-1.600000000000000000e+01,-3.000000000000000000e+00,-2.000000000000000000e+00,0.000000000000000000e+00,-3.000000000000000000e+00,-1.000000000000000000e+00,4.338989257812500000e-01,1.888427734375000000e-01,-8.682250976562500000e-01,1.493530273437500000e-01
1.500000000000000000e+01,7.000000000000000000e+00,-8.000000000000000000e+00,1.000000000000000000e+00,8.000000000000000000e+00,7.000000000000000000e+00,1.000000000000000000e+00,3.000000000000000000e+00,4.341430664062500000e-01,1.887817382812500000e-01,-8.680419921875000000e-01,1.495361328125000000e-01
1.600000000000000000e+01,1.900000000000000000e+01,1.000000000000000000e+01,2.000000000000000000e+00,-1.000000000000000000e+00,-4.000000000000000000e+00,0.000000000000000000e+00,1.000000000000000000e+00,4.341430664062500000e-01,1.887817382812500000e-01,-8.680419921875000000e-01,1.495361328125000000e-01
-1.500000000000000000e+01,-4.000000000000000000e+00,-2.000000000000000000e+00,-3.000000000000000000e+00,-5.000000000000000000e+00,-5.000000000000000000e+00,0.000000000000000000e+00,-3.000000000000000000e+00,4.341430664062500000e-01,1.887817382812500000e-01,-8.680419921875000000e-01,1.495361328125000000e-01
-3.000000000000000000e+00,-2.000000000000000000e+01,6.000000000000000000e+00,-6.000000000000000000e+00,-3.000000000000000000e+00,-1.000000000000000000e+00,6.000000000000000000e+00,0.000000000000000000e+00,4.341430664062500000e-01,1.887817382812500000e-01,-8.680419921875000000e-01,1.495361328125000000e-01
-2.200000000000000000e+01,-5.000000000000000000e+00,-1.400000000000000000e+01,-3.000000000000000000e+00,-3.000000000000000000e+00,0.000000000000000000e+00,1.000000000000000000e+00,1.000000000000000000e+00,4.340820312500000000e-01,1.888427734375000000e-01,-8.681030273437500000e-01,1.494750976562500000e-01
5.000000000000000000e+00,7.000000000000000000e+00,1.000000000000000000e+01,3.000000000000000000e+00,1.000000000000000000e+00,0.000000000000000000e+00,2.000000000000000000e+00,0.000000000000000000e+00,4.340820312500000000e-01,1.888427734375000000e-01,-8.681030273437500000e-01,1.494750976562500000e-01
2.000000000000000000e+00,-3.000000000000000000e+00,0.000000000000000000e+00,-3.000000000000000000e+00,-6.000000000000000000e+00,-3.000000000000000000e+00,-2.000000000000000000e+00,3.000000000000000000e+00,4.340820312500000000e-01,1.888427734375000000e-01,-8.681030273437500000e-01,1.494750976562500000e-01
3.000000000000000000e+00,8.000000000000000000e+00,4.000000000000000000e+00,1.400000000000000000e+01,9.000000000000000000e+00,1.000000000000000000e+00,-3.000000000000000000e+00,0.000000000000000000e+00,4.340820312500000000e-01,1.888427734375000000e-01,-8.681030273437500000e-01,1.494750976562500000e-01
1.400000000000000000e+01,-2.000000000000000000e+00,-1.400000000000000000e+01,-7.000000000000000000e+00,-2.000000000000000000e+00,-1.000000000000000000e+00,0.000000000000000000e+00,3.000000000000000000e+00,4.340209960937500000e-01,1.884155273437500000e-01,-8.682250976562500000e-01,1.495361328125000000e-01
-7.000000000000000000e+00,-1.200000000000000000e+01,-4.000000000000000000e+00,-1.000000000000000000e+01,-6.000000000000000000e+00,-1.000000000000000000e+00,0.000000000000000000e+00,-1.000000000000000000e+00,4.340209960937500000e-01,1.884155273437500000e-01,-8.682250976562500000e-01,1.495361328125000000e-01
-8.000000000000000000e+00,1.200000000000000000e+01,-1.000000000000000000e+00,0.000000000000000000e+00,4.000000000000000000e+00,-2.000000000000000000e+00,-4.000000000000000000e+00,-4.000000000000000000e+00,4.340209960937500000e-01,1.884155273437500000e-01,-8.682250976562500000e-01,1.495361328125000000e-01
0.000000000000000000e+00,-6.000000000000000000e+00,6.000000000000000000e+00,1.000000000000000000e+00,0.000000000000000000e+00,3.000000000000000000e+00,3.000000000000000000e+00,0.000000000000000000e+00,4.340209960937500000e-01,1.884155273437500000e-01,-8.682250976562500000e-01,1.495361328125000000e-01
-1.000000000000000000e+00,-9.000000000000000000e+00,-4.000000000000000000e+00,3.000000000000000000e+00,0.000000000000000000e+00,-3.000000000000000000e+00,-2.000000000000000000e+00,-1.000000000000000000e+00,4.336547851562500000e-01,1.882934570312500000e-01,-8.683471679687500000e-01,1.499023437500000000e-01
7.000000000000000000e+00,1.500000000000000000e+01,4.000000000000000000e+00,1.000000000000000000e+00,0.000000000000000000e+00,1.000000000000000000e+00,3.000000000000000000e+00,2.000000000000000000e+00,4.336547851562500000e-01,1.882934570312500000e-01,-8.683471679687500000e-01,1.499023437500000000e-01
4.000000000000000000e+00,-1.100000000000000000e+01,-2.000000000000000000e+00,-1.000000000000000000e+00,-3.000000000000000000e+00,1.000000000000000000e+00,0.000000000000000000e+00,0.000000000000000000e+00,4.336547851562500000e-01,1.882934570312500000e-01,-8.683471679687500000e-01,1.499023437500000000e-01
1.000000000000000000e+00,3.000000000000000000e+00,-5.000000000000000000e+00,-5.000000000000000000e+00,-2.000000000000000000e+00,-2.000000000000000000e+00,-3.000000000000000000e+00,-5.000000000000000000e+00,4.336547851562500000e-01,1.882934570312500000e-01,-8.683471679687500000e-01,1.499023437500000000e-01
-1.700000000000000000e+01,1.000000000000000000e+00,1.400000000000000000e+01,4.000000000000000000e+00,4.000000000000000000e+00,4.000000000000000000e+00,3.000000000000000000e+00,-2.000000000000000000e+00,4.332275390625000000e-01,1.884155273437500000e-01,-8.684692382812500000e-01,1.502685546875000000e-01
-2.000000000000000000e+00,3.000000000000000000e+00,-1.000000000000000000e+00,2.000000000000000000e+00,-5.000000000000000000e+00,-2.000000000000000000e+00,0.000000000000000000e+00,-1.000000000000000000e+00,4.332275390625000000e-01,1.884155273437500000e-01,-8.684692382812500000e-01,1.502685546875000000e-01
9.000000000000000000e+00,-8.000000000000000000e+00,-2.000000000000000000e+00,-2.000000000000000000e+00,-3.000000000000000000e+00,-3.000000000000000000e+00,-4.000000000000000000e+00,-2.000000000000000000e+00,4.332275390625000000e-01,1.884155273437500000e-01,-8.684692382812500000e-01,1.502685546875000000e-01
-4.000000000000000000e+00,-1.100000000000000000e+01,-4.000000000000000000e+00,-1.000000000000000000e+00,4.000000000000000000e+00,-1.000000000000000000e+00,-4.000000000000000000e+00,-4.000000000000000000e+00,4.332275390625000000e-01,1.884155273437500000e-01,-8.684692382812500000e-01,1.502685546875000000e-01
9.000000000000000000e+00,-3.000000000000000000e+00,5.000000000000000000e+00,-4.000000000000000000e+00,-1.300000000000000000e+01,-7.000000000000000000e+00,-2.000000000000000000e+00,-1.000000000000000000e+00,4.329223632812500000e-01,1.880493164062500000e-01,-8.687133789062500000e-01,1.504516601562500000e-01
-2.000000000000000000e+00,9.000000000000000000e+00,3.000000000000000000e+00,2.000000000000000000e+00,6.000000000000000000e+00,5.000000000000000000e+00,2.000000000000000000e+00,3.000000000000000000e+00,4.329223632812500000e-01,1.880493164062500000e-01,-8.687133789062500000e-01,1.504516601562500000e-01
-6.000000000000000000e+00,8.000000000000000000e+00,-4.000000000000000000e+00,6.000000000000000000e+00,4.000000000000000000e+00,2.000000000000000000e+00,2.000000000000000000e+00,3.000000000000000000e+00,4.329223632812500000e-01,1.880493164062500000e-01,-8.687133789062500000e-01,1.504516601562500000e-01
0.000000000000000000e+00,-1.600000000000000000e+01,3.000000000000000000e+00,-2.000000000000000000e+00,5.000000000000000000e+00,3.000000000000000000e+00,4.000000000000000000e+00,2.000000000000000000e+00,4.329223632812500000e-01,1.880493164062500000e-01,-8.687133789062500000e-01,1.504516601562500000e-01
1.200000000000000000e+01,6.000000000000000000e+00,1.000000000000000000e+00,-4.000000000000000000e+00,-2.000000000000000000e+00,-2.000000000000000000e+00,-2.000000000000000000e+00,-5.000000000000000000e+00,4.324951171875000000e-01,1.876220703125000000e-01,-8.689575195312500000e-01,1.505126953125000000e-01
1.400000000000000000e+01,-2.000000000000000000e+00,-1.500000000000000000e+01,-6.000000000000000000e+00,-9.000000000000000000e+00,-6.000000000000000000e+00,-2.000000000000000000e+00,0.000000000000000000e+00,4.324951171875000000e-01,1.876220703125000000e-01,-8.689575195312500000e-01,1.505126953125000000e-01
-1.900000000000000000e+01,-2.000000000000000000e+00,0.000000000000000000e+00,-5.000000000000000000e+00,-5.000000000000000000e+00,-5.000000000000000000e+00,-8.000000000000000000e+00,-4.000000000000000000e+00,4.324951171875000000e-01,1.876220703125000000e-01,-8.689575195312500000e-01,1.505126953125000000e-01
-6.000000000000000000e+00,-1.000000000000000000e+01,-1.500000000000000000e+01,3.000000000000000000e+00,0.000000000000000000e+00,3.000000000000000000e+00,0.000000000000000000e+00,-2.000000000000000000e+00,4.324951171875000000e-01,1.876220703125000000e-01,-8.689575195312500000e-01,1.505126953125000000e-01
0.000000000000000000e+00,-4.000000000000000000e+00,2.000000000000000000e+00,5.000000000000000000e+00,-1.000000000000000000e+00,-5.000000000000000000e+00,-2.000000000000000000e+00,-5.000000000000000000e+00,4.320068359375000000e-01,1.876220703125000000e-01,-8.691406250000000000e-01,1.507568359375000000e-01
5.000000000000000000e+00,-1.200000000000000000e+01,0.000000000000000000e+00,-1.000000000000000000e+00,3.000000000000000000e+00,3.000000000000000000e+00,1.000000000000000000e+00,0.000000000000000000e+00,4.320068359375000000e-01,1.876220703125000000e-01,-8.691406250000000000e-01,1.507568359375000000e-01
4.000000000000000000e+00,1.200000000000000000e+01,1.100000000000000000e+01,3.000000000000000000e+00,0.000000000000000000e+00,-3.000000000000000000e+00,1.000000000000000000e+00,0.000000000000000000e+00,4.320068359375000000e-01,1.876220703125000000e-01,-8.691406250000000000e-01,1.507568359375000000e-01
-4.000000000000000000e+00,8.000000000000000000e+00,1.100000000000000000e+01,1.000000000000000000e+00,-2.000000000000000000e+00,3.000000000000000000e+00,-5.000000000000000000e+00,-5.000000000000000000e+00,4.320068359375000000e-01,1.876220703125000000e-01,-8.691406250000000000e-01,1.507568359375000000e-01
5.000000000000000000e+00,0.000000000000000000e+00,-7.000000000000000000e+00,-2.000000000000000000e+00,-4.000000000000000000e+00,-5.000000000000000000e+00,-3.000000000000000000e+00,0.000000000000000000e+00,4.314575195312500000e-01,1.876831054687500000e-01,-8.693847656250000000e-01,1.510009765625000000e-01
-8.000000000000000000e+00,1.500000000000000000e+01,4.000000000000000000e+00,3.000000000000000000e+00,4.000000000000000000e+00,1.000000000000000000e+00,3.000000000000000000e+00,2.000000000000000000e+00,4.314575195312500000e-01,1.876831054687500000e-01,-8.693847656250000000e-01,1.510009765625000000e-01
5.000000000000000000e+00,-3.600000000000000000e+01,-1.500000000000000000e+01,2.000000000000000000e+00,7.000000000000000000e+00,3.000000000000000000e+00,1.000000000000000000e+00,0.000000000000000000e+00,4.314575195312500000e-01,1.876831054687500000e-01,-8.693847656250000000e-01,1.510009765625000000e-01
-5.000000000000000000e+00,-1.000000000000000000e+00,-2.000000000000000000e+01,-4.000000000000000000e+00,-9.000000000000000000e+00,-6.000000000000000000e+00,0.000000000000000000e+00,-2.000000000000000000e+00,4.314575195312500000e-01,1.876831054687500000e-01,-8.693847656250000000e-01,1.510009765625000000e-01
-1.800000000000000000e+01,-3.000000000000000000e+00,2.100000000000000000e+01,-1.000000000000000000e+00,-4.000000000000000000e+00,-1.000000000000000000e+00,-5.000000000000000000e+00,-4.000000000000000000e+00,4.309692382812500000e-01,1.878051757812500000e-01,-8.695678710937500000e-01,1.511840820312500000e-01
-1.000000000000000000e+00,-1.000000000000000000e+00,-1.300000000000000000e+01,-7.000000000000000000e+00,1.000000000000000000e+00,0.000000000000000000e+00,-5.000000000000000000e+00,-5.000000000000000000e+00,4.309692382812500000e-01,1.878051757812500000e-01,-8.695678710937500000e-01,1.511840820312500000e-01
0.000000000000000000e+00,1.400000000000000000e+01,4.000000000000000000e+00,-5.000000000000000000e+00,-1.400000000000000000e+01,-6.000000000000000000e+00,-4.000000000000000000e+00,-3.000000000000000000e+00,4.309692382812500000e-01,1.878051757812500000e-01,-8.695678710937500000e-01,1.511840820312500000e-01
3.000000000000000000e+00,3.000000000000000000e+00,5.000000000000000000e+00,4.000000000000000000e+00,1.200000000000000000e+01,3.000000000000000000e+00,1.000000000000000000e+00,1.000000000000000000e+00,4.309692382812500000e-01,1.878051757812500000e-01,-8.695678710937500000e-01,1.511840820312500000e-01
6.000000000000000000e+00,-2.000000000000000000e+00,-7.000000000000000000e+00,7.000000000000000000e+00,9.000000000000000000e+00,5.000000000000000000e+00,2.000000000000000000e+00,0.000000000000000000e+00,4.305419921875000000e-01,1.879882812500000000e-01,-8.697509765625000000e-01,1.512451171875000000e-01
4.000000000000000000e+00,7.000000000000000000e+00,8.000000000000000000e+00,4.000000000000000000e+00,-2.000000000000000000e+00,-3.000000000000000000e+00,-1.000000000000000000e+00,0.000000000000000000e+00,4.305419921875000000e-01,1.879882812500000000e-01,-8.697509765625000000e-01,1.512451171875000000e-01
-1.600000000000000000e+01,4.000000000000000000e+00,5.000000000000000000e+00,-3.000000000000000000e+00,4.000000000000000000e+00,-2.000000000000000000e+00,-1.000000000000000000e+00,-1.000000000000000000e+00,4.305419921875000000e-01,1.879882812500000000e-01,-8.697509765625000000e-01,1.512451171875000000e-01
3.000000000000000000e+00,-3.000000000000000000e+01,-9.000000000000000000e+00,-8.000000000000000000e+00,-1.200000000000000000e+01,-6.000000000000000000e+00,-3.000000000000000000e+00,-2.000000000000000000e+00,4.305419921875000000e-01,1.879882812500000000e-01,-8.697509765625000000e-01,1.512451171875000000e-01
-8.000000000000000000e+00,-4.000000000000000000e+00,-6.000000000000000000e+00,-7.000000000000000000e+00,-7.000000000000000000e+00,-1.000000000000000000e+00,-2.000000000000000000e+00,-3.000000000000000000e+00,4.301147460937500000e-01,1.880493164062500000e-01,-8.699340820312500000e-01,1.513061523437500000e-01
-4.000000000000000000e+00,-2.000000000000000000e+00,1.000000000000000000e+00,5.000000000000000000e+00,6.000000000000000000e+00,2.000000000000000000e+00,-3.000000000000000000e+00,-4.000000000000000000e+00,4.301147460937500000e-01,1.880493164062500000e-01,-8.699340820312500000e-01,1.513061523437500000e-01
9.000000000000000000e+00,6.000000000000000000e+00,0.000000000000000000e+00,1.000000000000000000e+00,-6.000000000000000000e+00,-2.000000000000000000e+00,1.000000000000000000e+00,2.000000000000000000e+00,4.301147460937500000e-01,1.880493164062500000e-01,-8.699340820312500000e-01,1.513061523437500000e-01
-3.000000000000000000e+00,1.100000000000000000e+01,5.000000000000000000e+00,-7.000000000000000000e+00,2.000000000000000000e+00,-1.000000000000000000e+00,3.000000000000000000e+00,0.000000000000000000e+00,4.301147460937500000e-01,1.880493164062500000e-01,-8.699340820312500000e-01,1.513061523437500000e-01
5.000000000000000000e+00,4.000000000000000000e+00,2.000000000000000000e+00,-2.000000000000000000e+00,5.000000000000000000e+00,7.000000000000000000e+00,2.000000000000000000e+00,4.000000000000000000e+00,4.296264648437500000e-01,1.881103515625000000e-01,-8.701171875000000000e-01,1.513061523437500000e-01
-6.000000000000000000e+00,-1.000000000000000000e+01,-4.000000000000000000e+00,-4.000000000000000000e+00,-7.000000000000000000e+00,-8.000000000000000000e+00,-2.000000000000000000e+00,-3.000000000000000000e+00,4.296264648437500000e-01,1.881103515625000000e-01,-8.701171875000000000e-01,1.513061523437500000e-01
4.000000000000000000e+00,7.000000000000000000e+00,0.000000000000000000e+00,-1.000000000000000000e+00,0.000000000000000000e+00,0.000000000000000000e+00,2.000000000000000000e+00,0.000000000000000000e+00,4.296264648437500000e-01,1.881103515625000000e-01,-8.701171875000000000e-01,1.513061523437500000e-01
1.100000000000000000e+01,1.100000000000000000e+01,-2.600000000000000000e+01,-2.000000000000000000e+00,-6.000000000000000000e+00,-2.000000000000000000e+00,0.000000000000000000e+00,4.000000000000000000e+00,4.296264648437500000e-01,1.881103515625000000e-01,-8.701171875000000000e-01,1.513061523437500000e-01
-1.200000000000000000e+01,-3.900000000000000000e+01,1.400000000000000000e+01,3.000000000000000000e+00,1.000000000000000000e+00,0.000000000000000000e+00,1.000000000000000000e+00,-2.000000000000000000e+00,4.290771484375000000e-01,1.884765625000000000e-01,-8.703002929687500000e-01,1.515502929687500000e-01
0.000000000000000000e+00,-1.000000000000000000e+00,-1.100000000000000000e+01,-6.000000000000000000e+00,-1.000000000000000000e+00,0.000000000000000000e+00,-1.000000000000000000e+00,0.000000000000000000e+00,4.290771484375000000e-01,1.884765625000000000e-01,-8.703002929687500000e-01,1.515502929687500000e-01
-2.000000000000000000e+00,1.000000000000000000e+00,3.000000000000000000e+00,-1.000000000000000000e+00,-4.000000000000000000e+00,-1.000000000000000000e+00,-3.000000000000000000e+00,-3.000000000000000000e+00,4.290771484375000000e-01,1.884765625000000000e-01,-8.703002929687500000e-01,1.515502929687500000e-01
6.000000000000000000e+00,1.200000000000000000e+01,5.000000000000000000e+00,0.000000000000000000e+00,-1.000000000000000000e+00,-2.000000000000000000e+00,2.000000000000000000e+00,-2.000000000000000000e+00,4.290771484375000000e-01,1.884765625000000000e-01,-8.703002929687500000e-01,1.515502929687500000e-01
6.000000000000000000e+00,9.000000000000000000e+00,-7.000000000000000000e+00,3.000000000000000000e+00,-1.000000000000000000e+00,0.000000000000000000e+00,0.000000000000000000e+00,0.000000000000000000e+00,4.285278320312500000e-01,1.889038085937500000e-01,-8.704833984375000000e-01,1.516723632812500000e-01
-7.000000000000000000e+00,-3.000000000000000000e+00,2.000000000000000000e+00,2.000000000000000000e+00,0.000000000000000000e+00,-1.000000000000000000e+00,0.000000000000000000e+00,2.000000000000000000e+00,4.285278320312500000e-01,1.889038085937500000e-01,-8.704833984375000000e-01,1.516723632812500000e-01
3.000000000000000000e+00,2.000000000000000000e+00,0.000000000000000000e+00,-7.000000000000000000e+00,1.000000000000000000e+00,-1.000000000000000000e+00,-1.000000000000000000e+00,-3.000000000000000000e+00,4.285278320312500000e-01,1.889038085937500000e-01,-8.704833984375000000e-01,1.516723632812500000e-01
4.000000000000000000e+00,-1.600000000000000000e+01,-2.000000000000000000e+00,2.000000000000000000e+00,-3.000000000000000000e+00,-2.000000000000000000e+00,-3.000000000000000000e+00,-1.000000000000000000e+00,4.285278320312500000e-01,1.889038085937500000e-01,-8.704833984375000000e-01,1.516723632812500000e-01
-1.800000000000000000e+01,-3.000000000000000000e+00,-2.000000000000000000e+00,3.000000000000000000e+00,0.000000000000000000e+00,-4.000000000000000000e+00,-4.000000000000000000e+00,-3.000000000000000000e+00,4.281005859375000000e-01,1.890869140625000000e-01,-8.706054687500000000e-01,1.517333984375000000e-01
-1.000000000000000000e+00,-5.000000000000000000e+00,7.000000000000000000e+00,-3.000000000000000000e+00,-1.000000000000000000e+00,-1.000000000000000000e+00,-1.000000000000000000e+00,-2.000000000000000000e+00,4.281005859375000000e-01,1.890869140625000000e-01,-8.706054687500000000e-01,1.517333984375000000e-01
-4.000000000000000000e+00,0.000000000000000000e+00,-5.000000000000000000e+00,-2.000000000000000000e+00,0.000000000000000000e+00,4.000000000000000000e+00,2.000000000000000000e+00,-2.000000000000000000e+00,4.281005859375000000e-01,1.890869140625000000e-01,-8.706054687500000000e-01,1.517333984375000000e-01
-6.000000000000000000e+00,5.000000000000000000e+00,2.100000000000000000e+01,-1.000000000000000000e+00,-7.000000000000000000e+00,-2.000000000000000000e+00,0.000000000000000000e+00,-1.000000000000000000e+00,4.281005859375000000e-01,1.890869140625000000e-01,-8.706054687500000000e-01,1.517333984375000000e-01
9.000000000000000000e+00,5.000000000000000000e+00,-7.000000000000000000e+00,4.000000000000000000e+00,7.000000000000000000e+00,3.000000000000000000e+00,2.000000000000000000e+00,0.000000000000000000e+00,4.277954101562500000e-01,1.890258789062500000e-01,-8.707275390625000000e-01,1.519165039062500000e-01
5.000000000000000000e+00,1.000000000000000000e+00,-9.000000000000000000e+00,0.000000000000000000e+00,1.000000000000000000e+00,0.000000000000000000e+00,0.000000000000000000e+00,-1.000000000000000000e+00,4.277954101562500000e-01,1.890258789062500000e-01,-8.707275390625000000e-01,1.519165039062500000e-01
3.000000000000000000e+00,-1.200000000000000000e+01,-5.000000000000000000e+00,0.000000000000000000e+00,2.000000000000000000e+00,0.000000000000000000e+00,-3.000000000000000000e+00,-1.000000000000000000e+00,4.277954101562500000e-01,1.890258789062500000e-01,-8.707275390625000000e-01,1.519165039062500000e-01
-2.300000000000000000e+01,-6.000000000000000000e+00,1.000000000000000000e+00,-6.000000000000000000e+00,-2.000000000000000000e+00,-2.000000000000000000e+00,-2.000000000000000000e+00,-5.000000000000000000e+00,4.277954101562500000e-01,1.890258789062500000e-01,-8.707275390625000000e-01,1.519165039062500000e-01
2.100000000000000000e+01,2.000000000000000000e+00,8.000000000000000000e+00,-5.000000000000000000e+00,-9.000000000000000000e+00,-2.000000000000000000e+00,0.000000000000000000e+00,3.000000000000000000e+00,4.276733398437500000e-01,1.889038085937500000e-01,-8.707885742187500000e-01,1.520996093750000000e-01
-4.900000000000000000e+01,-8.000000000000000000e+00,0.000000000000000000e+00,4.000000000000000000e+00,7.000000000000000000e+00,3.000000000000000000e+00,0.000000000000000000e+00,-2.000000000000000000e+00,4.276733398437500000e-01,1.889038085937500000e-01,-8.707885742187500000e-01,1.520996093750000000e-01
1.300000000000000000e+01,-9.000000000000000000e+00,2.000000000000000000e+00,2.000000000000000000e+00,0.000000000000000000e+00,-5.000000000000000000e+00,-2.000000000000000000e+00,2.000000000000000000e+00,4.276733398437500000e-01,1.889038085937500000e-01,-8.707885742187500000e-01,1.520996093750000000e-01
-1.200000000000000000e+01,-4.000000000000000000e+00,-6.000000000000000000e+00,4.000000000000000000e+00,1.000000000000000000e+00,0.000000000000000000e+00,-2.000000000000000000e+00,-2.000000000000000000e+00,4.276733398437500000e-01,1.889038085937500000e-01,-8.707885742187500000e-01,1.520996093750000000e-01
8.000000000000000000e+00,9.000000000000000000e+00,-4.000000000000000000e+00,-2.000000000000000000e+00,6.000000000000000000e+00,3.000000000000000000e+00,1.000000000000000000e+00,0.000000000000000000e+00,4.276733398437500000e-01,1.889038085937500000e-01,-8.707885742187500000e-01,1.520996093750000000e-01
1.400000000000000000e+01,1.100000000000000000e+01,1.000000000000000000e+00,-6.000000000000000000e+00,-5.000000000000000000e+00,-1.000000000000000000e+00,0.000000000000000000e+00,0.000000000000000000e+00,4.276733398437500000e-01,1.889038085937500000e-01,-8.707885742187500000e-01,1.520996093750000000e-01
-1.200000000000000000e+01,-5.000000000000000000e+00,7.000000000000000000e+00,3.000000000000000000e+00,-2.000000000000000000e+00,0.000000000000000000e+00,0.000000000000000000e+00,0.000000000000000000e+00,4.276733398437500000e-01,1.889038085937500000e-01,-8.707885742187500000e-01,1.520996093750000000e-01
1.000000000000000000e+00,1.000000000000000000e+00,-1.100000000000000000e+01,-1.000000000000000000e+00,-3.000000000000000000e+00,-4.000000000000000000e+00,-1.000000000000000000e+00,1.000000000000000000e+00,4.276733398437500000e-01,1.889038085937500000e-01,-8.707885742187500000e-01,1.520996093750000000e-01
-1.000000000000000000e+00,1.000000000000000000e+00,-7.000000000000000000e+00,-5.000000000000000000e+00,-9.000000000000000000e+00,-1.000000000000000000e+00,-3.000000000000000000e+00,-1.000000000000000000e+00,4.276733398437500000e-01,1.888427734375000000e-01,-8.707885742187500000e-01,1.520996093750000000e-01
-2.000000000000000000e+00,-7.000000000000000000e+00,3.000000000000000000e+00,6.000000000000000000e+00,2.000000000000000000e+00,-2.000000000000000000e+00,1.000000000000000000e+00,1.000000000000000000e+00,4.276733398437500000e-01,1.888427734375000000e-01,-8.707885742187500000e-01,1.520996093750000000e-01
2.000000000000000000e+00,-1.000000000000000000e+00,-6.000000000000000000e+00,0.000000000000000000e+00,-1.000000000000000000e+00,-1.000000000000000000e+00,-1.000000000000000000e+00,-1.000000000000000000e+00,4.276733398437500000e-01,1.888427734375000000e-01,-8.707885742187500000e-01,1.520996093750000000e-01
8.000000000000000000e+00,1.800000000000000000e+01,3.000000000000000000e+00,2.000000000000000000e+00,4.000000000000000000e+00,-4.000000000000000000e+00,-3.000000000000000000e+00,-1.000000000000000000e+00,4.276733398437500000e-01,1.888427734375000000e-01,-8.707885742187500000e-01,1.520996093750000000e-01
-5.000000000000000000e+00,-1.100000000000000000e+01,-1.500000000000000000e+01,-6.000000000000000000e+00,-1.000000000000000000e+00,-2.000000000000000000e+00,0.000000000000000000e+00,-1.000000000000000000e+00,4.276733398437500000e-01,1.888427734375000000e-01,-8.707885742187500000e-01,1.520996093750000000e-01
1.300000000000000000e+01,7.000000000000000000e+00,9.000000000000000000e+00,0.000000000000000000e+00,1.000000000000000000e+00,1.000000000000000000e+00,-1.000000000000000000e+00,1.000000000000000000e+00,4.276733398437500000e-01,1.888427734375000000e-01,-8.707885742187500000e-01,1.520996093750000000e-01
-1.100000000000000000e+01,-7.000000000000000000e+00,-1.000000000000000000e+01,-3.000000000000000000e+00,1.000000000000000000e+00,1.000000000000000000e+00,0.000000000000000000e+00,1.000000000000000000e+00,4.276733398437500000e-01,1.888427734375000000e-01,-8.707885742187500000e-01,1.520996093750000000e-01
1.200000000000000000e+01,6.000000000000000000e+00,7.000000000000000000e+00,0.000000000000000000e+00,-3.000000000000000000e+00,-1.000000000000000000e+00,-2.000000000000000000e+00,0.000000000000000000e+00,4.276733398437500000e-01,1.888427734375000000e-01,-8.707885742187500000e-01,1.520996093750000000e-01
3.000000000000000000e+00,-3.000000000000000000e+00,-4.000000000000000000e+00,-5.000000000000000000e+00,-3.000000000000000000e+00,-7.000000000000000000e+00,-6.000000000000000000e+00,-5.000000000000000000e+00,4.276123046875000000e-01,1.892700195312500000e-01,-8.707275390625000000e-01,1.522827148437500000e-01
1.000000000000000000e+00,-1.400000000000000000e+01,-3.000000000000000000e+00,-3.000000000000000000e+00,-4.000000000000000000e+00,-1.000000000000000000e+00,-1.000000000000000000e+00,0.000000000000000000e+00,4.276123046875000000e-01,1.892700195312500000e-01,-8.707275390625000000e-01,1.522827148437500000e-01
8.000000000000000000e+00,5.000000000000000000e+00,0.000000000000000000e+00,-3.000000000000000000e+00,-1.000000000000000000e+00,-1.000000000000000000e+00,-1.000000000000000000e+00,-1.000000000000000000e+00,4.276123046875000000e-01,1.892700195312500000e-01,-8.707275390625000000e-01,1.522827148437500000e-01
-2.400000000000000000e+01,3.000000000000000000e+00,0.000000000000000000e+00,2.000000000000000000e+00,0.000000000000000000e+00,1.000000000000000000e+00,0.000000000000000000e+00,-1.000000000000000000e+00,4.276123046875000000e-01,1.892700195312500000e-01,-8.707275390625000000e-01,1.522827148437500000e-01
-4.000000000000000000e+00,2.000000000000000000e+00,5.000000000000000000e+00,5.000000000000000000e+00,1.000000000000000000e+00,-1.000000000000000000e+00,1.000000000000000000e+00,0.000000000000000000e+00,4.274902343750000000e-01,1.898193359375000000e-01,-8.706665039062500000e-01,1.523437500000000000e-01
1.100000000000000000e+01,-3.000000000000000000e+00,-1.000000000000000000e+00,-1.000000000000000000e+00,-4.000000000000000000e+00,-4.000000000000000000e+00,-2.000000000000000000e+00,-5.000000000000000000e+00,4.274902343750000000e-01,1.898193359375000000e-01,-8.706665039062500000e-01,1.523437500000000000e-01
-9.000000000000000000e+00,-1.000000000000000000e+00,-1.000000000000000000e+00,0.000000000000000000e+00,-2.000000000000000000e+00,0.000000000000000000e+00,-4.000000000000000000e+00,-2.000000000000000000e+00,4.274902343750000000e-01,1.898193359375000000e-01,-8.706665039062500000e-01,1.523437500000000000e-01
0.000000000000000000e+00,-7.000000000000000000e+00,6.000000000000000000e+00,0.000000000000000000e+00,0.000000000000000000e+00,-1.000000000000000000e+00,-1.000000000000000000e+00,1.000000000000000000e+00,4.274902343750000000e-01,1.898193359375000000e-01,-8.706665039062500000e-01,1.523437500000000000e-01
6.000000000000000000e+00,1.200000000000000000e+01,-5.000000000000000000e+00,-6.000000000000000000e+00,-8.000000000000000000e+00,-1.000000000000000000e+01,-4.000000000000000000e+00,-3.000000000000000000e+00,4.274291992187500000e-01,1.898193359375000000e-01,-8.706665039062500000e-01,1.523437500000000000e-01
-2.000000000000000000e+00,-3.000000000000000000e+00,3.000000000000000000e+00,0.000000000000000000e+00,-2.000000000000000000e+00,8.000000000000000000e+00,7.000000000000000000e+00,1.000000000000000000e+00,4.274291992187500000e-01,1.898193359375000000e-01,-8.706665039062500000e-01,1.523437500000000000e-01
-9.000000000000000000e+00,-8.000000000000000000e+00,-3.000000000000000000e+00,-1.000000000000000000e+00,9.000000000000000000e+00,1.000000000000000000e+00,0.000000000000000000e+00,0.000000000000000000e+00,4.274291992187500000e-01,1.898193359375000000e-01,-8.706665039062500000e-01,1.523437500000000000e-01
2.000000000000000000e+00,3.000000000000000000e+00,-4.000000000000000000e+00,-2.000000000000000000e+00,1.000000000000000000e+00,-3.000000000000000000e+00,-6.000000000000000000e+00,-3.000000000000000000e+00,4.274291992187500000e-01,1.898193359375000000e-01,-8.706665039062500000e-01,1.523437500000000000e-01
3.000000000000000000e+00,1.000000000000000000e+01,-3.000000000000000000e+00,2.000000000000000000e+00,3.000000000000000000e+00,2.000000000000000000e+00,0.000000000000000000e+00,0.000000000000000000e+00,4.274291992187500000e-01,1.898193359375000000e-01,-8.706665039062500000e-01,1.523437500000000000e-01
4.000000000000000000e+00,-2.000000000000000000e+00,5.000000000000000000e+00,0.000000000000000000e+00,-5.000000000000000000e+00,-5.000000000000000000e+00,-3.000000000000000000e+00,-2.000000000000000000e+00,4.274291992187500000e-01,1.898193359375000000e-01,-8.706665039062500000e-01,1.523437500000000000e-01
-1.100000000000000000e+01,-3.000000000000000000e+00,-1.300000000000000000e+01,-5.000000000000000000e+00,-9.000000000000000000e+00,-6.000000000000000000e+00,-2.000000000000000000e+00,-1.000000000000000000e+00,4.274291992187500000e-01,1.898193359375000000e-01,-8.706665039062500000e-01,1.523437500000000000e-01
-2.000000000000000000e+00,-1.300000000000000000e+01,5.000000000000000000e+00,-1.000000000000000000e+00,2.000000000000000000e+00,5.000000000000000000e+00,1.000000000000000000e+00,-3.000000000000000000e+00,4.274291992187500000e-01,1.898193359375000000e-01,-8.706665039062500000e-01,1.523437500000000000e-01
2.000000000000000000e+00,-4.000000000000000000e+00,-4.000000000000000000e+00,1.000000000000000000e+00,-1.000000000000000000e+00,-4.000000000000000000e+00,0.000000000000000000e+00,1.000000000000000000e+00,4.274291992187500000e-01,1.898193359375000000e-01,-8.706665039062500000e-01,1.523437500000000000e-01
0.000000000000000000e+00,3.000000000000000000e+00,-9.000000000000000000e+00,-9.000000000000000000e+00,-2.000000000000000000e+00,-3.000000000000000000e+00,-4.000000000000000000e+00,2.000000000000000000e+00,4.274291992187500000e-01,1.898193359375000000e-01,-8.706665039062500000e-01,1.523437500000000000e-01
4.000000000000000000e+00,1.000000000000000000e+01,5.000000000000000000e+00,1.000000000000000000e+00,-3.000000000000000000e+00,1.000000000000000000e+00,-1.000000000000000000e+00,-1.000000000000000000e+00,4.274291992187500000e-01,1.898193359375000000e-01,-8.706665039062500000e-01,1.523437500000000000e-01
-6.000000000000000000e+00,-4.000000000000000000e+00,-1.000000000000000000e+00,-8.000000000000000000e+00,-1.200000000000000000e+01,-5.000000000000000000e+00,-4.000000000000000000e+00,-2.000000000000000000e+00,4.274291992187500000e-01,1.898193359375000000e-01,-8.706665039062500000e-01,1.523437500000000000e-01
6.000000000000000000e+00,1.000000000000000000e+00,3.000000000000000000e+00,3.000000000000000000e+00,9.000000000000000000e+00,2.000000000000000000e+00,1.000000000000000000e+00,-1.000000000000000000e+00,4.271240234375000000e-01,1.901855468750000000e-01,-8.707275390625000000e-01,1.523437500000000000e-01
-1.500000000000000000e+01,4.000000000000000000e+00,2.000000000000000000e+00,1.100000000000000000e+01,-2.000000000000000000e+00,-3.000000000000000000e+00,-1.000000000000000000e+00,-3.000000000000000000e+00,4.271240234375000000e-01,1.901855468750000000e-01,-8.707275390625000000e-01,1.523437500000000000e-01
2.000000000000000000e+00,-4.000000000000000000e+00,-1.100000000000000000e+01,-2.100000000000000000e+01,-5.000000000000000000e+00,-1.000000000000000000e+00,-1.000000000000000000e+00,-1.000000000000000000e+00,4.271240234375000000e-01,1.901855468750000000e-01,-8.707275390625000000e-01,1.523437500000000000e-01
1.000000000000000000e+01,-1.000000000000000000e+01,-7.000000000000000000e+00,3.000000000000000000e+00,3.000000000000000000e+00,-2.000000000000000000e+00,-1.000000000000000000e+00,-1.000000000000000000e+00,4.271240234375000000e-01,1.901855468750000000e-01,-8.707275390625000000e-01,1.523437500000000000e-01
-9.000000000000000000e+00,8.000000000000000000e+00,1.800000000000000000e+01,2.000000000000000000e+00,-3.000000000000000000e+00,3.000000000000000000e+00,1.000000000000000000e+00,2.000000000000000000e+00,4.266967773437500000e-01,1.903076171875000000e-01,-8.709106445312500000e-01,1.524658203125000000e-01
-2.300000000000000000e+01,-1.600000000000000000e+01,-1.200000000000000000e+01,-5.000000000000000000e+00,-6.000000000000000000e+00,-4.000000000000000000e+00,-4.000000000000000000e+00,-2.000000000000000000e+00,4.266967773437500000e-01,1.903076171875000000e-01,-8.709106445312500000e-01,1.524658203125000000e-01
1.000000000000000000e+00,2.000000000000000000e+00,5.000000000000000000e+00,3.000000000000000000e+00,0.000000000000000000e+00,-2.000000000000000000e+00,-3.000000000000000000e+00,-1.000000000000000000e+00,4.266967773437500000e-01,1.903076171875000000e-01,-8.709106445312500000e-01,1.524658203125000000e-01
7.000000000000000000e+00,7.000000000000000000e+00,-2.000000000000000000e+00,-2.000000000000000000e+00,-2.000000000000000000e+00,4.000000000000000000e+00,2.000000000000000000e+00,-2.000000000000000000e+00,4.266967773437500000e-01,1.903076171875000000e-01,-8.709106445312500000e-01,1.524658203125000000e-01
-9.000000000000000000e+00,-1.000000000000000000e+00,1.000000000000000000e+00,-4.000000000000000000e+00,-4.000000000000000000e+00,-2.000000000000000000e+00,-3.000000000000000000e+00,0.000000000000000000e+00,4.262084960937500000e-01,1.904296875000000000e-01,-8.710937500000000000e-01,1.525878906250000000e-01
1.200000000000000000e+01,-5.000000000000000000e+00,-5.000000000000000000e+00,0.000000000000000000e+00,1.000000000000000000e+00,-1.000000000000000000e+00,1.000000000000000000e+00,0.000000000000000000e+00,4.262084960937500000e-01,1.904296875000000000e-01,-8.710937500000000000e-01,1.525878906250000000e-01
-9.000000000000000000e+00,2.000000000000000000e+00,2.000000000000000000e+00,6.000000000000000000e+00,1.000000000000000000e+00,0.000000000000000000e+00,3.000000000000000000e+00,0.000000000000000000e+00,4.262084960937500000e-01,1.904296875000000000e-01,-8.710937500000000000e-01,1.525878906250000000e-01
7.000000000000000000e+00,-8.000000000000000000e+00,-6.000000000000000000e+00,-7.000000000000000000e+00,-4.000000000000000000e+00,-2.000000000000000000e+00,-1.000000000000000000e+00,1.000000000000000000e+00,4.262084960937500000e-01,1.904296875000000000e-01,-8.710937500000000000e-01,1.525878906250000000e-01
-3.000000000000000000e+00,-2.000000000000000000e+00,-1.100000000000000000e+01,-3.000000000000000000e+00,-3.000000000000000000e+00,-6.000000000000000000e+00,-3.000000000000000000e+00,-2.000000000000000000e+00,4.256591796875000000e-01,1.904296875000000000e-01,-8.713378906250000000e-01,1.528320312500000000e-01
4.000000000000000000e+00,3.000000000000000000e+00,-4.000000000000000000e+00,-5.000000000000000000e+00,0.000000000000000000e+00,-3.000000000000000000e+00,0.000000000000000000e+00,-1.000000000000000000e+00,4.256591796875000000e-01,1.904296875000000000e-01,-8.713378906250000000e-01,1.528320312500000000e-01
6.000000000000000000e+00,0.000000000000000000e+00,-1.000000000000000000e+01,0.000000000000000000e+00,2.000000000000000000e+00,4.000000000000000000e+00,2.000000000000000000e+00,-2.000000000000000000e+00,4.256591796875000000e-01,1.904296875000000000e-01,-8.713378906250000000e-01,1.528320312500000000e-01
-1.000000000000000000e+00,3.000000000000000000e+00,-2.000000000000000000e+00,4.000000000000000000e+00,4.000000000000000000e+00,-1.000000000000000000e+00,4.000000000000000000e+00,1.000000000000000000e+00,4.256591796875000000e-01,1.904296875000000000e-01,-8.713378906250000000e-01,1.528320312500000000e-01
-8.000000000000000000e+00,-1.600000000000000000e+01,-1.000000000000000000e+01,-2.000000000000000000e+00,-7.000000000000000000e+00,-3.000000000000000000e+00,2.000000000000000000e+00,-1.000000000000000000e+00,4.252319335937500000e-01,1.903076171875000000e-01,-8.715209960937500000e-01,1.531372070312500000e-01
2.000000000000000000e+00,0.000000000000000000e+00,1.200000000000000000e+01,-3.000000000000000000e+00,-4.000000000000000000e+00,-1.000000000000000000e+00,-3.000000000000000000e+00,-2.000000000000000000e+00,4.252319335937500000e-01,1.903076171875000000e-01,-8.715209960937500000e-01,1.531372070312500000e-01
3.000000000000000000e+00,0.000000000000000000e+00,-9.000000000000000000e+00,2.000000000000000000e+00,3.000000000000000000e+00,-1.000000000000000000e+00,0.000000000000000000e+00,0.000000000000000000e+00,4.252319335937500000e-01,1.903076171875000000e-01,-8.715209960937500000e-01,1.531372070312500000e-01
-1.000000000000000000e+01,1.000000000000000000e+00,1.600000000000000000e+01,1.000000000000000000e+00,-6.000000000000000000e+00,-2.000000000000000000e+00,-3.000000000000000000e+00,-2.000000000000000000e+00,4.252319335937500000e-01,1.903076171875000000e-01,-8.715209960937500000e-01,1.531372070312500000e-01
4.000000000000000000e+00,-6.000000000000000000e+00,1.000000000000000000e+00,-2.000000000000000000e+00,2.000000000000000000e+00,-1.000000000000000000e+00,-4.000000000000000000e+00,-4.000000000000000000e+00,4.249267578125000000e-01,1.902465820312500000e-01,-8.716430664062500000e-01,1.534423828125000000e-01
0.000000000000000000e+00,7.000000000000000000e+00,-5.000000000000000000e+00,-3.000000000000000000e+00,-1.000000000000000000e+00,-1.000000000000000000e+00,-3.000000000000000000e+00,-2.000000000000000000e+00,4.249267578125000000e-01,1.902465820312500000e-01,-8.716430664062500000e-01,1.534423828125000000e-01
-1.000000000000000000e+01,-1.900000000000000000e+01,3.000000000000000000e+00,2.000000000000000000e+00,-3.000000000000000000e+00,-5.000000000000000000e+00,2.000000000000000000e+00,-4.000000000000000000e+00,4.245605468750000000e-01,1.900634765625000000e-01,-8.717651367187500000e-01,1.538696289062500000e-01
-2.100000000000000000e+01,1.000000000000000000e+00,-1.000000000000000000e+00,-1.000000000000000000e+00,-3.000000000000000000e+00,-1.000000000000000000e+00,0.000000000000000000e+00,3.000000000000000000e+00,4.245605468750000000e-01,1.900634765625000000e-01,-8.717651367187500000e-01,1.538696289062500000e-01
-1.100000000000000000e+01,-8.000000000000000000e+00,-1.000000000000000000e+00,-3.000000000000000000e+00,2.000000000000000000e+00,2.000000000000000000e+00,0.000000000000000000e+00,-3.000000000000000000e+00,4.245605468750000000e-01,1.900634765625000000e-01,-8.717651367187500000e-01,1.538696289062500000e-01
1.500000000000000000e+01,3.000000000000000000e+00,3.000000000000000000e+00,1.000000000000000000e+00,0.000000000000000000e+00,-2.000000000000000000e+00,-1.000000000000000000e+00,-3.000000000000000000e+00,4.245605468750000000e-01,1.900634765625000000e-01,-8.717651367187500000e-01,1.538696289062500000e-01
5.000000000000000000e+00,0.000000000000000000e+00,0.000000000000000000e+00,-3.000000000000000000e+00,-4.000000000000000000e+00,-4.000000000000000000e+00,-2.000000000000000000e+00,1.000000000000000000e+00,4.242553710937500000e-01,1.899414062500000000e-01,-8.718872070312500000e-01,1.541748046875000000e-01
-9.000000000000000000e+00,1.000000000000000000e+00,-8.000000000000000000e+00,-3.000000000000000000e+00,-1.000000000000000000e+00,1.000000000000000000e+00,1.000000000000000000e+00,-2.000000000000000000e+00,4.242553710937500000e-01,1.899414062500000000e-01,-8.718872070312500000e-01,1.541748046875000000e-01
2.100000000000000000e+01,1.100000000000000000e+01,3.000000000000000000e+00,0.000000000000000000e+00,3.000000000000000000e+00,3.000000000000000000e+00,-1.000000000000000000e+00,1.000000000000000000e+00,4.242553710937500000e-01,1.899414062500000000e-01,-8.718872070312500000e-01,1.541748046875000000e-01
-3.700000000000000000e+01,0.000000000000000000e+00,8.000000000000000000e+00,1.000000000000000000e+00,3.000000000000000000e+00,2.000000000000000000e+00,-1.000000000000000000e+00,-1.000000000000000000e+00,4.242553710937500000e-01,1.899414062500000000e-01,-8.718872070312500000e-01,1.541748046875000000e-01
