-4.000000000000000000e+00,-1.000000000000000000e+01,-7.500000000000000000e+01,2.000000000000000000e+00,-5.000000000000000000e+00,1.000000000000000000e+00,6.000000000000000000e+00,-2.000000000000000000e+00,-2.641601562500000000e-01,-7.580566406250000000e-02,8.070068359375000000e-01,5.227050781250000000e-01
2.000000000000000000e+00,3.000000000000000000e+00,6.000000000000000000e+00,-7.000000000000000000e+00,1.000000000000000000e+01,1.100000000000000000e+01,1.300000000000000000e+01,1.000000000000000000e+00,-2.641601562500000000e-01,-7.580566406250000000e-02,8.070068359375000000e-01,5.227050781250000000e-01
2.000000000000000000e+00,0.000000000000000000e+00,4.000000000000000000e+00,2.100000000000000000e+01,5.000000000000000000e+00,0.000000000000000000e+00,-9.000000000000000000e+00,-1.000000000000000000e+00,-2.642211914062500000e-01,-7.586669921875000000e-02,8.071899414062500000e-01,5.223388671875000000e-01
1.000000000000000000e+00,3.000000000000000000e+00,1.600000000000000000e+01,0.000000000000000000e+00,8.000000000000000000e+00,-3.000000000000000000e+00,2.000000000000000000e+00,0.000000000000000000e+00,-2.642211914062500000e-01,-7.586669921875000000e-02,8.071899414062500000e-01,5.223388671875000000e-01
3.000000000000000000e+00,3.000000000000000000e+00,2.400000000000000000e+01,-3.000000000000000000e+00,8.000000000000000000e+00,9.000000000000000000e+00,1.100000000000000000e+01,2.000000000000000000e+00,-2.642211914062500000e-01,-7.586669921875000000e-02,8.071899414062500000e-01,5.223388671875000000e-01
2.000000000000000000e+00,1.000000000000000000e+01,-2.000000000000000000e+01,0.000000000000000000e+00,-4.000000000000000000e+00,-2.000000000000000000e+00,-6.000000000000000000e+00,1.000000000000000000e+00,-2.642211914062500000e-01,-7.586669921875000000e-02,8.071899414062500000e-01,5.223388671875000000e-01
-6.000000000000000000e+00,-2.300000000000000000e+01,-1.100000000000000000e+01,-3.600000000000000000e+01,-1.600000000000000000e+01,-1.000000000000000000e+01,3.000000000000000000e+00,-4.000000000000000000e+00,-2.640380859375000000e-01,-7.629394531250000000e-02,8.071899414062500000e-01,5.223388671875000000e-01
1.000000000000000000e+00,-1.000000000000000000e+00,2.200000000000000000e+01,2.100000000000000000e+01,3.000000000000000000e+00,0.000000000000000000e+00,6.000000000000000000e+00,1.000000000000000000e+00,-2.640380859375000000e-01,-7.629394531250000000e-02,8.071899414062500000e-01,5.223388671875000000e-01
1.000000000000000000e+00,5.000000000000000000e+00,1.000000000000000000e+01,-8.000000000000000000e+00,-2.000000000000000000e+00,1.000000000000000000e+00,2.700000000000000000e+01,1.000000000000000000e+00,-2.640380859375000000e-01,-7.629394531250000000e-02,8.071899414062500000e-01,5.223388671875000000e-01
-3.000000000000000000e+00,-6.000000000000000000e+00,9.000000000000000000e+00,3.000000000000000000e+00,-6.000000000000000000e+00,-5.000000000000000000e+00,-2.000000000000000000e+01,-5.000000000000000000e+00,-2.640380859375000000e-01,-7.629394531250000000e-02,8.071899414062500000e-01,5.223388671875000000e-01
-5.000000000000000000e+00,0.000000000000000000e+00,1.300000000000000000e+01,6.000000000000000000e+00,-1.000000000000000000e+00,0.000000000000000000e+00,0.000000000000000000e+00,-3.000000000000000000e+00,-2.638549804687500000e-01,-7.629394531250000000e-02,8.070678710937500000e-01,5.226440429687500000e-01
-2.000000000000000000e+00,-3.000000000000000000e+00,-4.300000000000000000e+01,-8.000000000000000000e+00,-1.100000000000000000e+01,3.000000000000000000e+00,3.000000000000000000e+00,1.000000000000000000e+00,-2.638549804687500000e-01,-7.629394531250000000e-02,8.070678710937500000e-01,5.226440429687500000e-01
-2.000000000000000000e+00,-1.000000000000000000e+00,-1.900000000000000000e+01,-8.000000000000000000e+00,-2.000000000000000000e+00,-7.000000000000000000e+00,-4.000000000000000000e+00,-3.000000000000000000e+00,-2.638549804687500000e-01,-7.629394531250000000e-02,8.070678710937500000e-01,5.226440429687500000e-01
3.000000000000000000e+00,1.400000000000000000e+01,7.400000000000000000e+01,1.800000000000000000e+01,7.000000000000000000e+00,2.000000000000000000e+00,1.000000000000000000e+00,1.000000000000000000e+00,-2.638549804687500000e-01,-7.629394531250000000e-02,8.070678710937500000e-01,5.226440429687500000e-01
-2.000000000000000000e+00,1.000000000000000000e+00,2.000000000000000000e+00,0.000000000000000000e+00,-4.000000000000000000e+00,-6.000000000000000000e+00,-4.000000000000000000e+00,-4.000000000000000000e+00,-2.634277343750000000e-01,-7.568359375000000000e-02,8.072509765625000000e-01,5.227050781250000000e-01
-4.000000000000000000e+00,-6.000000000000000000e+00,4.700000000000000000e+01,2.100000000000000000e+01,0.000000000000000000e+00,-7.000000000000000000e+00,-3.000000000000000000e+00,-4.000000000000000000e+00,-2.634277343750000000e-01,-7.568359375000000000e-02,8.072509765625000000e-01,5.227050781250000000e-01
1.000000000000000000e+00,2.000000000000000000e+00,-1.500000000000000000e+01,-1.700000000000000000e+01,-3.000000000000000000e+00,8.000000000000000000e+00,7.000000000000000000e+00,2.000000000000000000e+00,-2.634277343750000000e-01,-7.568359375000000000e-02,8.072509765625000000e-01,5.227050781250000000e-01
-1.000000000000000000e+00,1.000000000000000000e+00,2.200000000000000000e+01,0.000000000000000000e+00,-1.000000000000000000e+00,-2.000000000000000000e+00,-5.000000000000000000e+00,-3.000000000000000000e+00,-2.634277343750000000e-01,-7.568359375000000000e-02,8.072509765625000000e-01,5.227050781250000000e-01
0.000000000000000000e+00,-5.000000000000000000e+00,-5.000000000000000000e+00,6.000000000000000000e+00,1.000000000000000000e+01,4.000000000000000000e+00,-4.000000000000000000e+00,0.000000000000000000e+00,-2.634277343750000000e-01,-7.537841796875000000e-02,8.074340820312500000e-01,5.223999023437500000e-01
0.000000000000000000e+00,0.000000000000000000e+00,-9.000000000000000000e+00,6.000000000000000000e+00,7.000000000000000000e+00,4.000000000000000000e+00,1.100000000000000000e+01,1.000000000000000000e+00,-2.634277343750000000e-01,-7.537841796875000000e-02,8.074340820312500000e-01,5.223999023437500000e-01
-1.000000000000000000e+00,-3.000000000000000000e+00,-2.800000000000000000e+01,-2.500000000000000000e+01,-8.000000000000000000e+00,-9.000000000000000000e+00,-1.500000000000000000e+01,0.000000000000000000e+00,-2.634277343750000000e-01,-7.537841796875000000e-02,8.074340820312500000e-01,5.223999023437500000e-01
1.000000000000000000e+00,6.000000000000000000e+00,1.800000000000000000e+01,1.700000000000000000e+01,-1.000000000000000000e+01,-4.000000000000000000e+00,-6.000000000000000000e+00,-1.000000000000000000e+00,-2.634277343750000000e-01,-7.537841796875000000e-02,8.074340820312500000e-01,5.223999023437500000e-01
-3.000000000000000000e+00,-7.000000000000000000e+00,-1.200000000000000000e+01,8.000000000000000000e+00,2.000000000000000000e+00,7.000000000000000000e+00,5.000000000000000000e+00,-4.000000000000000000e+00,-2.639160156250000000e-01,-7.580566406250000000e-02,8.074951171875000000e-01,5.220336914062500000e-01
3.000000000000000000e+00,4.000000000000000000e+00,-1.700000000000000000e+01,1.000000000000000000e+00,6.000000000000000000e+00,0.000000000000000000e+00,-7.000000000000000000e+00,-1.000000000000000000e+00,-2.639160156250000000e-01,-7.580566406250000000e-02,8.074951171875000000e-01,5.220336914062500000e-01
-2.000000000000000000e+00,-6.000000000000000000e+00,-2.500000000000000000e+01,-2.400000000000000000e+01,0.000000000000000000e+00,-9.000000000000000000e+00,-1.700000000000000000e+01,-2.000000000000000000e+00,-2.639160156250000000e-01,-7.580566406250000000e-02,8.074951171875000000e-01,5.220336914062500000e-01
-1.000000000000000000e+00,-9.000000000000000000e+00,-5.700000000000000000e+01,-4.000000000000000000e+00,-2.000000000000000000e+00,9.000000000000000000e+00,5.000000000000000000e+00,-1.000000000000000000e+00,-2.639160156250000000e-01,-7.580566406250000000e-02,8.074951171875000000e-01,5.220336914062500000e-01
0.000000000000000000e+00,1.100000000000000000e+01,1.000000000000000000e+01,4.000000000000000000e+00,-1.000000000000000000e+01,-1.100000000000000000e+01,4.000000000000000000e+00,0.000000000000000000e+00,-2.641601562500000000e-01,-7.598876953125000000e-02,8.074340820312500000e-01,5.219726562500000000e-01
2.000000000000000000e+00,2.000000000000000000e+00,9.000000000000000000e+00,-2.000000000000000000e+00,-4.000000000000000000e+00,-1.000000000000000000e+00,-6.000000000000000000e+00,1.000000000000000000e+00,-2.641601562500000000e-01,-7.598876953125000000e-02,8.074340820312500000e-01,5.219726562500000000e-01
-2.000000000000000000e+00,2.000000000000000000e+00,5.600000000000000000e+01,3.000000000000000000e+01,-4.000000000000000000e+00,-9.000000000000000000e+00,-1.600000000000000000e+01,-4.000000000000000000e+00,-2.641601562500000000e-01,-7.598876953125000000e-02,8.074340820312500000e-01,5.219726562500000000e-01
-2.000000000000000000e+00,-1.000000000000000000e+01,-2.600000000000000000e+01,-1.200000000000000000e+01,-4.000000000000000000e+00,9.000000000000000000e+00,1.400000000000000000e+01,-3.000000000000000000e+00,-2.641601562500000000e-01,-7.598876953125000000e-02,8.074340820312500000e-01,5.219726562500000000e-01
0.000000000000000000e+00,4.000000000000000000e+00,-3.100000000000000000e+01,-7.000000000000000000e+00,9.000000000000000000e+00,4.000000000000000000e+00,1.300000000000000000e+01,0.000000000000000000e+00,-2.640380859375000000e-01,-7.568359375000000000e-02,8.073730468750000000e-01,5.221557617187500000e-01
-6.000000000000000000e+00,-8.000000000000000000e+00,9.000000000000000000e+00,6.000000000000000000e+00,-6.000000000000000000e+00,8.000000000000000000e+00,-2.300000000000000000e+01,-3.000000000000000000e+00,-2.640380859375000000e-01,-7.568359375000000000e-02,8.073730468750000000e-01,5.221557617187500000e-01
-3.000000000000000000e+00,-9.000000000000000000e+00,-9.000000000000000000e+01,-2.900000000000000000e+01,0.000000000000000000e+00,-9.000000000000000000e+00,-1.700000000000000000e+01,-1.000000000000000000e+00,-2.640380859375000000e-01,-7.568359375000000000e-02,8.073730468750000000e-01,5.221557617187500000e-01
-3.000000000000000000e+00,1.000000000000000000e+00,4.700000000000000000e+01,7.000000000000000000e+00,-2.000000000000000000e+00,0.000000000000000000e+00,-2.000000000000000000e+00,0.000000000000000000e+00,-2.640380859375000000e-01,-7.568359375000000000e-02,8.073730468750000000e-01,5.221557617187500000e-01
0.000000000000000000e+00,3.000000000000000000e+00,1.300000000000000000e+01,8.000000000000000000e+00,-1.000000000000000000e+00,0.000000000000000000e+00,2.000000000000000000e+00,-1.000000000000000000e+00,-2.637939453125000000e-01,-7.531738281250000000e-02,8.073120117187500000e-01,5.223999023437500000e-01
-1.000000000000000000e+00,-2.000000000000000000e+00,-4.600000000000000000e+01,-2.700000000000000000e+01,-5.000000000000000000e+00,-2.000000000000000000e+00,4.000000000000000000e+00,-3.000000000000000000e+00,-2.637939453125000000e-01,-7.531738281250000000e-02,8.073120117187500000e-01,5.223999023437500000e-01
-1.000000000000000000e+00,4.000000000000000000e+00,7.500000000000000000e+01,3.500000000000000000e+01,4.000000000000000000e+00,-7.000000000000000000e+00,-8.000000000000000000e+00,-2.000000000000000000e+00,-2.637939453125000000e-01,-7.531738281250000000e-02,8.073120117187500000e-01,5.223999023437500000e-01
0.000000000000000000e+00,-5.000000000000000000e+00,-7.700000000000000000e+01,-1.700000000000000000e+01,-1.000000000000000000e+00,0.000000000000000000e+00,-1.000000000000000000e+00,-1.000000000000000000e+00,-2.637939453125000000e-01,-7.531738281250000000e-02,8.073120117187500000e-01,5.223999023437500000e-01
-2.000000000000000000e+00,-3.000000000000000000e+00,5.000000000000000000e+00,2.000000000000000000e+00,-3.000000000000000000e+00,-6.000000000000000000e+00,-6.000000000000000000e+00,0.000000000000000000e+00,-2.639160156250000000e-01,-7.501220703125000000e-02,8.073730468750000000e-01,5.223388671875000000e-01
-2.000000000000000000e+00,-1.000000000000000000e+00,7.000000000000000000e+00,2.000000000000000000e+00,8.000000000000000000e+00,1.000000000000000000e+00,8.000000000000000000e+00,-1.000000000000000000e+00,-2.639160156250000000e-01,-7.501220703125000000e-02,8.073730468750000000e-01,5.223388671875000000e-01
5.000000000000000000e+00,-3.000000000000000000e+00,-6.100000000000000000e+01,-1.900000000000000000e+01,-2.000000000000000000e+00,1.300000000000000000e+01,7.000000000000000000e+00,3.000000000000000000e+00,-2.639160156250000000e-01,-7.501220703125000000e-02,8.073730468750000000e-01,5.223388671875000000e-01
0.000000000000000000e+00,2.000000000000000000e+00,1.300000000000000000e+01,5.000000000000000000e+00,5.000000000000000000e+00,-8.000000000000000000e+00,-3.000000000000000000e+00,-1.000000000000000000e+00,-2.639160156250000000e-01,-7.501220703125000000e-02,8.073730468750000000e-01,5.223388671875000000e-01
0.000000000000000000e+00,5.000000000000000000e+00,4.900000000000000000e+01,1.000000000000000000e+00,-3.000000000000000000e+00,1.000000000000000000e+00,-5.000000000000000000e+00,-1.000000000000000000e+00,-2.640991210937500000e-01,-7.507324218750000000e-02,8.074340820312500000e-01,5.221557617187500000e-01
3.000000000000000000e+00,0.000000000000000000e+00,-3.300000000000000000e+01,4.000000000000000000e+00,-4.000000000000000000e+00,0.000000000000000000e+00,7.000000000000000000e+00,2.000000000000000000e+00,-2.640991210937500000e-01,-7.507324218750000000e-02,8.074340820312500000e-01,5.221557617187500000e-01
1.000000000000000000e+00,4.000000000000000000e+00,1.600000000000000000e+01,-8.000000000000000000e+00,2.000000000000000000e+00,4.000000000000000000e+00,2.000000000000000000e+00,0.000000000000000000e+00,-2.640991210937500000e-01,-7.507324218750000000e-02,8.074340820312500000e-01,5.221557617187500000e-01
0.000000000000000000e+00,-7.000000000000000000e+00,-2.800000000000000000e+01,-5.000000000000000000e+00,4.000000000000000000e+00,-3.000000000000000000e+00,-4.000000000000000000e+00,1.000000000000000000e+00,-2.640991210937500000e-01,-7.507324218750000000e-02,8.074340820312500000e-01,5.221557617187500000e-01
0.000000000000000000e+00,-4.000000000000000000e+00,3.000000000000000000e+00,-2.200000000000000000e+01,-9.000000000000000000e+00,-7.000000000000000000e+00,-9.000000000000000000e+00,0.000000000000000000e+00,-2.644042968750000000e-01,-7.519531250000000000e-02,8.074340820312500000e-01,5.219726562500000000e-01
-3.000000000000000000e+00,-1.000000000000000000e+00,-1.900000000000000000e+01,-8.000000000000000000e+00,-2.000000000000000000e+00,-6.000000000000000000e+00,-9.000000000000000000e+00,-3.000000000000000000e+00,-2.644042968750000000e-01,-7.519531250000000000e-02,8.074340820312500000e-01,5.219726562500000000e-01
-1.000000000000000000e+00,4.000000000000000000e+00,4.000000000000000000e+00,2.000000000000000000e+01,0.000000000000000000e+00,3.000000000000000000e+00,6.000000000000000000e+00,0.000000000000000000e+00,-2.644042968750000000e-01,-7.519531250000000000e-02,8.074340820312500000e-01,5.219726562500000000e-01
-1.000000000000000000e+00,-1.200000000000000000e+01,2.000000000000000000e+01,-1.000000000000000000e+01,-6.000000000000000000e+00,-6.000000000000000000e+00,-6.000000000000000000e+00,-1.000000000000000000e+00,-2.644042968750000000e-01,-7.519531250000000000e-02,8.074340820312500000e-01,5.219726562500000000e-01
-1.000000000000000000e+00,-1.000000000000000000e+00,-3.800000000000000000e+01,-2.400000000000000000e+01,-8.000000000000000000e+00,-6.000000000000000000e+00,-1.100000000000000000e+01,0.000000000000000000e+00,-2.644042968750000000e-01,-7.519531250000000000e-02,8.074340820312500000e-01,5.219726562500000000e-01
-4.000000000000000000e+00,-8.000000000000000000e+00,2.100000000000000000e+01,7.000000000000000000e+00,-2.000000000000000000e+00,4.000000000000000000e+00,2.600000000000000000e+01,1.000000000000000000e+00,-2.644042968750000000e-01,-7.519531250000000000e-02,8.074340820312500000e-01,5.219726562500000000e-01
0.000000000000000000e+00,1.000000000000000000e+00,6.000000000000000000e+00,5.000000000000000000e+00,-8.000000000000000000e+00,-6.000000000000000000e+00,-5.000000000000000000e+00,-5.000000000000000000e+00,-2.644042968750000000e-01,-7.519531250000000000e-02,8.074340820312500000e-01,5.219726562500000000e-01
-1.000000000000000000e+00,3.000000000000000000e+00,6.000000000000000000e+00,-1.100000000000000000e+01,-3.000000000000000000e+00,-8.000000000000000000e+00,-3.000000000000000000e+00,-3.000000000000000000e+00,-2.644042968750000000e-01,-7.519531250000000000e-02,8.074340820312500000e-01,5.219726562500000000e-01
1.000000000000000000e+00,-7.000000000000000000e+00,-2.500000000000000000e+01,7.000000000000000000e+00,2.000000000000000000e+00,-3.000000000000000000e+00,-1.000000000000000000e+00,-1.000000000000000000e+00,-2.640991210937500000e-01,-7.501220703125000000e-02,8.074951171875000000e-01,5.220947265625000000e-01
2.000000000000000000e+00,6.000000000000000000e+00,5.100000000000000000e+01,-3.000000000000000000e+00,1.300000000000000000e+01,-1.000000000000000000e+00,5.000000000000000000e+00,1.000000000000000000e+00,-2.640991210937500000e-01,-7.501220703125000000e-02,8.074951171875000000e-01,5.220947265625000000e-01
-5.000000000000000000e+00,-1.400000000000000000e+01,-5.200000000000000000e+01,-2.200000000000000000e+01,-8.000000000000000000e+00,1.100000000000000000e+01,3.000000000000000000e+00,-1.000000000000000000e+00,-2.640991210937500000e-01,-7.501220703125000000e-02,8.074951171875000000e-01,5.220947265625000000e-01
1.000000000000000000e+00,1.000000000000000000e+00,1.000000000000000000e+00,1.000000000000000000e+00,3.000000000000000000e+00,-1.000000000000000000e+00,-8.000000000000000000e+00,0.000000000000000000e+00,-2.640991210937500000e-01,-7.501220703125000000e-02,8.074951171875000000e-01,5.220947265625000000e-01
-4.000000000000000000e+00,-7.000000000000000000e+00,-3.600000000000000000e+01,-9.000000000000000000e+00,-3.000000000000000000e+00,2.000000000000000000e+00,1.000000000000000000e+00,-1.000000000000000000e+00,-2.639770507812500000e-01,-7.525634765625000000e-02,8.076171875000000000e-01,5.219116210937500000e-01
2.000000000000000000e+00,1.200000000000000000e+01,2.400000000000000000e+01,-1.600000000000000000e+01,-9.000000000000000000e+00,-5.000000000000000000e+00,-2.000000000000000000e+00,-1.000000000000000000e+00,-2.639770507812500000e-01,-7.525634765625000000e-02,8.076171875000000000e-01,5.219116210937500000e-01
-2.000000000000000000e+00,-1.100000000000000000e+01,-2.500000000000000000e+01,1.400000000000000000e+01,3.000000000000000000e+00,-7.000000000000000000e+00,-2.000000000000000000e+00,1.000000000000000000e+00,-2.639770507812500000e-01,-7.525634765625000000e-02,8.076171875000000000e-01,5.219116210937500000e-01
0.000000000000000000e+00,0.000000000000000000e+00,1.600000000000000000e+01,7.000000000000000000e+00,-3.000000000000000000e+00,1.000000000000000000e+00,0.000000000000000000e+00,-3.000000000000000000e+00,-2.639770507812500000e-01,-7.525634765625000000e-02,8.076171875000000000e-01,5.219116210937500000e-01
-1.000000000000000000e+00,-3.000000000000000000e+00,-3.200000000000000000e+01,-1.600000000000000000e+01,4.000000000000000000e+00,6.000000000000000000e+00,6.000000000000000000e+00,0.000000000000000000e+00,-2.639160156250000000e-01,-7.531738281250000000e-02,8.076171875000000000e-01,5.219116210937500000e-01
2.000000000000000000e+00,3.000000000000000000e+00,-1.100000000000000000e+01,-3.000000000000000000e+00,-5.000000000000000000e+00,-6.000000000000000000e+00,-1.100000000000000000e+01,-2.000000000000000000e+00,-2.639160156250000000e-01,-7.531738281250000000e-02,8.076171875000000000e-01,5.219116210937500000e-01
-5.000000000000000000e+00,-5.000000000000000000e+00,-3.300000000000000000e+01,-1.400000000000000000e+01,-6.000000000000000000e+00,-5.000000000000000000e+00,0.000000000000000000e+00,-3.000000000000000000e+00,-2.639160156250000000e-01,-7.531738281250000000e-02,8.076171875000000000e-01,5.219116210937500000e-01
-1.000000000000000000e+00,0.000000000000000000e+00,1.700000000000000000e+01,-6.000000000000000000e+00,-1.100000000000000000e+01,-7.000000000000000000e+00,-1.000000000000000000e+00,1.000000000000000000e+00,-2.639160156250000000e-01,-7.531738281250000000e-02,8.076171875000000000e-01,5.219116210937500000e-01
-5.000000000000000000e+00,-2.000000000000000000e+00,8.200000000000000000e+01,4.200000000000000000e+01,1.000000000000000000e+01,9.000000000000000000e+00,6.000000000000000000e+00,0.000000000000000000e+00,-2.638549804687500000e-01,-7.543945312500000000e-02,8.076782226562500000e-01,5.217895507812500000e-01
-4.000000000000000000e+00,-9.000000000000000000e+00,-2.800000000000000000e+01,2.000000000000000000e+00,-5.000000000000000000e+00,-3.000000000000000000e+00,-1.200000000000000000e+01,-3.000000000000000000e+00,-2.638549804687500000e-01,-7.543945312500000000e-02,8.076782226562500000e-01,5.217895507812500000e-01
-1.000000000000000000e+00,0.000000000000000000e+00,-1.900000000000000000e+01,-3.900000000000000000e+01,-8.000000000000000000e+00,1.000000000000000000e+00,1.000000000000000000e+01,1.000000000000000000e+00,-2.638549804687500000e-01,-7.543945312500000000e-02,8.076782226562500000e-01,5.217895507812500000e-01
1.000000000000000000e+00,0.000000000000000000e+00,-6.300000000000000000e+01,-4.000000000000000000e+00,4.000000000000000000e+00,-2.000000000000000000e+00,0.000000000000000000e+00,2.000000000000000000e+00,-2.638549804687500000e-01,-7.543945312500000000e-02,8.076782226562500000e-01,5.217895507812500000e-01
3.000000000000000000e+00,3.000000000000000000e+00,1.500000000000000000e+01,8.000000000000000000e+00,2.000000000000000000e+00,-1.000000000000000000e+00,-1.000000000000000000e+00,-1.000000000000000000e+00,-2.639160156250000000e-01,-7.537841796875000000e-02,8.078002929687500000e-01,5.216064453125000000e-01
-2.000000000000000000e+00,-6.000000000000000000e+00,-2.900000000000000000e+01,-1.400000000000000000e+01,-2.000000000000000000e+00,1.000000000000000000e+00,-6.000000000000000000e+00,-2.000000000000000000e+00,-2.639160156250000000e-01,-7.537841796875000000e-02,8.078002929687500000e-01,5.216064453125000000e-01
-2.000000000000000000e+00,4.000000000000000000e+00,4.800000000000000000e+01,2.500000000000000000e+01,0.000000000000000000e+00,-1.000000000000000000e+00,9.000000000000000000e+00,0.000000000000000000e+00,-2.639160156250000000e-01,-7.537841796875000000e-02,8.078002929687500000e-01,5.216064453125000000e-01
-2.000000000000000000e+00,-3.000000000000000000e+00,-7.700000000000000000e+01,-1.900000000000000000e+01,-2.000000000000000000e+00,-1.000000000000000000e+00,-3.000000000000000000e+00,0.000000000000000000e+00,-2.639160156250000000e-01,-7.537841796875000000e-02,8.078002929687500000e-01,5.216064453125000000e-01
3.000000000000000000e+00,3.000000000000000000e+00,1.900000000000000000e+01,1.400000000000000000e+01,1.600000000000000000e+01,1.900000000000000000e+01,1.900000000000000000e+01,1.000000000000000000e+00,-2.639770507812500000e-01,-7.513427734375000000e-02,8.079223632812500000e-01,5.214233398437500000e-01
-3.000000000000000000e+00,-8.000000000000000000e+00,-3.000000000000000000e+01,5.000000000000000000e+00,-1.300000000000000000e+01,-5.000000000000000000e+00,-5.000000000000000000e+00,-2.000000000000000000e+00,-2.639770507812500000e-01,-7.513427734375000000e-02,8.079223632812500000e-01,5.214233398437500000e-01
1.000000000000000000e+00,3.000000000000000000e+00,3.900000000000000000e+01,-3.000000000000000000e+00,1.100000000000000000e+01,3.000000000000000000e+00,0.000000000000000000e+00,0.000000000000000000e+00,-2.639770507812500000e-01,-7.513427734375000000e-02,8.079223632812500000e-01,5.214233398437500000e-01
-3.000000000000000000e+00,-2.000000000000000000e+00,2.600000000000000000e+01,8.000000000000000000e+00,2.000000000000000000e+00,2.000000000000000000e+00,1.000000000000000000e+00,-3.000000000000000000e+00,-2.639770507812500000e-01,-7.513427734375000000e-02,8.079223632812500000e-01,5.214233398437500000e-01
3.000000000000000000e+00,6.000000000000000000e+00,-8.000000000000000000e+00,-6.000000000000000000e+00,-3.000000000000000000e+00,-6.000000000000000000e+00,-5.000000000000000000e+00,0.000000000000000000e+00,-2.640991210937500000e-01,-7.525634765625000000e-02,8.079833984375000000e-01,5.212402343750000000e-01
-2.000000000000000000e+00,-2.000000000000000000e+00,6.000000000000000000e+00,0.000000000000000000e+00,0.000000000000000000e+00,-6.000000000000000000e+00,-3.000000000000000000e+00,0.000000000000000000e+00,-2.640991210937500000e-01,-7.525634765625000000e-02,8.079833984375000000e-01,5.212402343750000000e-01
-1.000000000000000000e+00,5.000000000000000000e+00,6.300000000000000000e+01,3.900000000000000000e+01,2.000000000000000000e+00,1.000000000000000000e+01,2.500000000000000000e+01,1.000000000000000000e+00,-2.640991210937500000e-01,-7.525634765625000000e-02,8.079833984375000000e-01,5.212402343750000000e-01
5.000000000000000000e+00,1.000000000000000000e+01,6.700000000000000000e+01,1.300000000000000000e+01,1.000000000000000000e+01,1.200000000000000000e+01,5.000000000000000000e+00,3.000000000000000000e+00,-2.640991210937500000e-01,-7.525634765625000000e-02,8.079833984375000000e-01,5.212402343750000000e-01
-3.000000000000000000e+00,-5.000000000000000000e+00,-5.800000000000000000e+01,-2.300000000000000000e+01,-7.000000000000000000e+00,-1.700000000000000000e+01,-2.400000000000000000e+01,-3.000000000000000000e+00,-2.640991210937500000e-01,-7.525634765625000000e-02,8.079833984375000000e-01,5.212402343750000000e-01
1.000000000000000000e+00,2.000000000000000000e+00,4.100000000000000000e+01,6.000000000000000000e+00,6.000000000000000000e+00,5.000000000000000000e+00,4.000000000000000000e+00,0.000000000000000000e+00,-2.640991210937500000e-01,-7.525634765625000000e-02,8.079833984375000000e-01,5.212402343750000000e-01
-1.000000000000000000e+00,-2.000000000000000000e+00,-1.500000000000000000e+01,-4.000000000000000000e+00,0.000000000000000000e+00,-4.000000000000000000e+00,0.000000000000000000e+00,-1.000000000000000000e+00,-2.640991210937500000e-01,-7.525634765625000000e-02,8.079833984375000000e-01,5.212402343750000000e-01
-1.000000000000000000e+00,3.000000000000000000e+00,4.900000000000000000e+01,-4.000000000000000000e+00,0.000000000000000000e+00,-4.000000000000000000e+00,-6.000000000000000000e+00,-2.000000000000000000e+00,-2.640991210937500000e-01,-7.525634765625000000e-02,8.079833984375000000e-01,5.212402343750000000e-01
0.000000000000000000e+00,4.000000000000000000e+00,-4.000000000000000000e+00,-3.000000000000000000e+00,-8.000000000000000000e+00,-1.700000000000000000e+01,-1.200000000000000000e+01,-2.000000000000000000e+00,-2.641601562500000000e-01,-7.550048828125000000e-02,8.080444335937500000e-01,5.210571289062500000e-01
-8.000000000000000000e+00,-8.000000000000000000e+00,3.800000000000000000e+01,1.800000000000000000e+01,-5.000000000000000000e+00,0.000000000000000000e+00,8.000000000000000000e+00,-3.000000000000000000e+00,-2.641601562500000000e-01,-7.550048828125000000e-02,8.080444335937500000e-01,5.210571289062500000e-01
3.000000000000000000e+00,8.000000000000000000e+00,3.300000000000000000e+01,6.000000000000000000e+00,9.000000000000000000e+00,1.400000000000000000e+01,-6.000000000000000000e+00,-1.000000000000000000e+00,-2.641601562500000000e-01,-7.550048828125000000e-02,8.080444335937500000e-01,5.210571289062500000e-01
1.000000000000000000e+00,-1.000000000000000000e+00,-3.000000000000000000e+00,-2.000000000000000000e+00,-3.000000000000000000e+00,-3.000000000000000000e+00,-8.000000000000000000e+00,-3.000000000000000000e+00,-2.641601562500000000e-01,-7.550048828125000000e-02,8.080444335937500000e-01,5.210571289062500000e-01
0.000000000000000000e+00,1.000000000000000000e+00,4.500000000000000000e+01,1.000000000000000000e+01,-3.000000000000000000e+00,-1.000000000000000000e+00,-7.000000000000000000e+00,-3.000000000000000000e+00,-2.641601562500000000e-01,-7.556152343750000000e-02,8.080444335937500000e-01,5.211181640625000000e-01
0.000000000000000000e+00,1.000000000000000000e+00,-2.100000000000000000e+01,-2.000000000000000000e+00,-2.000000000000000000e+00,-6.000000000000000000e+00,-3.000000000000000000e+00,1.000000000000000000e+00,-2.641601562500000000e-01,-7.556152343750000000e-02,8.080444335937500000e-01,5.211181640625000000e-01
-1.000000000000000000e+00,-7.000000000000000000e+00,-1.200000000000000000e+01,-8.000000000000000000e+00,-1.000000000000000000e+00,-3.000000000000000000e+00,-3.000000000000000000e+00,0.000000000000000000e+00,-2.641601562500000000e-01,-7.556152343750000000e-02,8.080444335937500000e-01,5.211181640625000000e-01
-3.000000000000000000e+00,-1.000000000000000000e+00,1.800000000000000000e+01,1.400000000000000000e+01,0.000000000000000000e+00,-1.000000000000000000e+00,2.000000000000000000e+00,0.000000000000000000e+00,-2.641601562500000000e-01,-7.556152343750000000e-02,8.080444335937500000e-01,5.211181640625000000e-01
2.000000000000000000e+00,4.000000000000000000e+00,1.700000000000000000e+01,-1.100000000000000000e+01,-3.000000000000000000e+00,0.000000000000000000e+00,6.000000000000000000e+00,2.000000000000000000e+00,-2.640991210937500000e-01,-7.525634765625000000e-02,8.079833984375000000e-01,5.211791992187500000e-01
-9.000000000000000000e+00,4.000000000000000000e+00,7.900000000000000000e+01,6.700000000000000000e+01,-3.000000000000000000e+00,-1.000000000000000000e+01,-2.000000000000000000e+01,-1.000000000000000000e+01,-2.640991210937500000e-01,-7.525634765625000000e-02,8.079833984375000000e-01,5.211791992187500000e-01
-1.000000000000000000e+00,-3.000000000000000000e+00,2.300000000000000000e+01,4.000000000000000000e+00,2.000000000000000000e+00,7.000000000000000000e+00,1.000000000000000000e+00,-2.000000000000000000e+00,-2.640991210937500000e-01,-7.525634765625000000e-02,8.079833984375000000e-01,5.211791992187500000e-01
-3.000000000000000000e+00,-8.000000000000000000e+00,-6.600000000000000000e+01,-2.000000000000000000e+01,-2.000000000000000000e+00,0.000000000000000000e+00,-5.000000000000000000e+00,-3.000000000000000000e+00,-2.640991210937500000e-01,-7.525634765625000000e-02,8.079833984375000000e-01,5.211791992187500000e-01
-1.000000000000000000e+00,-7.000000000000000000e+00,-4.500000000000000000e+01,-1.100000000000000000e+01,-5.000000000000000000e+00,0.000000000000000000e+00,3.000000000000000000e+00,-1.000000000000000000e+00,-2.641601562500000000e-01,-7.519531250000000000e-02,8.081665039062500000e-01,5.209960937500000000e-01
3.000000000000000000e+00,2.000000000000000000e+00,-3.600000000000000000e+01,-1.700000000000000000e+01,2.000000000000000000e+00,-3.000000000000000000e+00,0.000000000000000000e+00,2.000000000000000000e+00,-2.641601562500000000e-01,-7.519531250000000000e-02,8.081665039062500000e-01,5.209960937500000000e-01
0.000000000000000000e+00,-1.000000000000000000e+00,-1.400000000000000000e+01,-2.000000000000000000e+01,-4.000000000000000000e+00,-7.000000000000000000e+00,-1.300000000000000000e+01,-1.000000000000000000e+00,-2.641601562500000000e-01,-7.519531250000000000e-02,8.081665039062500000e-01,5.209960937500000000e-01
-4.000000000000000000e+00,-3.000000000000000000e+00,5.900000000000000000e+01,1.600000000000000000e+01,-4.000000000000000000e+00,0.000000000000000000e+00,3.000000000000000000e+00,-2.000000000000000000e+00,-2.641601562500000000e-01,-7.519531250000000000e-02,8.081665039062500000e-01,5.209960937500000000e-01
1.000000000000000000e+00,-2.000000000000000000e+00,-3.800000000000000000e+01,-1.100000000000000000e+01,-2.000000000000000000e+00,2.000000000000000000e+00,5.000000000000000000e+00,2.000000000000000000e+00,-2.643432617187500000e-01,-7.556152343750000000e-02,8.082275390625000000e-01,5.206909179687500000e-01
2.000000000000000000e+00,9.000000000000000000e+00,2.000000000000000000e+01,-2.800000000000000000e+01,-5.000000000000000000e+00,-5.000000000000000000e+00,-2.600000000000000000e+01,-5.000000000000000000e+00,-2.643432617187500000e-01,-7.556152343750000000e-02,8.082275390625000000e-01,5.206909179687500000e-01
-4.000000000000000000e+00,-1.000000000000000000e+01,-3.400000000000000000e+01,0.000000000000000000e+00,2.000000000000000000e+00,-3.000000000000000000e+00,8.000000000000000000e+00,1.000000000000000000e+00,-2.643432617187500000e-01,-7.556152343750000000e-02,8.082275390625000000e-01,5.206909179687500000e-01
-2.000000000000000000e+00,-1.800000000000000000e+01,-7.900000000000000000e+01,-3.000000000000000000e+01,1.000000000000000000e+00,-3.000000000000000000e+00,-2.500000000000000000e+01,-1.000000000000000000e+00,-2.643432617187500000e-01,-7.556152343750000000e-02,8.082275390625000000e-01,5.206909179687500000e-01
-4.000000000000000000e+00,-4.000000000000000000e+00,2.100000000000000000e+01,3.100000000000000000e+01,-2.000000000000000000e+00,1.400000000000000000e+01,1.200000000000000000e+01,-4.000000000000000000e+00,-2.643432617187500000e-01,-7.556152343750000000e-02,8.082275390625000000e-01,5.207519531250000000e-01
5.000000000000000000e+00,2.000000000000000000e+00,-1.800000000000000000e+01,-3.000000000000000000e+01,-5.000000000000000000e+00,0.000000000000000000e+00,3.000000000000000000e+00,2.000000000000000000e+00,-2.643432617187500000e-01,-7.556152343750000000e-02,8.082275390625000000e-01,5.207519531250000000e-01
-1.000000000000000000e+00,1.000000000000000000e+00,-1.600000000000000000e+01,-4.000000000000000000e+00,-6.000000000000000000e+00,-4.000000000000000000e+00,-1.300000000000000000e+01,-1.000000000000000000e+00,-2.643432617187500000e-01,-7.556152343750000000e-02,8.082275390625000000e-01,5.207519531250000000e-01
0.000000000000000000e+00,6.000000000000000000e+00,2.300000000000000000e+01,1.000000000000000000e+01,2.000000000000000000e+00,-7.000000000000000000e+00,1.000000000000000000e+01,1.000000000000000000e+00,-2.643432617187500000e-01,-7.556152343750000000e-02,8.082275390625000000e-01,5.207519531250000000e-01
-2.000000000000000000e+00,-3.000000000000000000e+00,-1.100000000000000000e+01,-1.000000000000000000e+01,2.000000000000000000e+00,-6.000000000000000000e+00,-6.000000000000000000e+00,-2.000000000000000000e+00,-2.642822265625000000e-01,-7.556152343750000000e-02,8.081665039062500000e-01,5.208129882812500000e-01
-4.000000000000000000e+00,-1.000000000000000000e+01,-2.900000000000000000e+01,-4.000000000000000000e+00,-1.000000000000000000e+00,3.000000000000000000e+00,2.000000000000000000e+00,0.000000000000000000e+00,-2.642822265625000000e-01,-7.556152343750000000e-02,8.081665039062500000e-01,5.208129882812500000e-01
1.000000000000000000e+00,5.000000000000000000e+00,1.400000000000000000e+01,1.000000000000000000e+00,0.000000000000000000e+00,-4.000000000000000000e+00,-1.000000000000000000e+00,-3.000000000000000000e+00,-2.642822265625000000e-01,-7.556152343750000000e-02,8.081665039062500000e-01,5.208129882812500000e-01
0.000000000000000000e+00,-1.000000000000000000e+00,3.000000000000000000e+00,1.000000000000000000e+01,-4.000000000000000000e+00,-5.000000000000000000e+00,4.000000000000000000e+00,-1.000000000000000000e+00,-2.642822265625000000e-01,-7.556152343750000000e-02,8.081665039062500000e-01,5.208129882812500000e-01
2.000000000000000000e+00,2.000000000000000000e+00,-7.000000000000000000e+00,-1.900000000000000000e+01,-1.000000000000000000e+00,6.000000000000000000e+00,-4.000000000000000000e+00,0.000000000000000000e+00,-2.640380859375000000e-01,-7.470703125000000000e-02,8.081054687500000000e-01,5.211181640625000000e-01
-5.000000000000000000e+00,-3.000000000000000000e+00,-3.000000000000000000e+00,-9.000000000000000000e+00,-4.000000000000000000e+00,-2.000000000000000000e+00,-1.000000000000000000e+00,-5.000000000000000000e+00,-2.640380859375000000e-01,-7.470703125000000000e-02,8.081054687500000000e-01,5.211181640625000000e-01
-2.000000000000000000e+00,-8.000000000000000000e+00,2.000000000000000000e+00,3.200000000000000000e+01,0.000000000000000000e+00,-6.000000000000000000e+00,-9.000000000000000000e+00,-4.000000000000000000e+00,-2.640380859375000000e-01,-7.470703125000000000e-02,8.081054687500000000e-01,5.211181640625000000e-01
2.000000000000000000e+00,0.000000000000000000e+00,2.700000000000000000e+01,-3.800000000000000000e+01,-1.200000000000000000e+01,-3.000000000000000000e+00,2.000000000000000000e+00,0.000000000000000000e+00,-2.640380859375000000e-01,-7.470703125000000000e-02,8.081054687500000000e-01,5.211181640625000000e-01
1.000000000000000000e+00,3.000000000000000000e+00,8.600000000000000000e+01,3.000000000000000000e+01,-5.000000000000000000e+00,-1.400000000000000000e+01,-1.000000000000000000e+01,-1.000000000000000000e+00,-2.640991210937500000e-01,-7.452392578125000000e-02,8.083496093750000000e-01,5.208129882812500000e-01
5.000000000000000000e+00,-1.000000000000000000e+00,6.000000000000000000e+00,-6.000000000000000000e+00,5.000000000000000000e+00,9.000000000000000000e+00,1.800000000000000000e+01,5.000000000000000000e+00,-2.640991210937500000e-01,-7.452392578125000000e-02,8.083496093750000000e-01,5.208129882812500000e-01
4.000000000000000000e+00,5.000000000000000000e+00,-3.200000000000000000e+01,-1.500000000000000000e+01,3.000000000000000000e+00,-1.000000000000000000e+00,-1.000000000000000000e+00,4.000000000000000000e+00,-2.643432617187500000e-01,-7.482910156250000000e-02,8.083496093750000000e-01,5.205688476562500000e-01
-3.000000000000000000e+00,-2.000000000000000000e+00,-4.800000000000000000e+01,6.000000000000000000e+00,9.000000000000000000e+00,1.200000000000000000e+01,8.000000000000000000e+00,-1.000000000000000000e+00,-2.643432617187500000e-01,-7.482910156250000000e-02,8.083496093750000000e-01,5.205688476562500000e-01
-3.000000000000000000e+00,-1.000000000000000000e+01,-3.200000000000000000e+01,-1.400000000000000000e+01,-9.000000000000000000e+00,1.000000000000000000e+00,3.000000000000000000e+00,-1.000000000000000000e+00,-2.643432617187500000e-01,-7.482910156250000000e-02,8.083496093750000000e-01,5.205688476562500000e-01
0.000000000000000000e+00,5.000000000000000000e+00,2.300000000000000000e+01,5.000000000000000000e+00,-3.000000000000000000e+00,-3.000000000000000000e+00,1.000000000000000000e+00,-1.000000000000000000e+00,-2.643432617187500000e-01,-7.482910156250000000e-02,8.083496093750000000e-01,5.205688476562500000e-01
-2.000000000000000000e+00,1.000000000000000000e+00,-9.000000000000000000e+00,-5.000000000000000000e+00,-1.000000000000000000e+00,3.000000000000000000e+00,6.000000000000000000e+00,0.000000000000000000e+00,-2.645874023437500000e-01,-7.598876953125000000e-02,8.081665039062500000e-01,5.205688476562500000e-01
-1.000000000000000000e+00,2.000000000000000000e+00,3.000000000000000000e+00,2.000000000000000000e+00,-5.000000000000000000e+00,-9.000000000000000000e+00,-1.000000000000000000e+00,0.000000000000000000e+00,-2.645874023437500000e-01,-7.598876953125000000e-02,8.081665039062500000e-01,5.205688476562500000e-01
-3.000000000000000000e+00,0.000000000000000000e+00,1.000000000000000000e+00,-1.000000000000000000e+00,3.000000000000000000e+00,-3.000000000000000000e+00,1.900000000000000000e+01,0.000000000000000000e+00,-2.645874023437500000e-01,-7.598876953125000000e-02,8.081665039062500000e-01,5.205688476562500000e-01
-3.000000000000000000e+00,-3.000000000000000000e+00,6.800000000000000000e+01,4.400000000000000000e+01,1.000000000000000000e+01,7.000000000000000000e+00,-3.300000000000000000e+01,-7.000000000000000000e+00,-2.645874023437500000e-01,-7.598876953125000000e-02,8.081665039062500000e-01,5.205688476562500000e-01
3.000000000000000000e+00,8.000000000000000000e+00,2.700000000000000000e+01,1.000000000000000000e+00,-1.000000000000000000e+00,-1.000000000000000000e+00,-9.000000000000000000e+00,1.000000000000000000e+00,-2.642822265625000000e-01,-7.574462890625000000e-02,8.081054687500000000e-01,5.208740234375000000e-01
-5.000000000000000000e+00,-5.000000000000000000e+00,1.900000000000000000e+01,1.000000000000000000e+01,7.000000000000000000e+00,8.000000000000000000e+00,1.200000000000000000e+01,-1.000000000000000000e+00,-2.642822265625000000e-01,-7.574462890625000000e-02,8.081054687500000000e-01,5.208740234375000000e-01
2.000000000000000000e+00,-1.000000000000000000e+00,-1.800000000000000000e+01,1.100000000000000000e+01,-1.000000000000000000e+00,-7.000000000000000000e+00,-7.000000000000000000e+00,-1.000000000000000000e+00,-2.642822265625000000e-01,-7.574462890625000000e-02,8.081054687500000000e-01,5.208740234375000000e-01
2.000000000000000000e+00,-3.000000000000000000e+00,-5.200000000000000000e+01,-2.300000000000000000e+01,-6.000000000000000000e+00,-1.000000000000000000e+00,1.200000000000000000e+01,1.000000000000000000e+00,-2.642822265625000000e-01,-7.574462890625000000e-02,8.081054687500000000e-01,5.208740234375000000e-01
3.000000000000000000e+00,-2.000000000000000000e+00,-2.000000000000000000e+01,-8.000000000000000000e+00,0.000000000000000000e+00,-4.000000000000000000e+00,-2.000000000000000000e+00,1.000000000000000000e+00,-2.642211914062500000e-01,-7.531738281250000000e-02,8.080444335937500000e-01,5.211181640625000000e-01
-3.000000000000000000e+00,3.000000000000000000e+00,3.600000000000000000e+01,3.100000000000000000e+01,-1.000000000000000000e+00,-6.000000000000000000e+00,-6.000000000000000000e+00,-4.000000000000000000e+00,-2.642211914062500000e-01,-7.531738281250000000e-02,8.080444335937500000e-01,5.211181640625000000e-01
-4.000000000000000000e+00,-1.000000000000000000e+00,0.000000000000000000e+00,-1.000000000000000000e+00,1.000000000000000000e+00,2.000000000000000000e+00,-5.000000000000000000e+00,-2.000000000000000000e+00,-2.642211914062500000e-01,-7.531738281250000000e-02,8.080444335937500000e-01,5.211181640625000000e-01
-1.000000000000000000e+00,0.000000000000000000e+00,-1.500000000000000000e+01,-2.000000000000000000e+01,-1.000000000000000000e+01,-3.000000000000000000e+00,7.000000000000000000e+00,2.000000000000000000e+00,-2.642211914062500000e-01,-7.531738281250000000e-02,8.080444335937500000e-01,5.211181640625000000e-01
-2.000000000000000000e+00,-6.000000000000000000e+00,-2.300000000000000000e+01,-4.000000000000000000e+00,8.000000000000000000e+00,1.000000000000000000e+00,-6.000000000000000000e+00,-1.000000000000000000e+00,-2.642822265625000000e-01,-7.513427734375000000e-02,8.080444335937500000e-01,5.210571289062500000e-01
1.000000000000000000e+00,1.000000000000000000e+00,-2.800000000000000000e+01,-1.300000000000000000e+01,-7.000000000000000000e+00,-3.000000000000000000e+00,4.000000000000000000e+00,0.000000000000000000e+00,-2.642822265625000000e-01,-7.513427734375000000e-02,8.080444335937500000e-01,5.210571289062500000e-01
-1.000000000000000000e+00,-3.000000000000000000e+00,7.000000000000000000e+00,-1.600000000000000000e+01,-6.000000000000000000e+00,-5.000000000000000000e+00,-8.000000000000000000e+00,-1.000000000000000000e+00,-2.642822265625000000e-01,-7.513427734375000000e-02,8.080444335937500000e-01,5.210571289062500000e-01
1.000000000000000000e+00,3.000000000000000000e+00,4.000000000000000000e+00,-3.000000000000000000e+00,-4.000000000000000000e+00,-1.000000000000000000e+00,1.000000000000000000e+00,0.000000000000000000e+00,-2.642822265625000000e-01,-7.513427734375000000e-02,8.080444335937500000e-01,5.210571289062500000e-01
-4.000000000000000000e+00,-9.000000000000000000e+00,-8.700000000000000000e+01,-4.500000000000000000e+01,-7.000000000000000000e+00,-4.000000000000000000e+00,2.000000000000000000e+00,-4.000000000000000000e+00,-2.645874023437500000e-01,-7.543945312500000000e-02,8.082275390625000000e-01,5.206298828125000000e-01
-1.000000000000000000e+00,-9.000000000000000000e+00,1.000000000000000000e+01,-2.000000000000000000e+00,-5.000000000000000000e+00,-9.000000000000000000e+00,-7.000000000000000000e+00,-2.000000000000000000e+00,-2.645874023437500000e-01,-7.543945312500000000e-02,8.082275390625000000e-01,5.206298828125000000e-01
-6.000000000000000000e+00,3.000000000000000000e+00,3.200000000000000000e+01,3.100000000000000000e+01,-6.000000000000000000e+00,-1.300000000000000000e+01,-1.700000000000000000e+01,-6.000000000000000000e+00,-2.645874023437500000e-01,-7.543945312500000000e-02,8.082275390625000000e-01,5.206298828125000000e-01
-4.000000000000000000e+00,-5.000000000000000000e+00,0.000000000000000000e+00,0.000000000000000000e+00,-4.000000000000000000e+00,9.000000000000000000e+00,7.000000000000000000e+00,-1.000000000000000000e+00,-2.645874023437500000e-01,-7.543945312500000000e-02,8.082275390625000000e-01,5.206298828125000000e-01
-1.000000000000000000e+00,-1.000000000000000000e+00,0.000000000000000000e+00,-3.000000000000000000e+00,-3.000000000000000000e+00,-3.000000000000000000e+00,-9.000000000000000000e+00,-2.000000000000000000e+00,-2.648315429687500000e-01,-7.604980468750000000e-02,8.081665039062500000e-01,5.204467773437500000e-01
2.000000000000000000e+00,3.000000000000000000e+00,1.000000000000000000e+01,-9.000000000000000000e+00,-7.000000000000000000e+00,5.000000000000000000e+00,5.000000000000000000e+00,3.000000000000000000e+00,-2.648315429687500000e-01,-7.604980468750000000e-02,8.081665039062500000e-01,5.204467773437500000e-01
-2.000000000000000000e+00,2.000000000000000000e+00,1.700000000000000000e+01,2.100000000000000000e+01,6.000000000000000000e+00,5.000000000000000000e+00,-7.000000000000000000e+00,-3.000000000000000000e+00,-2.648315429687500000e-01,-7.604980468750000000e-02,8.081665039062500000e-01,5.204467773437500000e-01
-2.000000000000000000e+00,-8.000000000000000000e+00,-7.300000000000000000e+01,-2.600000000000000000e+01,5.000000000000000000e+00,-3.000000000000000000e+00,9.000000000000000000e+00,4.000000000000000000e+00,-2.648315429687500000e-01,-7.604980468750000000e-02,8.081665039062500000e-01,5.204467773437500000e-01
-3.000000000000000000e+00,-1.000000000000000000e+00,4.600000000000000000e+01,3.200000000000000000e+01,-9.000000000000000000e+00,-2.000000000000000000e+00,-9.000000000000000000e+00,-3.000000000000000000e+00,-2.645874023437500000e-01,-7.598876953125000000e-02,8.080444335937500000e-01,5.208129882812500000e-01
0.000000000000000000e+00,5.000000000000000000e+00,-6.000000000000000000e+00,0.000000000000000000e+00,-7.000000000000000000e+00,-5.000000000000000000e+00,-4.000000000000000000e+00,-2.000000000000000000e+00,-2.645874023437500000e-01,-7.598876953125000000e-02,8.080444335937500000e-01,5.208129882812500000e-01
1.000000000000000000e+00,1.000000000000000000e+00,1.100000000000000000e+01,1.000000000000000000e+00,1.700000000000000000e+01,9.000000000000000000e+00,2.000000000000000000e+00,2.000000000000000000e+00,-2.645874023437500000e-01,-7.598876953125000000e-02,8.080444335937500000e-01,5.208129882812500000e-01
0.000000000000000000e+00,5.000000000000000000e+00,-1.000000000000000000e+00,2.000000000000000000e+00,1.000000000000000000e+00,-8.000000000000000000e+00,7.000000000000000000e+00,1.000000000000000000e+00,-2.645874023437500000e-01,-7.598876953125000000e-02,8.080444335937500000e-01,5.208129882812500000e-01
1.000000000000000000e+00,3.000000000000000000e+00,1.000000000000000000e+00,-6.000000000000000000e+00,-4.000000000000000000e+00,3.000000000000000000e+00,-2.000000000000000000e+00,0.000000000000000000e+00,-2.642211914062500000e-01,-7.568359375000000000e-02,8.079833984375000000e-01,5.211181640625000000e-01
-1.000000000000000000e+00,-3.000000000000000000e+00,1.200000000000000000e+01,2.000000000000000000e+00,-2.000000000000000000e+00,7.000000000000000000e+00,1.600000000000000000e+01,1.000000000000000000e+00,-2.642211914062500000e-01,-7.568359375000000000e-02,8.079833984375000000e-01,5.211181640625000000e-01
-1.000000000000000000e+00,1.000000000000000000e+00,-1.500000000000000000e+01,-2.900000000000000000e+01,-1.000000000000000000e+01,-7.000000000000000000e+00,-1.000000000000000000e+01,-2.000000000000000000e+00,-2.642211914062500000e-01,-7.568359375000000000e-02,8.079833984375000000e-01,5.211181640625000000e-01
2.000000000000000000e+00,-6.000000000000000000e+00,-4.400000000000000000e+01,-7.000000000000000000e+00,1.000000000000000000e+01,5.000000000000000000e+00,8.000000000000000000e+00,2.000000000000000000e+00,-2.642211914062500000e-01,-7.568359375000000000e-02,8.079833984375000000e-01,5.211181640625000000e-01
0.000000000000000000e+00,-4.000000000000000000e+00,-4.500000000000000000e+01,-8.000000000000000000e+00,2.000000000000000000e+00,0.000000000000000000e+00,1.000000000000000000e+00,-1.000000000000000000e+00,-2.641601562500000000e-01,-7.562255859375000000e-02,8.079833984375000000e-01,5.211181640625000000e-01
1.000000000000000000e+00,-3.000000000000000000e+00,3.700000000000000000e+01,9.000000000000000000e+00,-1.000000000000000000e+00,-5.000000000000000000e+00,-3.000000000000000000e+00,-1.000000000000000000e+00,-2.641601562500000000e-01,-7.562255859375000000e-02,8.079833984375000000e-01,5.211181640625000000e-01
-2.000000000000000000e+00,-2.000000000000000000e+00,-3.900000000000000000e+01,-1.000000000000000000e+00,4.000000000000000000e+00,6.000000000000000000e+00,1.400000000000000000e+01,2.000000000000000000e+00,-2.641601562500000000e-01,-7.562255859375000000e-02,8.079833984375000000e-01,5.211181640625000000e-01
-1.000000000000000000e+00,-3.000000000000000000e+00,2.400000000000000000e+01,1.200000000000000000e+01,7.000000000000000000e+00,3.000000000000000000e+00,-5.000000000000000000e+00,0.000000000000000000e+00,-2.641601562500000000e-01,-7.562255859375000000e-02,8.079833984375000000e-01,5.211181640625000000e-01
-3.000000000000000000e+00,1.000000000000000000e+00,5.400000000000000000e+01,1.000000000000000000e+00,-7.000000000000000000e+00,-5.000000000000000000e+00,8.000000000000000000e+00,-1.000000000000000000e+00,-2.641601562500000000e-01,-7.635498046875000000e-02,8.081054687500000000e-01,5.208740234375000000e-01
0.000000000000000000e+00,-5.000000000000000000e+00,-1.800000000000000000e+01,1.500000000000000000e+01,7.000000000000000000e+00,5.000000000000000000e+00,-7.000000000000000000e+00,-3.000000000000000000e+00,-2.641601562500000000e-01,-7.635498046875000000e-02,8.081054687500000000e-01,5.208740234375000000e-01
-2.000000000000000000e+00,-1.000000000000000000e+00,-1.600000000000000000e+01,-1.800000000000000000e+01,-2.000000000000000000e+00,0.000000000000000000e+00,4.000000000000000000e+00,-1.000000000000000000e+00,-2.641601562500000000e-01,-7.635498046875000000e-02,8.081054687500000000e-01,5.208740234375000000e-01
-2.000000000000000000e+00,-5.000000000000000000e+00,-3.400000000000000000e+01,-1.000000000000000000e+00,-7.000000000000000000e+00,-7.000000000000000000e+00,-1.400000000000000000e+01,-4.000000000000000000e+00,-2.641601562500000000e-01,-7.635498046875000000e-02,8.081054687500000000e-01,5.208740234375000000e-01
0.000000000000000000e+00,3.000000000000000000e+00,2.300000000000000000e+01,9.000000000000000000e+00,4.000000000000000000e+00,-9.000000000000000000e+00,-1.000000000000000000e+01,0.000000000000000000e+00,-2.642822265625000000e-01,-7.696533203125000000e-02,8.080444335937500000e-01,5.208129882812500000e-01
0.000000000000000000e+00,5.000000000000000000e+00,1.200000000000000000e+01,-2.000000000000000000e+00,2.000000000000000000e+00,1.400000000000000000e+01,2.400000000000000000e+01,2.000000000000000000e+00,-2.642822265625000000e-01,-7.696533203125000000e-02,8.080444335937500000e-01,5.208129882812500000e-01
-5.000000000000000000e+00,-1.000000000000000000e+01,-8.500000000000000000e+01,-3.100000000000000000e+01,-6.000000000000000000e+00,5.000000000000000000e+00,4.000000000000000000e+00,-4.000000000000000000e+00,-2.642822265625000000e-01,-7.696533203125000000e-02,8.080444335937500000e-01,5.208129882812500000e-01
0.000000000000000000e+00,5.000000000000000000e+00,7.400000000000000000e+01,1.900000000000000000e+01,1.000000000000000000e+00,-1.000000000000000000e+00,-6.000000000000000000e+00,0.000000000000000000e+00,-2.642822265625000000e-01,-7.696533203125000000e-02,8.080444335937500000e-01,5.208129882812500000e-01
-3.000000000000000000e+00,-1.000000000000000000e+01,-6.700000000000000000e+01,-2.100000000000000000e+01,-1.000000000000000000e+00,4.000000000000000000e+00,1.500000000000000000e+01,0.000000000000000000e+00,-2.642211914062500000e-01,-7.696533203125000000e-02,8.080444335937500000e-01,5.208129882812500000e-01
0.000000000000000000e+00,-2.000000000000000000e+00,-6.200000000000000000e+01,-1.100000000000000000e+01,1.000000000000000000e+00,-2.200000000000000000e+01,-3.100000000000000000e+01,-1.000000000000000000e+00,-2.642211914062500000e-01,-7.696533203125000000e-02,8.080444335937500000e-01,5.208129882812500000e-01
1.000000000000000000e+00,9.000000000000000000e+00,1.050000000000000000e+02,1.200000000000000000e+01,-9.000000000000000000e+00,7.000000000000000000e+00,1.900000000000000000e+01,1.000000000000000000e+00,-2.642211914062500000e-01,-7.696533203125000000e-02,8.080444335937500000e-01,5.208129882812500000e-01
-3.000000000000000000e+00,-8.000000000000000000e+00,-2.500000000000000000e+01,1.000000000000000000e+00,-4.000000000000000000e+00,0.000000000000000000e+00,1.000000000000000000e+00,-1.000000000000000000e+00,-2.642211914062500000e-01,-7.696533203125000000e-02,8.080444335937500000e-01,5.208129882812500000e-01
-2.000000000000000000e+00,6.000000000000000000e+00,8.000000000000000000e+01,1.200000000000000000e+01,-1.000000000000000000e+01,-6.000000000000000000e+00,-6.000000000000000000e+00,-5.000000000000000000e+00,-2.640991210937500000e-01,-7.666015625000000000e-02,8.081665039062500000e-01,5.208129882812500000e-01
-2.000000000000000000e+00,-1.100000000000000000e+01,-4.500000000000000000e+01,-4.100000000000000000e+01,-5.000000000000000000e+00,-2.000000000000000000e+00,-1.100000000000000000e+01,-2.000000000000000000e+00,-2.640991210937500000e-01,-7.666015625000000000e-02,8.081665039062500000e-01,5.208129882812500000e-01
-3.000000000000000000e+00,-1.000000000000000000e+00,6.100000000000000000e+01,2.700000000000000000e+01,3.000000000000000000e+00,-1.200000000000000000e+01,7.000000000000000000e+00,-1.000000000000000000e+00,-2.640991210937500000e-01,-7.666015625000000000e-02,8.081665039062500000e-01,5.208129882812500000e-01
0.000000000000000000e+00,2.000000000000000000e+00,-8.000000000000000000e+00,6.000000000000000000e+00,4.000000000000000000e+00,5.000000000000000000e+00,-8.000000000000000000e+00,-2.000000000000000000e+00,-2.640991210937500000e-01,-7.666015625000000000e-02,8.081665039062500000e-01,5.208129882812500000e-01
0.000000000000000000e+00,1.000000000000000000e+00,2.600000000000000000e+01,-6.000000000000000000e+00,-8.000000000000000000e+00,-5.000000000000000000e+00,-2.000000000000000000e+00,-1.000000000000000000e+00,-2.640991210937500000e-01,-7.696533203125000000e-02,8.081665039062500000e-01,5.206909179687500000e-01
0.000000000000000000e+00,4.000000000000000000e+00,4.400000000000000000e+01,5.000000000000000000e+00,1.000000000000000000e+00,-1.000000000000000000e+00,-2.000000000000000000e+00,-1.000000000000000000e+00,-2.640991210937500000e-01,-7.696533203125000000e-02,8.081665039062500000e-01,5.206909179687500000e-01
-5.000000000000000000e+00,-1.700000000000000000e+01,-8.800000000000000000e+01,-1.800000000000000000e+01,-5.000000000000000000e+00,-3.000000000000000000e+00,-2.000000000000000000e+00,-2.000000000000000000e+00,-2.640991210937500000e-01,-7.696533203125000000e-02,8.081665039062500000e-01,5.206909179687500000e-01
1.000000000000000000e+00,-1.000000000000000000e+00,2.100000000000000000e+01,1.100000000000000000e+01,3.000000000000000000e+00,1.000000000000000000e+00,9.000000000000000000e+00,1.000000000000000000e+00,-2.640991210937500000e-01,-7.696533203125000000e-02,8.081665039062500000e-01,5.206909179687500000e-01
1.000000000000000000e+00,2.000000000000000000e+00,3.000000000000000000e+00,1.000000000000000000e+00,4.000000000000000000e+00,0.000000000000000000e+00,-4.000000000000000000e+00,2.000000000000000000e+00,-2.640991210937500000e-01,-7.757568359375000000e-02,8.081665039062500000e-01,5.206298828125000000e-01
0.000000000000000000e+00,3.000000000000000000e+00,2.000000000000000000e+01,2.000000000000000000e+00,-2.000000000000000000e+00,-3.000000000000000000e+00,-5.000000000000000000e+00,-1.000000000000000000e+00,-2.640991210937500000e-01,-7.757568359375000000e-02,8.081665039062500000e-01,5.206298828125000000e-01
0.000000000000000000e+00,-5.000000000000000000e+00,-2.700000000000000000e+01,-7.000000000000000000e+00,-1.000000000000000000e+00,0.000000000000000000e+00,-4.000000000000000000e+00,-1.000000000000000000e+00,-2.640991210937500000e-01,-7.757568359375000000e-02,8.081665039062500000e-01,5.206298828125000000e-01
1.000000000000000000e+00,1.000000000000000000e+00,2.200000000000000000e+01,1.000000000000000000e+00,-6.000000000000000000e+00,-4.000000000000000000e+00,-1.000000000000000000e+00,1.000000000000000000e+00,-2.640991210937500000e-01,-7.757568359375000000e-02,8.081665039062500000e-01,5.206298828125000000e-01
-1.000000000000000000e+00,-1.000000000000000000e+00,-6.500000000000000000e+01,-1.500000000000000000e+01,4.000000000000000000e+00,6.000000000000000000e+00,1.200000000000000000e+01,0.000000000000000000e+00,-2.640991210937500000e-01,-7.757568359375000000e-02,8.081665039062500000e-01,5.206298828125000000e-01
-5.000000000000000000e+00,-1.000000000000000000e+00,8.700000000000000000e+01,3.600000000000000000e+01,1.000000000000000000e+00,3.000000000000000000e+00,1.400000000000000000e+01,-3.000000000000000000e+00,-2.640991210937500000e-01,-7.757568359375000000e-02,8.081665039062500000e-01,5.206298828125000000e-01
3.000000000000000000e+00,4.000000000000000000e+00,2.300000000000000000e+01,2.000000000000000000e+00,3.000000000000000000e+00,1.000000000000000000e+00,-8.000000000000000000e+00,1.000000000000000000e+00,-2.640991210937500000e-01,-7.757568359375000000e-02,8.081665039062500000e-01,5.206298828125000000e-01
0.000000000000000000e+00,-4.000000000000000000e+00,-3.100000000000000000e+01,-1.400000000000000000e+01,0.000000000000000000e+00,-1.000000000000000000e+00,-3.000000000000000000e+00,-3.000000000000000000e+00,-2.640991210937500000e-01,-7.757568359375000000e-02,8.081665039062500000e-01,5.206298828125000000e-01
-1.000000000000000000e+00,-1.000000000000000000e+00,1.000000000000000000e+01,-1.300000000000000000e+01,2.000000000000000000e+00,1.000000000000000000e+00,0.000000000000000000e+00,2.000000000000000000e+00,-2.640991210937500000e-01,-7.757568359375000000e-02,8.081665039062500000e-01,5.206298828125000000e-01
0.000000000000000000e+00,0.000000000000000000e+00,-2.200000000000000000e+01,4.000000000000000000e+00,3.000000000000000000e+00,5.000000000000000000e+00,6.000000000000000000e+00,0.000000000000000000e+00,-2.640991210937500000e-01,-7.757568359375000000e-02,8.081665039062500000e-01,5.206298828125000000e-01
-3.000000000000000000e+00,6.000000000000000000e+00,9.200000000000000000e+01,1.700000000000000000e+01,-4.000000000000000000e+00,-1.900000000000000000e+01,-2.100000000000000000e+01,-6.000000000000000000e+00,-2.640991210937500000e-01,-7.757568359375000000e-02,8.081665039062500000e-01,5.206298828125000000e-01
-4.000000000000000000e+00,-1.000000000000000000e+01,-7.300000000000000000e+01,-6.000000000000000000e+00,2.000000000000000000e+00,5.000000000000000000e+00,1.000000000000000000e+01,-2.000000000000000000e+00,-2.640991210937500000e-01,-7.757568359375000000e-02,8.081665039062500000e-01,5.206298828125000000e-01
-2.000000000000000000e+00,-3.000000000000000000e+00,4.600000000000000000e+01,-1.000000000000000000e+00,-6.000000000000000000e+00,-5.000000000000000000e+00,-1.000000000000000000e+00,-3.000000000000000000e+00,-2.638549804687500000e-01,-7.763671875000000000e-02,8.081665039062500000e-01,5.207519531250000000e-01
-4.000000000000000000e+00,-5.000000000000000000e+00,-2.400000000000000000e+01,-1.000000000000000000e+01,-5.000000000000000000e+00,-6.000000000000000000e+00,-4.000000000000000000e+00,-4.000000000000000000e+00,-2.638549804687500000e-01,-7.763671875000000000e-02,8.081665039062500000e-01,5.207519531250000000e-01
3.000000000000000000e+00,0.000000000000000000e+00,-2.700000000000000000e+01,-1.100000000000000000e+01,-1.000000000000000000e+00,0.000000000000000000e+00,-8.000000000000000000e+00,0.000000000000000000e+00,-2.638549804687500000e-01,-7.763671875000000000e-02,8.081665039062500000e-01,5.207519531250000000e-01
1.000000000000000000e+00,9.000000000000000000e+00,2.100000000000000000e+01,-2.000000000000000000e+00,0.000000000000000000e+00,-5.000000000000000000e+00,-3.000000000000000000e+00,-1.000000000000000000e+00,-2.638549804687500000e-01,-7.763671875000000000e-02,8.081665039062500000e-01,5.207519531250000000e-01
-3.000000000000000000e+00,-1.000000000000000000e+00,3.400000000000000000e+01,1.200000000000000000e+01,-7.000000000000000000e+00,-6.000000000000000000e+00,-5.000000000000000000e+00,-5.000000000000000000e+00,-2.636718750000000000e-01,-7.806396484375000000e-02,8.081665039062500000e-01,5.207519531250000000e-01
-2.000000000000000000e+00,1.000000000000000000e+00,2.400000000000000000e+01,8.000000000000000000e+00,3.000000000000000000e+00,-9.000000000000000000e+00,0.000000000000000000e+00,-2.000000000000000000e+00,-2.636718750000000000e-01,-7.806396484375000000e-02,8.081665039062500000e-01,5.207519531250000000e-01
-2.000000000000000000e+00,-1.100000000000000000e+01,-3.500000000000000000e+01,-1.700000000000000000e+01,-6.000000000000000000e+00,2.200000000000000000e+01,2.300000000000000000e+01,2.000000000000000000e+00,-2.636718750000000000e-01,-7.806396484375000000e-02,8.081665039062500000e-01,5.207519531250000000e-01
-3.000000000000000000e+00,0.000000000000000000e+00,1.900000000000000000e+01,0.000000000000000000e+00,0.000000000000000000e+00,-2.000000000000000000e+00,1.100000000000000000e+01,0.000000000000000000e+00,-2.636718750000000000e-01,-7.806396484375000000e-02,8.081665039062500000e-01,5.207519531250000000e-01
0.000000000000000000e+00,-1.000000000000000000e+00,0.000000000000000000e+00,1.000000000000000000e+01,1.000000000000000000e+01,9.000000000000000000e+00,-6.000000000000000000e+00,2.000000000000000000e+00,-2.633666992187500000e-01,-7.867431640625000000e-02,8.082885742187500000e-01,5.206298828125000000e-01
2.000000000000000000e+00,2.000000000000000000e+00,-2.300000000000000000e+01,-5.000000000000000000e+00,1.000000000000000000e+00,-2.000000000000000000e+00,-3.000000000000000000e+00,0.000000000000000000e+00,-2.633666992187500000e-01,-7.867431640625000000e-02,8.082885742187500000e-01,5.206298828125000000e-01
0.000000000000000000e+00,5.000000000000000000e+00,0.000000000000000000e+00,-7.000000000000000000e+00,0.000000000000000000e+00,-5.000000000000000000e+00,-5.000000000000000000e+00,1.000000000000000000e+00,-2.633666992187500000e-01,-7.867431640625000000e-02,8.082885742187500000e-01,5.206298828125000000e-01
-3.000000000000000000e+00,1.000000000000000000e+00,3.300000000000000000e+01,-1.000000000000000000e+00,-8.000000000000000000e+00,-7.000000000000000000e+00,-6.000000000000000000e+00,-2.000000000000000000e+00,-2.633666992187500000e-01,-7.867431640625000000e-02,8.082885742187500000e-01,5.206298828125000000e-01
-3.000000000000000000e+00,-6.000000000000000000e+00,-3.700000000000000000e+01,2.000000000000000000e+00,-4.000000000000000000e+00,7.000000000000000000e+00,4.000000000000000000e+00,-4.000000000000000000e+00,-2.631835937500000000e-01,-7.916259765625000000e-02,8.082885742187500000e-01,5.206298828125000000e-01
0.000000000000000000e+00,-2.000000000000000000e+00,-4.000000000000000000e+00,-8.000000000000000000e+00,1.000000000000000000e+00,1.000000000000000000e+00,-6.000000000000000000e+00,-1.000000000000000000e+00,-2.631835937500000000e-01,-7.916259765625000000e-02,8.082885742187500000e-01,5.206298828125000000e-01
1.000000000000000000e+00,-1.000000000000000000e+00,1.800000000000000000e+01,6.000000000000000000e+00,1.000000000000000000e+00,-3.000000000000000000e+00,-8.000000000000000000e+00,-1.000000000000000000e+00,-2.631835937500000000e-01,-7.916259765625000000e-02,8.082885742187500000e-01,5.206298828125000000e-01
-1.000000000000000000e+00,1.000000000000000000e+00,-1.000000000000000000e+00,5.000000000000000000e+00,-2.000000000000000000e+00,-6.000000000000000000e+00,-8.000000000000000000e+00,0.000000000000000000e+00,-2.631835937500000000e-01,-7.916259765625000000e-02,8.082885742187500000e-01,5.206298828125000000e-01
0.000000000000000000e+00,-1.000000000000000000e+00,2.600000000000000000e+01,3.000000000000000000e+00,2.000000000000000000e+00,-4.000000000000000000e+00,-3.000000000000000000e+00,0.000000000000000000e+00,-2.631225585937500000e-01,-7.922363281250000000e-02,8.082885742187500000e-01,5.206909179687500000e-01
-1.000000000000000000e+00,-7.000000000000000000e+00,-2.600000000000000000e+01,-7.000000000000000000e+00,-2.000000000000000000e+00,4.000000000000000000e+00,-3.000000000000000000e+00,1.000000000000000000e+00,-2.631225585937500000e-01,-7.922363281250000000e-02,8.082885742187500000e-01,5.206909179687500000e-01
2.000000000000000000e+00,3.000000000000000000e+00,2.600000000000000000e+01,-7.000000000000000000e+00,0.000000000000000000e+00,0.000000000000000000e+00,-1.000000000000000000e+00,1.000000000000000000e+00,-2.631225585937500000e-01,-7.922363281250000000e-02,8.082885742187500000e-01,5.206909179687500000e-01
-7.000000000000000000e+00,-2.000000000000000000e+00,3.500000000000000000e+01,1.600000000000000000e+01,5.000000000000000000e+00,-2.000000000000000000e+00,-7.000000000000000000e+00,-7.000000000000000000e+00,-2.631225585937500000e-01,-7.922363281250000000e-02,8.082885742187500000e-01,5.206909179687500000e-01
2.000000000000000000e+00,6.000000000000000000e+00,3.400000000000000000e+01,8.000000000000000000e+00,2.000000000000000000e+00,3.000000000000000000e+00,3.000000000000000000e+00,-1.000000000000000000e+00,-2.628784179687500000e-01,-7.891845703125000000e-02,8.084106445312500000e-01,5.206298828125000000e-01
0.000000000000000000e+00,2.000000000000000000e+00,-5.000000000000000000e+00,-3.000000000000000000e+00,1.000000000000000000e+00,2.000000000000000000e+00,-2.000000000000000000e+00,-1.000000000000000000e+00,-2.628784179687500000e-01,-7.891845703125000000e-02,8.084106445312500000e-01,5.206298828125000000e-01
-2.000000000000000000e+00,-4.000000000000000000e+00,-4.500000000000000000e+01,0.000000000000000000e+00,-3.000000000000000000e+00,-2.000000000000000000e+00,3.000000000000000000e+00,-1.000000000000000000e+00,-2.628784179687500000e-01,-7.891845703125000000e-02,8.084106445312500000e-01,5.206298828125000000e-01
-2.000000000000000000e+00,-4.000000000000000000e+00,-2.000000000000000000e+00,-1.100000000000000000e+01,0.000000000000000000e+00,2.000000000000000000e+00,-5.000000000000000000e+00,-1.000000000000000000e+00,-2.628784179687500000e-01,-7.891845703125000000e-02,8.084106445312500000e-01,5.206298828125000000e-01
-2.000000000000000000e+00,-3.000000000000000000e+00,-3.200000000000000000e+01,-7.000000000000000000e+00,-8.000000000000000000e+00,-1.100000000000000000e+01,-8.000000000000000000e+00,-2.000000000000000000e+00,-2.630004882812500000e-01,-7.879638671875000000e-02,8.085937500000000000e-01,5.203247070312500000e-01
0.000000000000000000e+00,-2.000000000000000000e+00,9.000000000000000000e+00,-2.000000000000000000e+00,-7.000000000000000000e+00,7.000000000000000000e+00,3.000000000000000000e+00,-3.000000000000000000e+00,-2.630004882812500000e-01,-7.879638671875000000e-02,8.085937500000000000e-01,5.203247070312500000e-01
-1.000000000000000000e+00,1.100000000000000000e+01,-2.700000000000000000e+01,2.200000000000000000e+01,6.000000000000000000e+00,-7.000000000000000000e+00,-3.000000000000000000e+00,-3.000000000000000000e+00,-2.630004882812500000e-01,-7.879638671875000000e-02,8.085937500000000000e-01,5.203247070312500000e-01
-2.000000000000000000e+00,-3.000000000000000000e+00,-6.000000000000000000e+00,7.000000000000000000e+00,5.000000000000000000e+00,-6.000000000000000000e+00,-1.100000000000000000e+01,-3.000000000000000000e+00,-2.630004882812500000e-01,-7.879638671875000000e-02,8.085937500000000000e-01,5.203247070312500000e-01
-2.000000000000000000e+00,-2.000000000000000000e+00,4.000000000000000000e+00,-4.000000000000000000e+00,0.000000000000000000e+00,9.000000000000000000e+00,1.200000000000000000e+01,-1.000000000000000000e+00,-2.630615234375000000e-01,-7.916259765625000000e-02,8.087768554687500000e-01,5.200195312500000000e-01
3.000000000000000000e+00,7.000000000000000000e+00,1.400000000000000000e+01,-3.000000000000000000e+01,-9.000000000000000000e+00,-1.000000000000000000e+01,0.000000000000000000e+00,1.000000000000000000e+00,-2.630615234375000000e-01,-7.916259765625000000e-02,8.087768554687500000e-01,5.200195312500000000e-01
-3.000000000000000000e+00,-5.000000000000000000e+00,-7.000000000000000000e+00,4.000000000000000000e+00,-5.000000000000000000e+00,-3.000000000000000000e+00,-3.400000000000000000e+01,-6.000000000000000000e+00,-2.630615234375000000e-01,-7.916259765625000000e-02,8.087768554687500000e-01,5.200195312500000000e-01
-1.000000000000000000e+00,-8.000000000000000000e+00,-9.600000000000000000e+01,-6.000000000000000000e+00,-4.000000000000000000e+00,3.000000000000000000e+00,5.000000000000000000e+00,1.000000000000000000e+00,-2.630615234375000000e-01,-7.916259765625000000e-02,8.087768554687500000e-01,5.200195312500000000e-01
2.000000000000000000e+00,5.000000000000000000e+00,1.300000000000000000e+01,-1.300000000000000000e+01,4.000000000000000000e+00,-5.000000000000000000e+00,-3.000000000000000000e+00,1.000000000000000000e+00,-2.629394531250000000e-01,-7.922363281250000000e-02,8.089599609375000000e-01,5.197143554687500000e-01
-4.000000000000000000e+00,2.000000000000000000e+00,1.400000000000000000e+01,1.300000000000000000e+01,1.000000000000000000e+00,2.000000000000000000e+00,1.000000000000000000e+00,-3.000000000000000000e+00,-2.629394531250000000e-01,-7.922363281250000000e-02,8.089599609375000000e-01,5.197143554687500000e-01
1.000000000000000000e+00,-4.000000000000000000e+00,1.300000000000000000e+01,-4.000000000000000000e+00,-8.000000000000000000e+00,-5.000000000000000000e+00,7.000000000000000000e+00,0.000000000000000000e+00,-2.629394531250000000e-01,-7.922363281250000000e-02,8.089599609375000000e-01,5.197143554687500000e-01
6.000000000000000000e+00,1.400000000000000000e+01,6.900000000000000000e+01,7.000000000000000000e+00,6.000000000000000000e+00,2.000000000000000000e+00,-6.000000000000000000e+00,2.000000000000000000e+00,-2.629394531250000000e-01,-7.922363281250000000e-02,8.089599609375000000e-01,5.197143554687500000e-01
-4.000000000000000000e+00,-5.000000000000000000e+00,-7.000000000000000000e+00,3.000000000000000000e+00,-3.000000000000000000e+00,-7.000000000000000000e+00,-1.000000000000000000e+00,-1.000000000000000000e+00,-2.626953125000000000e-01,-7.916259765625000000e-02,8.091430664062500000e-01,5.195922851562500000e-01
-1.000000000000000000e+00,3.000000000000000000e+00,0.000000000000000000e+00,1.100000000000000000e+01,3.000000000000000000e+00,2.000000000000000000e+00,5.000000000000000000e+00,2.000000000000000000e+00,-2.626953125000000000e-01,-7.916259765625000000e-02,8.091430664062500000e-01,5.195922851562500000e-01
-1.000000000000000000e+00,1.000000000000000000e+00,-2.200000000000000000e+01,-1.200000000000000000e+01,0.000000000000000000e+00,0.000000000000000000e+00,1.000000000000000000e+00,-2.000000000000000000e+00,-2.626953125000000000e-01,-7.916259765625000000e-02,8.091430664062500000e-01,5.195922851562500000e-01
-2.000000000000000000e+00,-8.000000000000000000e+00,2.100000000000000000e+01,-6.000000000000000000e+00,-1.000000000000000000e+01,-6.000000000000000000e+00,-3.000000000000000000e+00,-4.000000000000000000e+00,-2.626953125000000000e-01,-7.916259765625000000e-02,8.091430664062500000e-01,5.195922851562500000e-01
3.000000000000000000e+00,4.000000000000000000e+00,6.000000000000000000e+00,-3.000000000000000000e+00,0.000000000000000000e+00,1.000000000000000000e+00,5.000000000000000000e+00,-1.000000000000000000e+00,-2.626953125000000000e-01,-7.916259765625000000e-02,8.091430664062500000e-01,5.195922851562500000e-01
-2.000000000000000000e+00,-3.000000000000000000e+00,-8.000000000000000000e+00,-1.400000000000000000e+01,1.000000000000000000e+00,3.000000000000000000e+00,-1.000000000000000000e+00,0.000000000000000000e+00,-2.626953125000000000e-01,-7.916259765625000000e-02,8.091430664062500000e-01,5.195922851562500000e-01
0.000000000000000000e+00,6.000000000000000000e+00,6.900000000000000000e+01,2.800000000000000000e+01,4.000000000000000000e+00,0.000000000000000000e+00,4.000000000000000000e+00,1.000000000000000000e+00,-2.626953125000000000e-01,-7.916259765625000000e-02,8.091430664062500000e-01,5.195922851562500000e-01
0.000000000000000000e+00,-3.000000000000000000e+00,1.400000000000000000e+01,-1.000000000000000000e+00,-2.000000000000000000e+00,-3.000000000000000000e+00,-2.000000000000000000e+00,1.000000000000000000e+00,-2.626953125000000000e-01,-7.916259765625000000e-02,8.091430664062500000e-01,5.195922851562500000e-01
-3.000000000000000000e+00,-7.000000000000000000e+00,-3.800000000000000000e+01,-8.000000000000000000e+00,-3.000000000000000000e+00,3.000000000000000000e+00,3.000000000000000000e+00,-2.000000000000000000e+00,-2.624511718750000000e-01,-7.885742187500000000e-02,8.092651367187500000e-01,5.195312500000000000e-01
-2.000000000000000000e+00,-4.000000000000000000e+00,-3.700000000000000000e+01,-1.000000000000000000e+00,-3.000000000000000000e+00,-4.000000000000000000e+00,-4.000000000000000000e+00,-3.000000000000000000e+00,-2.624511718750000000e-01,-7.885742187500000000e-02,8.092651367187500000e-01,5.195312500000000000e-01
-2.000000000000000000e+00,1.000000000000000000e+00,4.000000000000000000e+01,-1.000000000000000000e+00,0.000000000000000000e+00,1.000000000000000000e+00,-9.000000000000000000e+00,-1.000000000000000000e+00,-2.624511718750000000e-01,-7.885742187500000000e-02,8.092651367187500000e-01,5.195312500000000000e-01
-5.000000000000000000e+00,-2.000000000000000000e+00,1.500000000000000000e+01,-8.000000000000000000e+00,-5.000000000000000000e+00,2.000000000000000000e+00,1.300000000000000000e+01,-3.000000000000000000e+00,-2.624511718750000000e-01,-7.885742187500000000e-02,8.092651367187500000e-01,5.195312500000000000e-01
-1.000000000000000000e+00,-4.000000000000000000e+00,1.400000000000000000e+01,3.200000000000000000e+01,7.000000000000000000e+00,-2.000000000000000000e+00,-1.000000000000000000e+00,1.000000000000000000e+00,-2.623901367187500000e-01,-7.897949218750000000e-02,8.095092773437500000e-01,5.192260742187500000e-01
1.000000000000000000e+00,-6.000000000000000000e+00,-7.000000000000000000e+00,8.000000000000000000e+00,8.000000000000000000e+00,6.000000000000000000e+00,-1.500000000000000000e+01,-1.000000000000000000e+00,-2.623901367187500000e-01,-7.897949218750000000e-02,8.095092773437500000e-01,5.192260742187500000e-01
-2.000000000000000000e+00,-7.000000000000000000e+00,-5.600000000000000000e+01,-1.600000000000000000e+01,0.000000000000000000e+00,-4.000000000000000000e+00,5.000000000000000000e+00,0.000000000000000000e+00,-2.623901367187500000e-01,-7.897949218750000000e-02,8.095092773437500000e-01,5.192260742187500000e-01
-1.000000000000000000e+00,6.000000000000000000e+00,7.600000000000000000e+01,8.000000000000000000e+00,-1.100000000000000000e+01,-1.000000000000000000e+01,-1.000000000000000000e+01,-2.000000000000000000e+00,-2.623901367187500000e-01,-7.897949218750000000e-02,8.095092773437500000e-01,5.192260742187500000e-01
-1.000000000000000000e+00,-7.000000000000000000e+00,-5.300000000000000000e+01,-1.900000000000000000e+01,-5.000000000000000000e+00,6.000000000000000000e+00,8.000000000000000000e+00,0.000000000000000000e+00,-2.624511718750000000e-01,-7.940673828125000000e-02,8.096313476562500000e-01,5.188598632812500000e-01
0.000000000000000000e+00,1.000000000000000000e+00,1.000000000000000000e+00,-1.000000000000000000e+00,-5.000000000000000000e+00,-5.000000000000000000e+00,7.000000000000000000e+00,1.000000000000000000e+00,-2.624511718750000000e-01,-7.940673828125000000e-02,8.096313476562500000e-01,5.188598632812500000e-01
-1.000000000000000000e+00,0.000000000000000000e+00,6.000000000000000000e+00,2.000000000000000000e+00,1.000000000000000000e+00,-2.000000000000000000e+00,-2.000000000000000000e+00,0.000000000000000000e+00,-2.624511718750000000e-01,-7.940673828125000000e-02,8.096313476562500000e-01,5.188598632812500000e-01
1.000000000000000000e+00,-5.000000000000000000e+00,-1.100000000000000000e+02,-3.200000000000000000e+01,1.000000000000000000e+00,4.000000000000000000e+00,-2.400000000000000000e+01,2.000000000000000000e+00,-2.624511718750000000e-01,-7.940673828125000000e-02,8.096313476562500000e-01,5.188598632812500000e-01
-2.000000000000000000e+00,3.000000000000000000e+00,7.000000000000000000e+01,1.000000000000000000e+01,1.000000000000000000e+00,-1.000000000000000000e+00,-7.000000000000000000e+00,-1.000000000000000000e+00,-2.624511718750000000e-01,-7.983398437500000000e-02,8.096923828125000000e-01,5.187377929687500000e-01
-2.000000000000000000e+00,-5.000000000000000000e+00,-1.400000000000000000e+01,-2.700000000000000000e+01,-2.000000000000000000e+00,4.000000000000000000e+00,1.000000000000000000e+00,-1.000000000000000000e+00,-2.624511718750000000e-01,-7.983398437500000000e-02,8.096923828125000000e-01,5.187377929687500000e-01
