0.000000000000000000e+00,-1.000000000000000000e+00,8.000000000000000000e+01,2.300000000000000000e+01,0.000000000000000000e+00,-1.200000000000000000e+01,-1.000000000000000000e+01,-4.000000000000000000e+00,-3.797607421875000000e-01,2.606201171875000000e-02,8.173828125000000000e-01,4.323730468750000000e-01
-1.100000000000000000e+01,-2.000000000000000000e+00,-1.300000000000000000e+01,5.000000000000000000e+00,-1.700000000000000000e+01,0.000000000000000000e+00,-2.000000000000000000e+00,-4.000000000000000000e+00,-3.797607421875000000e-01,2.606201171875000000e-02,8.173828125000000000e-01,4.323730468750000000e-01
-6.000000000000000000e+00,-1.000000000000000000e+00,-3.900000000000000000e+01,-1.600000000000000000e+01,6.000000000000000000e+00,-1.000000000000000000e+00,-1.000000000000000000e+01,1.000000000000000000e+00,-3.797607421875000000e-01,2.606201171875000000e-02,8.173828125000000000e-01,4.323730468750000000e-01
3.000000000000000000e+00,0.000000000000000000e+00,4.800000000000000000e+01,4.000000000000000000e+00,5.000000000000000000e+00,-2.000000000000000000e+00,-3.000000000000000000e+00,-3.000000000000000000e+00,-3.797607421875000000e-01,2.606201171875000000e-02,8.173828125000000000e-01,4.323730468750000000e-01
-2.000000000000000000e+00,4.000000000000000000e+00,-2.500000000000000000e+01,1.300000000000000000e+01,5.000000000000000000e+00,-9.000000000000000000e+00,-1.200000000000000000e+01,0.000000000000000000e+00,-3.791503906250000000e-01,2.587890625000000000e-02,8.172607421875000000e-01,4.331665039062500000e-01
3.000000000000000000e+00,-6.000000000000000000e+00,-4.700000000000000000e+01,-9.000000000000000000e+00,3.000000000000000000e+00,-3.000000000000000000e+00,-8.000000000000000000e+00,-1.000000000000000000e+00,-3.791503906250000000e-01,2.587890625000000000e-02,8.172607421875000000e-01,4.331665039062500000e-01
3.000000000000000000e+00,1.000000000000000000e+00,7.000000000000000000e+00,-9.000000000000000000e+00,-1.200000000000000000e+01,-1.000000000000000000e+00,3.000000000000000000e+00,-1.000000000000000000e+00,-3.791503906250000000e-01,2.587890625000000000e-02,8.172607421875000000e-01,4.331665039062500000e-01
5.000000000000000000e+00,3.000000000000000000e+00,3.000000000000000000e+01,7.000000000000000000e+00,0.000000000000000000e+00,3.000000000000000000e+00,-1.000000000000000000e+00,0.000000000000000000e+00,-3.791503906250000000e-01,2.587890625000000000e-02,8.172607421875000000e-01,4.331665039062500000e-01
5.000000000000000000e+00,-3.000000000000000000e+00,-2.800000000000000000e+01,3.000000000000000000e+00,7.000000000000000000e+00,-1.300000000000000000e+01,-1.100000000000000000e+01,1.000000000000000000e+00,-3.787841796875000000e-01,2.539062500000000000e-02,8.171386718750000000e-01,4.337158203125000000e-01
-3.000000000000000000e+01,-2.000000000000000000e+00,-9.000000000000000000e+00,-1.200000000000000000e+01,3.000000000000000000e+00,2.800000000000000000e+01,3.300000000000000000e+01,1.000000000000000000e+00,-3.787841796875000000e-01,2.539062500000000000e-02,8.171386718750000000e-01,4.337158203125000000e-01
4.000000000000000000e+00,-1.300000000000000000e+01,-3.000000000000000000e+00,-6.000000000000000000e+00,-2.300000000000000000e+01,-3.000000000000000000e+00,1.100000000000000000e+01,-2.000000000000000000e+00,-3.787841796875000000e-01,2.539062500000000000e-02,8.171386718750000000e-01,4.337158203125000000e-01
1.000000000000000000e+00,5.000000000000000000e+00,-2.700000000000000000e+01,-3.000000000000000000e+00,1.100000000000000000e+01,-3.000000000000000000e+00,-2.100000000000000000e+01,-3.000000000000000000e+00,-3.787841796875000000e-01,2.539062500000000000e-02,8.171386718750000000e-01,4.337158203125000000e-01
1.000000000000000000e+00,-4.000000000000000000e+00,5.900000000000000000e+01,1.300000000000000000e+01,2.000000000000000000e+00,-2.000000000000000000e+00,1.100000000000000000e+01,-2.000000000000000000e+00,-3.787231445312500000e-01,2.447509765625000000e-02,8.168334960937500000e-01,4.343872070312500000e-01
6.000000000000000000e+00,-1.000000000000000000e+00,-5.600000000000000000e+01,-3.200000000000000000e+01,-6.000000000000000000e+00,-3.000000000000000000e+00,-2.000000000000000000e+00,-5.000000000000000000e+00,-3.787231445312500000e-01,2.447509765625000000e-02,8.168334960937500000e-01,4.343872070312500000e-01
-1.000000000000000000e+00,2.000000000000000000e+00,-7.600000000000000000e+01,-1.700000000000000000e+01,1.000000000000000000e+00,-9.000000000000000000e+00,-1.900000000000000000e+01,0.000000000000000000e+00,-3.787231445312500000e-01,2.447509765625000000e-02,8.168334960937500000e-01,4.343872070312500000e-01
6.000000000000000000e+00,-4.000000000000000000e+00,6.800000000000000000e+01,1.600000000000000000e+01,-8.000000000000000000e+00,-3.000000000000000000e+00,2.200000000000000000e+01,3.000000000000000000e+00,-3.787231445312500000e-01,2.447509765625000000e-02,8.168334960937500000e-01,4.343872070312500000e-01
2.000000000000000000e+00,5.000000000000000000e+00,1.400000000000000000e+01,-4.000000000000000000e+00,2.000000000000000000e+00,7.000000000000000000e+00,-1.300000000000000000e+01,-2.000000000000000000e+00,-3.790283203125000000e-01,2.423095703125000000e-02,8.164062500000000000e-01,4.349365234375000000e-01
4.000000000000000000e+00,0.000000000000000000e+00,2.200000000000000000e+01,7.000000000000000000e+00,8.000000000000000000e+00,-6.000000000000000000e+00,-5.000000000000000000e+00,2.000000000000000000e+00,-3.790283203125000000e-01,2.423095703125000000e-02,8.164062500000000000e-01,4.349365234375000000e-01
-2.000000000000000000e+00,9.000000000000000000e+00,1.900000000000000000e+01,-4.000000000000000000e+00,1.000000000000000000e+00,1.000000000000000000e+00,0.000000000000000000e+00,-6.000000000000000000e+00,-3.790283203125000000e-01,2.423095703125000000e-02,8.164062500000000000e-01,4.349365234375000000e-01
-1.000000000000000000e+00,-4.000000000000000000e+00,-1.500000000000000000e+01,-8.000000000000000000e+00,0.000000000000000000e+00,6.000000000000000000e+00,9.000000000000000000e+00,5.000000000000000000e+00,-3.790283203125000000e-01,2.423095703125000000e-02,8.164062500000000000e-01,4.349365234375000000e-01
5.000000000000000000e+00,6.000000000000000000e+00,7.000000000000000000e+00,6.000000000000000000e+00,5.000000000000000000e+00,8.000000000000000000e+00,1.600000000000000000e+01,7.000000000000000000e+00,-3.794555664062500000e-01,2.453613281250000000e-02,8.161010742187500000e-01,4.351806640625000000e-01
0.000000000000000000e+00,-1.400000000000000000e+01,-3.800000000000000000e+01,-2.500000000000000000e+01,-8.000000000000000000e+00,-1.900000000000000000e+01,-2.000000000000000000e+01,-3.000000000000000000e+00,-3.794555664062500000e-01,2.453613281250000000e-02,8.161010742187500000e-01,4.351806640625000000e-01
-7.000000000000000000e+00,2.000000000000000000e+00,-4.000000000000000000e+00,1.100000000000000000e+01,6.000000000000000000e+00,8.000000000000000000e+00,4.000000000000000000e+00,-1.000000000000000000e+00,-3.794555664062500000e-01,2.453613281250000000e-02,8.161010742187500000e-01,4.351806640625000000e-01
1.000000000000000000e+00,-4.000000000000000000e+00,-1.200000000000000000e+01,-5.000000000000000000e+00,-5.000000000000000000e+00,0.000000000000000000e+00,-5.000000000000000000e+00,-3.000000000000000000e+00,-3.794555664062500000e-01,2.453613281250000000e-02,8.161010742187500000e-01,4.351806640625000000e-01
-4.000000000000000000e+00,0.000000000000000000e+00,-2.000000000000000000e+00,-1.000000000000000000e+00,-6.000000000000000000e+00,-3.000000000000000000e+00,-8.000000000000000000e+00,-4.000000000000000000e+00,-3.801269531250000000e-01,2.453613281250000000e-02,8.157958984375000000e-01,4.351196289062500000e-01
8.000000000000000000e+00,2.000000000000000000e+00,7.000000000000000000e+00,-1.800000000000000000e+01,-4.000000000000000000e+00,0.000000000000000000e+00,-2.000000000000000000e+00,1.000000000000000000e+00,-3.801269531250000000e-01,2.453613281250000000e-02,8.157958984375000000e-01,4.351196289062500000e-01
-2.000000000000000000e+00,5.000000000000000000e+00,0.000000000000000000e+00,1.100000000000000000e+01,-5.000000000000000000e+00,-3.000000000000000000e+00,0.000000000000000000e+00,-1.000000000000000000e+00,-3.801269531250000000e-01,2.453613281250000000e-02,8.157958984375000000e-01,4.351196289062500000e-01
-7.000000000000000000e+00,-8.000000000000000000e+00,-3.600000000000000000e+01,-1.300000000000000000e+01,-3.000000000000000000e+00,-2.000000000000000000e+00,-1.300000000000000000e+01,-6.000000000000000000e+00,-3.801269531250000000e-01,2.453613281250000000e-02,8.157958984375000000e-01,4.351196289062500000e-01
-1.000000000000000000e+00,-3.000000000000000000e+00,-2.600000000000000000e+01,-1.000000000000000000e+01,-9.000000000000000000e+00,-1.500000000000000000e+01,-2.300000000000000000e+01,-2.000000000000000000e+00,-3.803100585937500000e-01,2.459716796875000000e-02,8.156127929687500000e-01,4.353027343750000000e-01
1.000000000000000000e+00,4.000000000000000000e+00,0.000000000000000000e+00,5.000000000000000000e+00,-3.000000000000000000e+00,1.000000000000000000e+00,-1.100000000000000000e+01,-5.000000000000000000e+00,-3.803100585937500000e-01,2.459716796875000000e-02,8.156127929687500000e-01,4.353027343750000000e-01
0.000000000000000000e+00,4.000000000000000000e+00,3.800000000000000000e+01,5.000000000000000000e+00,-8.000000000000000000e+00,-5.000000000000000000e+00,2.700000000000000000e+01,5.000000000000000000e+00,-3.803100585937500000e-01,2.459716796875000000e-02,8.156127929687500000e-01,4.353027343750000000e-01
-1.000000000000000000e+01,1.000000000000000000e+00,-2.500000000000000000e+01,-4.000000000000000000e+00,7.000000000000000000e+00,1.000000000000000000e+01,1.000000000000000000e+00,-4.000000000000000000e+00,-3.803100585937500000e-01,2.459716796875000000e-02,8.156127929687500000e-01,4.353027343750000000e-01
-8.000000000000000000e+00,1.000000000000000000e+00,5.000000000000000000e+00,5.000000000000000000e+00,2.000000000000000000e+00,0.000000000000000000e+00,-2.700000000000000000e+01,-8.000000000000000000e+00,-3.801879882812500000e-01,2.447509765625000000e-02,8.154907226562500000e-01,4.356079101562500000e-01
1.300000000000000000e+01,0.000000000000000000e+00,2.900000000000000000e+01,8.000000000000000000e+00,-4.000000000000000000e+00,9.000000000000000000e+00,2.400000000000000000e+01,0.000000000000000000e+00,-3.801879882812500000e-01,2.447509765625000000e-02,8.154907226562500000e-01,4.356079101562500000e-01
-3.000000000000000000e+00,-6.000000000000000000e+00,7.000000000000000000e+00,1.300000000000000000e+01,1.000000000000000000e+00,-6.000000000000000000e+00,-6.000000000000000000e+00,-3.000000000000000000e+00,-3.801879882812500000e-01,2.447509765625000000e-02,8.154907226562500000e-01,4.356079101562500000e-01
-1.100000000000000000e+01,-7.000000000000000000e+00,-4.400000000000000000e+01,-2.900000000000000000e+01,-1.900000000000000000e+01,-1.800000000000000000e+01,-1.200000000000000000e+01,-2.000000000000000000e+00,-3.801879882812500000e-01,2.447509765625000000e-02,8.154907226562500000e-01,4.356079101562500000e-01
-5.000000000000000000e+00,-1.000000000000000000e+00,5.000000000000000000e+00,5.000000000000000000e+00,-2.000000000000000000e+00,-3.000000000000000000e+00,6.000000000000000000e+00,-1.000000000000000000e+00,-3.801269531250000000e-01,2.392578125000000000e-02,8.154907226562500000e-01,4.357299804687500000e-01
-7.000000000000000000e+00,3.000000000000000000e+00,1.200000000000000000e+01,6.000000000000000000e+00,-3.000000000000000000e+00,-9.000000000000000000e+00,-1.000000000000000000e+01,1.000000000000000000e+00,-3.801269531250000000e-01,2.392578125000000000e-02,8.154907226562500000e-01,4.357299804687500000e-01
2.100000000000000000e+01,2.000000000000000000e+00,1.700000000000000000e+01,1.100000000000000000e+01,6.000000000000000000e+00,7.000000000000000000e+00,1.000000000000000000e+00,-4.000000000000000000e+00,-3.801269531250000000e-01,2.392578125000000000e-02,8.154907226562500000e-01,4.357299804687500000e-01
9.000000000000000000e+00,2.000000000000000000e+00,1.000000000000000000e+00,-2.000000000000000000e+00,1.100000000000000000e+01,7.000000000000000000e+00,2.000000000000000000e+00,1.000000000000000000e+00,-3.801269531250000000e-01,2.392578125000000000e-02,8.154907226562500000e-01,4.357299804687500000e-01
0.000000000000000000e+00,-3.000000000000000000e+00,1.000000000000000000e+00,-5.000000000000000000e+00,-9.000000000000000000e+00,-9.000000000000000000e+00,-4.000000000000000000e+00,-3.000000000000000000e+00,-3.801269531250000000e-01,2.398681640625000000e-02,8.154907226562500000e-01,4.357299804687500000e-01
-6.000000000000000000e+00,-4.000000000000000000e+00,-2.800000000000000000e+01,1.300000000000000000e+01,-1.000000000000000000e+00,2.000000000000000000e+00,4.000000000000000000e+00,-3.000000000000000000e+00,-3.801269531250000000e-01,2.398681640625000000e-02,8.154907226562500000e-01,4.357299804687500000e-01
-1.000000000000000000e+01,-5.000000000000000000e+00,-6.000000000000000000e+00,-3.400000000000000000e+01,-9.000000000000000000e+00,-9.000000000000000000e+00,-1.300000000000000000e+01,-3.000000000000000000e+00,-3.801269531250000000e-01,2.398681640625000000e-02,8.154907226562500000e-01,4.357299804687500000e-01
3.000000000000000000e+00,1.000000000000000000e+00,5.000000000000000000e+00,4.000000000000000000e+00,-1.100000000000000000e+01,-2.000000000000000000e+00,-4.000000000000000000e+00,0.000000000000000000e+00,-3.801269531250000000e-01,2.398681640625000000e-02,8.154907226562500000e-01,4.357299804687500000e-01
1.000000000000000000e+00,1.000000000000000000e+00,1.400000000000000000e+01,1.100000000000000000e+01,4.000000000000000000e+00,1.000000000000000000e+01,2.000000000000000000e+01,3.000000000000000000e+00,-3.800659179687500000e-01,2.398681640625000000e-02,8.156127929687500000e-01,4.355468750000000000e-01
-6.000000000000000000e+00,-4.000000000000000000e+00,4.300000000000000000e+01,1.600000000000000000e+01,2.000000000000000000e+00,-9.000000000000000000e+00,-1.400000000000000000e+01,-5.000000000000000000e+00,-3.800659179687500000e-01,2.398681640625000000e-02,8.156127929687500000e-01,4.355468750000000000e-01
-1.000000000000000000e+00,0.000000000000000000e+00,-5.200000000000000000e+01,-5.000000000000000000e+00,0.000000000000000000e+00,-7.000000000000000000e+00,-1.700000000000000000e+01,0.000000000000000000e+00,-3.800659179687500000e-01,2.398681640625000000e-02,8.156127929687500000e-01,4.355468750000000000e-01
5.000000000000000000e+00,-2.000000000000000000e+00,-1.900000000000000000e+01,-5.000000000000000000e+00,0.000000000000000000e+00,-7.000000000000000000e+00,1.000000000000000000e+00,1.000000000000000000e+00,-3.800659179687500000e-01,2.398681640625000000e-02,8.156127929687500000e-01,4.355468750000000000e-01
-4.000000000000000000e+00,3.000000000000000000e+00,4.700000000000000000e+01,1.000000000000000000e+00,2.000000000000000000e+00,9.000000000000000000e+00,0.000000000000000000e+00,0.000000000000000000e+00,-3.799438476562500000e-01,2.374267578125000000e-02,8.157958984375000000e-01,4.353637695312500000e-01
5.000000000000000000e+00,-6.000000000000000000e+00,-3.000000000000000000e+01,1.600000000000000000e+01,9.000000000000000000e+00,5.000000000000000000e+00,1.100000000000000000e+01,4.000000000000000000e+00,-3.799438476562500000e-01,2.374267578125000000e-02,8.157958984375000000e-01,4.353637695312500000e-01
-3.000000000000000000e+00,-5.000000000000000000e+00,7.000000000000000000e+00,-1.000000000000000000e+00,1.000000000000000000e+01,2.300000000000000000e+01,-7.000000000000000000e+00,-2.000000000000000000e+00,-3.799438476562500000e-01,2.374267578125000000e-02,8.157958984375000000e-01,4.353637695312500000e-01
1.000000000000000000e+00,1.000000000000000000e+01,4.100000000000000000e+01,1.900000000000000000e+01,5.000000000000000000e+00,0.000000000000000000e+00,3.400000000000000000e+01,3.000000000000000000e+00,-3.799438476562500000e-01,2.374267578125000000e-02,8.157958984375000000e-01,4.353637695312500000e-01
-4.000000000000000000e+00,-1.500000000000000000e+01,-2.300000000000000000e+01,-2.000000000000000000e+00,-2.000000000000000000e+00,-1.000000000000000000e+00,-1.000000000000000000e+00,-2.000000000000000000e+00,-3.795776367187500000e-01,2.349853515625000000e-02,8.160400390625000000e-01,4.351806640625000000e-01
-2.000000000000000000e+00,-1.000000000000000000e+00,-1.800000000000000000e+01,-1.200000000000000000e+01,2.000000000000000000e+00,-7.000000000000000000e+00,-7.000000000000000000e+00,0.000000000000000000e+00,-3.795776367187500000e-01,2.349853515625000000e-02,8.160400390625000000e-01,4.351806640625000000e-01
-3.000000000000000000e+00,3.000000000000000000e+00,7.200000000000000000e+01,1.100000000000000000e+01,-1.700000000000000000e+01,-1.100000000000000000e+01,8.000000000000000000e+00,-4.000000000000000000e+00,-3.795776367187500000e-01,2.349853515625000000e-02,8.160400390625000000e-01,4.351806640625000000e-01
-1.000000000000000000e+00,2.000000000000000000e+00,1.400000000000000000e+01,8.000000000000000000e+00,9.000000000000000000e+00,6.000000000000000000e+00,-5.000000000000000000e+00,2.000000000000000000e+00,-3.795776367187500000e-01,2.349853515625000000e-02,8.160400390625000000e-01,4.351806640625000000e-01
3.000000000000000000e+00,0.000000000000000000e+00,2.400000000000000000e+01,4.000000000000000000e+00,4.000000000000000000e+00,1.000000000000000000e+00,4.000000000000000000e+00,1.000000000000000000e+00,-3.793334960937500000e-01,2.307128906250000000e-02,8.161621093750000000e-01,4.351196289062500000e-01
0.000000000000000000e+00,0.000000000000000000e+00,-1.100000000000000000e+01,-7.000000000000000000e+00,-1.100000000000000000e+01,-4.000000000000000000e+00,-2.000000000000000000e+00,-4.000000000000000000e+00,-3.793334960937500000e-01,2.307128906250000000e-02,8.161621093750000000e-01,4.351196289062500000e-01
-4.000000000000000000e+00,4.000000000000000000e+00,3.900000000000000000e+01,1.700000000000000000e+01,0.000000000000000000e+00,1.000000000000000000e+00,3.000000000000000000e+00,2.000000000000000000e+00,-3.793334960937500000e-01,2.307128906250000000e-02,8.161621093750000000e-01,4.351196289062500000e-01
-1.000000000000000000e+00,4.000000000000000000e+00,7.000000000000000000e+00,-7.000000000000000000e+00,-9.000000000000000000e+00,-2.000000000000000000e+00,-1.400000000000000000e+01,-7.000000000000000000e+00,-3.793334960937500000e-01,2.307128906250000000e-02,8.161621093750000000e-01,4.351196289062500000e-01
0.000000000000000000e+00,-8.000000000000000000e+00,5.000000000000000000e+00,1.000000000000000000e+00,7.000000000000000000e+00,0.000000000000000000e+00,0.000000000000000000e+00,2.000000000000000000e+00,-3.792114257812500000e-01,2.276611328125000000e-02,8.164062500000000000e-01,4.348754882812500000e-01
3.000000000000000000e+00,0.000000000000000000e+00,2.500000000000000000e+01,-2.000000000000000000e+00,1.000000000000000000e+00,-2.000000000000000000e+00,-9.000000000000000000e+00,-1.000000000000000000e+00,-3.792114257812500000e-01,2.276611328125000000e-02,8.164062500000000000e-01,4.348754882812500000e-01
-9.000000000000000000e+00,-8.000000000000000000e+00,-7.400000000000000000e+01,-2.500000000000000000e+01,-1.100000000000000000e+01,-1.000000000000000000e+01,-1.400000000000000000e+01,-4.000000000000000000e+00,-3.792114257812500000e-01,2.276611328125000000e-02,8.164062500000000000e-01,4.348754882812500000e-01
5.000000000000000000e+00,-5.000000000000000000e+00,3.500000000000000000e+01,2.800000000000000000e+01,6.000000000000000000e+00,2.000000000000000000e+00,0.000000000000000000e+00,-2.000000000000000000e+00,-3.792114257812500000e-01,2.276611328125000000e-02,8.164062500000000000e-01,4.348754882812500000e-01
-3.000000000000000000e+00,3.000000000000000000e+00,-6.400000000000000000e+01,-6.000000000000000000e+00,3.000000000000000000e+00,3.000000000000000000e+00,5.000000000000000000e+00,-1.000000000000000000e+00,-3.793334960937500000e-01,2.246093750000000000e-02,8.164672851562500000e-01,4.345703125000000000e-01
-1.000000000000000000e+00,4.000000000000000000e+00,5.700000000000000000e+01,-2.000000000000000000e+00,-8.000000000000000000e+00,-1.900000000000000000e+01,-9.000000000000000000e+00,1.000000000000000000e+00,-3.793334960937500000e-01,2.246093750000000000e-02,8.164672851562500000e-01,4.345703125000000000e-01
9.000000000000000000e+00,-1.000000000000000000e+00,7.000000000000000000e+00,1.000000000000000000e+00,9.000000000000000000e+00,2.700000000000000000e+01,1.400000000000000000e+01,4.000000000000000000e+00,-3.793334960937500000e-01,2.246093750000000000e-02,8.164672851562500000e-01,4.345703125000000000e-01
-4.000000000000000000e+00,-2.000000000000000000e+00,2.400000000000000000e+01,-1.000000000000000000e+01,-1.300000000000000000e+01,2.000000000000000000e+00,-3.000000000000000000e+00,-5.000000000000000000e+00,-3.793334960937500000e-01,2.246093750000000000e-02,8.164672851562500000e-01,4.345703125000000000e-01
-8.000000000000000000e+00,-5.000000000000000000e+00,-6.600000000000000000e+01,-2.400000000000000000e+01,-5.000000000000000000e+00,1.000000000000000000e+00,-1.300000000000000000e+01,-5.000000000000000000e+00,-3.793945312500000000e-01,2.227783203125000000e-02,8.165893554687500000e-01,4.343872070312500000e-01
-6.000000000000000000e+00,-2.000000000000000000e+00,-2.000000000000000000e+01,7.000000000000000000e+00,6.000000000000000000e+00,2.000000000000000000e+00,1.600000000000000000e+01,0.000000000000000000e+00,-3.793945312500000000e-01,2.227783203125000000e-02,8.165893554687500000e-01,4.343872070312500000e-01
-6.000000000000000000e+00,-1.000000000000000000e+00,-3.100000000000000000e+01,-1.100000000000000000e+01,-2.000000000000000000e+00,-3.000000000000000000e+00,7.000000000000000000e+00,1.000000000000000000e+00,-3.793945312500000000e-01,2.227783203125000000e-02,8.165893554687500000e-01,4.343872070312500000e-01
-5.000000000000000000e+00,-2.000000000000000000e+00,0.000000000000000000e+00,-1.000000000000000000e+00,0.000000000000000000e+00,-4.000000000000000000e+00,-9.000000000000000000e+00,1.000000000000000000e+00,-3.793945312500000000e-01,2.227783203125000000e-02,8.165893554687500000e-01,4.343872070312500000e-01
0.000000000000000000e+00,-1.000000000000000000e+00,1.900000000000000000e+01,1.300000000000000000e+01,1.300000000000000000e+01,6.000000000000000000e+00,1.200000000000000000e+01,1.000000000000000000e+00,-3.793334960937500000e-01,2.246093750000000000e-02,8.166503906250000000e-01,4.342651367187500000e-01
-3.000000000000000000e+00,0.000000000000000000e+00,-7.000000000000000000e+00,-9.000000000000000000e+00,-1.000000000000000000e+01,-6.000000000000000000e+00,-7.000000000000000000e+00,-2.000000000000000000e+00,-3.793334960937500000e-01,2.246093750000000000e-02,8.166503906250000000e-01,4.342651367187500000e-01
-6.000000000000000000e+00,-4.000000000000000000e+00,-5.200000000000000000e+01,-1.000000000000000000e+01,8.000000000000000000e+00,1.000000000000000000e+00,-6.000000000000000000e+00,-3.000000000000000000e+00,-3.793334960937500000e-01,2.246093750000000000e-02,8.166503906250000000e-01,4.342651367187500000e-01
2.000000000000000000e+00,6.000000000000000000e+00,3.800000000000000000e+01,7.000000000000000000e+00,-2.000000000000000000e+00,2.000000000000000000e+00,-2.000000000000000000e+00,0.000000000000000000e+00,-3.793334960937500000e-01,2.246093750000000000e-02,8.166503906250000000e-01,4.342651367187500000e-01
-2.000000000000000000e+00,-1.000000000000000000e+00,-2.400000000000000000e+01,-1.200000000000000000e+01,-1.100000000000000000e+01,-8.000000000000000000e+00,-4.000000000000000000e+00,-1.000000000000000000e+00,-3.793945312500000000e-01,2.258300781250000000e-02,8.166503906250000000e-01,4.342041015625000000e-01
2.000000000000000000e+00,-9.000000000000000000e+00,-3.100000000000000000e+01,-1.900000000000000000e+01,-4.000000000000000000e+00,0.000000000000000000e+00,-1.300000000000000000e+01,-3.000000000000000000e+00,-3.793945312500000000e-01,2.258300781250000000e-02,8.166503906250000000e-01,4.342041015625000000e-01
-1.000000000000000000e+00,5.000000000000000000e+00,3.600000000000000000e+01,1.200000000000000000e+01,0.000000000000000000e+00,-3.000000000000000000e+00,8.000000000000000000e+00,1.000000000000000000e+00,-3.793945312500000000e-01,2.258300781250000000e-02,8.166503906250000000e-01,4.342041015625000000e-01
0.000000000000000000e+00,1.000000000000000000e+00,0.000000000000000000e+00,-5.000000000000000000e+00,3.000000000000000000e+00,1.000000000000000000e+00,-6.000000000000000000e+00,-2.000000000000000000e+00,-3.793945312500000000e-01,2.258300781250000000e-02,8.166503906250000000e-01,4.342041015625000000e-01
5.000000000000000000e+00,6.000000000000000000e+00,3.400000000000000000e+01,6.000000000000000000e+00,-3.000000000000000000e+00,-6.000000000000000000e+00,-3.000000000000000000e+00,2.000000000000000000e+00,-3.795166015625000000e-01,2.282714843750000000e-02,8.165893554687500000e-01,4.342041015625000000e-01
3.000000000000000000e+00,1.000000000000000000e+00,-3.000000000000000000e+00,-5.000000000000000000e+00,1.100000000000000000e+01,6.000000000000000000e+00,2.000000000000000000e+00,3.000000000000000000e+00,-3.795166015625000000e-01,2.282714843750000000e-02,8.165893554687500000e-01,4.342041015625000000e-01
-6.000000000000000000e+00,0.000000000000000000e+00,8.000000000000000000e+00,-3.000000000000000000e+00,-8.000000000000000000e+00,-5.000000000000000000e+00,-1.500000000000000000e+01,-6.000000000000000000e+00,-3.795166015625000000e-01,2.282714843750000000e-02,8.165893554687500000e-01,4.342041015625000000e-01
-4.000000000000000000e+00,-1.000000000000000000e+01,-4.200000000000000000e+01,0.000000000000000000e+00,-6.000000000000000000e+00,-1.100000000000000000e+01,5.000000000000000000e+00,1.000000000000000000e+00,-3.795166015625000000e-01,2.282714843750000000e-02,8.165893554687500000e-01,4.342041015625000000e-01
0.000000000000000000e+00,0.000000000000000000e+00,-2.100000000000000000e+01,-1.600000000000000000e+01,-2.000000000000000000e+00,-1.000000000000000000e+00,9.000000000000000000e+00,-3.000000000000000000e+00,-3.795776367187500000e-01,2.258300781250000000e-02,8.164062500000000000e-01,4.345703125000000000e-01
1.000000000000000000e+01,-1.000000000000000000e+00,2.300000000000000000e+01,6.000000000000000000e+00,-8.000000000000000000e+00,1.200000000000000000e+01,1.400000000000000000e+01,4.000000000000000000e+00,-3.795776367187500000e-01,2.258300781250000000e-02,8.164062500000000000e-01,4.345703125000000000e-01
-1.100000000000000000e+01,-3.000000000000000000e+00,-2.000000000000000000e+00,9.000000000000000000e+00,2.000000000000000000e+00,-9.000000000000000000e+00,-9.000000000000000000e+00,-3.000000000000000000e+00,-3.795776367187500000e-01,2.258300781250000000e-02,8.164062500000000000e-01,4.345703125000000000e-01
-1.000000000000000000e+00,-4.000000000000000000e+00,-1.100000000000000000e+01,-5.000000000000000000e+00,4.000000000000000000e+00,-5.000000000000000000e+00,0.000000000000000000e+00,-1.000000000000000000e+00,-3.795776367187500000e-01,2.258300781250000000e-02,8.164062500000000000e-01,4.345703125000000000e-01
5.000000000000000000e+00,2.000000000000000000e+00,4.800000000000000000e+01,1.000000000000000000e+01,-2.000000000000000000e+00,5.000000000000000000e+00,3.000000000000000000e+01,1.000000000000000000e+00,-3.793945312500000000e-01,2.258300781250000000e-02,8.160400390625000000e-01,4.354248046875000000e-01
-1.000000000000000000e+00,-1.000000000000000000e+00,-2.300000000000000000e+01,-8.000000000000000000e+00,-2.000000000000000000e+00,2.000000000000000000e+00,3.000000000000000000e+00,-2.000000000000000000e+00,-3.793945312500000000e-01,2.258300781250000000e-02,8.160400390625000000e-01,4.354248046875000000e-01
9.000000000000000000e+00,6.000000000000000000e+00,-2.000000000000000000e+00,1.900000000000000000e+01,9.000000000000000000e+00,4.000000000000000000e+00,4.000000000000000000e+00,4.000000000000000000e+00,-3.793945312500000000e-01,2.258300781250000000e-02,8.160400390625000000e-01,4.354248046875000000e-01
-2.000000000000000000e+00,-3.000000000000000000e+00,-4.000000000000000000e+00,-2.000000000000000000e+01,-6.000000000000000000e+00,-8.000000000000000000e+00,-9.000000000000000000e+00,-1.000000000000000000e+00,-3.793945312500000000e-01,2.258300781250000000e-02,8.160400390625000000e-01,4.354248046875000000e-01
-1.000000000000000000e+00,-4.000000000000000000e+00,0.000000000000000000e+00,-4.000000000000000000e+00,-3.000000000000000000e+00,-1.000000000000000000e+00,2.000000000000000000e+00,-1.000000000000000000e+00,-3.789672851562500000e-01,2.246093750000000000e-02,8.157348632812500000e-01,4.363403320312500000e-01
-3.000000000000000000e+00,9.000000000000000000e+00,2.600000000000000000e+01,1.500000000000000000e+01,6.000000000000000000e+00,2.000000000000000000e+01,9.000000000000000000e+00,-3.000000000000000000e+00,-3.789672851562500000e-01,2.246093750000000000e-02,8.157348632812500000e-01,4.363403320312500000e-01
0.000000000000000000e+00,-5.000000000000000000e+00,1.000000000000000000e+00,0.000000000000000000e+00,-2.000000000000000000e+00,-1.500000000000000000e+01,-1.800000000000000000e+01,-2.000000000000000000e+00,-3.789672851562500000e-01,2.246093750000000000e-02,8.157348632812500000e-01,4.363403320312500000e-01
-1.000000000000000000e+00,-6.000000000000000000e+00,1.900000000000000000e+01,1.100000000000000000e+01,-1.000000000000000000e+00,1.700000000000000000e+01,1.500000000000000000e+01,2.000000000000000000e+00,-3.789672851562500000e-01,2.246093750000000000e-02,8.157348632812500000e-01,4.363403320312500000e-01
-1.000000000000000000e+00,-3.000000000000000000e+00,-4.100000000000000000e+01,-1.800000000000000000e+01,-3.000000000000000000e+00,-8.000000000000000000e+00,-1.500000000000000000e+01,-3.000000000000000000e+00,-3.786621093750000000e-01,2.209472656250000000e-02,8.153686523437500000e-01,4.372558593750000000e-01
1.000000000000000000e+00,5.000000000000000000e+00,1.400000000000000000e+01,1.400000000000000000e+01,3.000000000000000000e+00,-5.000000000000000000e+00,-9.000000000000000000e+00,-1.000000000000000000e+00,-3.786621093750000000e-01,2.209472656250000000e-02,8.153686523437500000e-01,4.372558593750000000e-01
2.000000000000000000e+00,-5.000000000000000000e+00,1.000000000000000000e+01,-9.000000000000000000e+00,-2.000000000000000000e+00,-8.000000000000000000e+00,-7.000000000000000000e+00,-2.000000000000000000e+00,-3.786621093750000000e-01,2.209472656250000000e-02,8.153686523437500000e-01,4.372558593750000000e-01
4.000000000000000000e+00,1.300000000000000000e+01,7.300000000000000000e+01,2.600000000000000000e+01,1.000000000000000000e+00,-8.000000000000000000e+00,-1.100000000000000000e+01,-2.000000000000000000e+00,-3.786621093750000000e-01,2.209472656250000000e-02,8.153686523437500000e-01,4.372558593750000000e-01
-4.000000000000000000e+00,-3.000000000000000000e+00,-3.500000000000000000e+01,6.000000000000000000e+00,-1.000000000000000000e+00,0.000000000000000000e+00,-4.000000000000000000e+00,-1.000000000000000000e+00,-3.784179687500000000e-01,2.142333984375000000e-02,8.150634765625000000e-01,4.381103515625000000e-01
-2.000000000000000000e+00,-2.000000000000000000e+00,-9.000000000000000000e+00,-1.600000000000000000e+01,-5.000000000000000000e+00,-5.000000000000000000e+00,-8.000000000000000000e+00,0.000000000000000000e+00,-3.784179687500000000e-01,2.142333984375000000e-02,8.150634765625000000e-01,4.381103515625000000e-01
-2.000000000000000000e+00,-5.000000000000000000e+00,6.000000000000000000e+00,-6.000000000000000000e+00,-7.000000000000000000e+00,-5.000000000000000000e+00,7.000000000000000000e+00,0.000000000000000000e+00,-3.784179687500000000e-01,2.142333984375000000e-02,8.150634765625000000e-01,4.381103515625000000e-01
-2.000000000000000000e+00,-5.000000000000000000e+00,-1.200000000000000000e+01,-5.000000000000000000e+00,-4.000000000000000000e+00,0.000000000000000000e+00,4.000000000000000000e+00,-2.000000000000000000e+00,-3.784179687500000000e-01,2.142333984375000000e-02,8.150634765625000000e-01,4.381103515625000000e-01
-1.000000000000000000e+00,6.000000000000000000e+00,2.400000000000000000e+01,-1.400000000000000000e+01,-6.000000000000000000e+00,-1.000000000000000000e+00,-1.800000000000000000e+01,-5.000000000000000000e+00,-3.778686523437500000e-01,2.075195312500000000e-02,8.147583007812500000e-01,4.391479492187500000e-01
-7.000000000000000000e+00,-6.000000000000000000e+00,-5.000000000000000000e+01,-1.500000000000000000e+01,0.000000000000000000e+00,-7.000000000000000000e+00,-1.000000000000000000e+01,-3.000000000000000000e+00,-3.778686523437500000e-01,2.075195312500000000e-02,8.147583007812500000e-01,4.391479492187500000e-01
2.000000000000000000e+00,-1.000000000000000000e+00,3.000000000000000000e+00,-7.000000000000000000e+00,-3.000000000000000000e+00,1.000000000000000000e+00,2.000000000000000000e+00,1.000000000000000000e+00,-3.778686523437500000e-01,2.075195312500000000e-02,8.147583007812500000e-01,4.391479492187500000e-01
1.000000000000000000e+00,-3.000000000000000000e+00,6.000000000000000000e+00,1.000000000000000000e+00,-2.000000000000000000e+00,-9.000000000000000000e+00,-1.000000000000000000e+00,-2.000000000000000000e+00,-3.778686523437500000e-01,2.075195312500000000e-02,8.147583007812500000e-01,4.391479492187500000e-01
-4.000000000000000000e+00,-5.000000000000000000e+00,-1.600000000000000000e+01,-1.000000000000000000e+01,-9.000000000000000000e+00,9.000000000000000000e+00,-1.000000000000000000e+00,-3.000000000000000000e+00,-3.772583007812500000e-01,2.008056640625000000e-02,8.143310546875000000e-01,4.404907226562500000e-01
-6.000000000000000000e+00,2.400000000000000000e+01,1.100000000000000000e+01,-5.000000000000000000e+00,1.000000000000000000e+00,-8.000000000000000000e+00,0.000000000000000000e+00,0.000000000000000000e+00,-3.772583007812500000e-01,2.008056640625000000e-02,8.143310546875000000e-01,4.404907226562500000e-01
1.000000000000000000e+01,2.300000000000000000e+01,-2.000000000000000000e+00,4.000000000000000000e+00,5.000000000000000000e+00,1.200000000000000000e+01,1.100000000000000000e+01,-1.000000000000000000e+00,-3.772583007812500000e-01,2.008056640625000000e-02,8.143310546875000000e-01,4.404907226562500000e-01
-6.000000000000000000e+00,1.200000000000000000e+01,-2.700000000000000000e+01,-9.000000000000000000e+00,-6.000000000000000000e+00,2.000000000000000000e+00,1.200000000000000000e+01,1.000000000000000000e+00,-3.772583007812500000e-01,2.008056640625000000e-02,8.143310546875000000e-01,4.404907226562500000e-01
9.000000000000000000e+00,-6.000000000000000000e+00,2.200000000000000000e+01,4.000000000000000000e+00,-4.000000000000000000e+00,-1.700000000000000000e+01,-1.000000000000000000e+01,1.000000000000000000e+00,-3.762817382812500000e-01,1.965332031250000000e-02,8.139648437500000000e-01,4.420166015625000000e-01
-1.000000000000000000e+00,-1.100000000000000000e+01,-4.000000000000000000e+00,1.000000000000000000e+00,-5.000000000000000000e+00,4.000000000000000000e+00,2.000000000000000000e+00,-1.000000000000000000e+00,-3.762817382812500000e-01,1.965332031250000000e-02,8.139648437500000000e-01,4.420166015625000000e-01
-4.000000000000000000e+00,-1.600000000000000000e+01,2.500000000000000000e+01,-1.000000000000000000e+00,-2.000000000000000000e+00,-1.000000000000000000e+00,-7.000000000000000000e+00,-2.000000000000000000e+00,-3.754272460937500000e-01,1.898193359375000000e-02,8.134765625000000000e-01,4.437255859375000000e-01
-6.000000000000000000e+00,-1.500000000000000000e+01,-4.500000000000000000e+01,-6.000000000000000000e+00,-5.000000000000000000e+00,-3.000000000000000000e+00,-1.600000000000000000e+01,-5.000000000000000000e+00,-3.754272460937500000e-01,1.898193359375000000e-02,8.134765625000000000e-01,4.437255859375000000e-01
-1.000000000000000000e+00,-2.000000000000000000e+00,1.200000000000000000e+01,2.000000000000000000e+00,1.200000000000000000e+01,-1.000000000000000000e+00,1.100000000000000000e+01,1.000000000000000000e+00,-3.754272460937500000e-01,1.898193359375000000e-02,8.134765625000000000e-01,4.437255859375000000e-01
3.000000000000000000e+00,-9.000000000000000000e+00,-3.200000000000000000e+01,-1.200000000000000000e+01,-6.000000000000000000e+00,5.000000000000000000e+00,-1.700000000000000000e+01,-5.000000000000000000e+00,-3.754272460937500000e-01,1.898193359375000000e-02,8.134765625000000000e-01,4.437255859375000000e-01
1.000000000000000000e+00,-5.000000000000000000e+00,1.600000000000000000e+01,1.000000000000000000e+00,1.000000000000000000e+00,-5.000000000000000000e+00,-7.000000000000000000e+00,1.000000000000000000e+00,-3.745117187500000000e-01,1.812744140625000000e-02,8.130493164062500000e-01,4.453125000000000000e-01
-4.000000000000000000e+00,-9.000000000000000000e+00,-3.900000000000000000e+01,-1.500000000000000000e+01,-2.000000000000000000e+00,2.000000000000000000e+00,-2.000000000000000000e+00,0.000000000000000000e+00,-3.745117187500000000e-01,1.812744140625000000e-02,8.130493164062500000e-01,4.453125000000000000e-01
1.000000000000000000e+00,-4.000000000000000000e+00,2.200000000000000000e+01,6.000000000000000000e+00,2.000000000000000000e+00,0.000000000000000000e+00,-1.000000000000000000e+00,-1.000000000000000000e+00,-3.745117187500000000e-01,1.812744140625000000e-02,8.130493164062500000e-01,4.453125000000000000e-01
0.000000000000000000e+00,-5.000000000000000000e+00,-5.300000000000000000e+01,-2.000000000000000000e+00,9.000000000000000000e+00,-2.000000000000000000e+00,4.000000000000000000e+00,0.000000000000000000e+00,-3.745117187500000000e-01,1.812744140625000000e-02,8.130493164062500000e-01,4.453125000000000000e-01
-6.000000000000000000e+00,-2.000000000000000000e+00,2.900000000000000000e+01,2.600000000000000000e+01,6.000000000000000000e+00,-1.000000000000000000e+00,0.000000000000000000e+00,-2.000000000000000000e+00,-3.734741210937500000e-01,1.727294921875000000e-02,8.124389648437500000e-01,4.473266601562500000e-01
7.000000000000000000e+00,1.000000000000000000e+00,-1.100000000000000000e+01,-1.200000000000000000e+01,-5.000000000000000000e+00,-9.000000000000000000e+00,-1.000000000000000000e+01,0.000000000000000000e+00,-3.734741210937500000e-01,1.727294921875000000e-02,8.124389648437500000e-01,4.473266601562500000e-01
-1.000000000000000000e+00,1.000000000000000000e+00,-1.000000000000000000e+00,1.500000000000000000e+01,1.200000000000000000e+01,1.300000000000000000e+01,-4.000000000000000000e+00,-2.000000000000000000e+00,-3.734741210937500000e-01,1.727294921875000000e-02,8.124389648437500000e-01,4.473266601562500000e-01
-1.000000000000000000e+00,0.000000000000000000e+00,4.700000000000000000e+01,-1.000000000000000000e+00,-4.000000000000000000e+00,0.000000000000000000e+00,3.000000000000000000e+00,-1.000000000000000000e+00,-3.734741210937500000e-01,1.727294921875000000e-02,8.124389648437500000e-01,4.473266601562500000e-01
-1.000000000000000000e+00,-3.000000000000000000e+00,-1.500000000000000000e+01,-5.000000000000000000e+00,-5.000000000000000000e+00,5.000000000000000000e+00,1.100000000000000000e+01,1.000000000000000000e+00,-3.720092773437500000e-01,1.593017578125000000e-02,8.119506835937500000e-01,4.494628906250000000e-01
0.000000000000000000e+00,1.000000000000000000e+00,2.000000000000000000e+01,7.000000000000000000e+00,7.000000000000000000e+00,4.000000000000000000e+00,1.500000000000000000e+01,0.000000000000000000e+00,-3.720092773437500000e-01,1.593017578125000000e-02,8.119506835937500000e-01,4.494628906250000000e-01
-2.000000000000000000e+00,0.000000000000000000e+00,1.100000000000000000e+01,1.200000000000000000e+01,8.000000000000000000e+00,3.000000000000000000e+00,1.100000000000000000e+01,-1.000000000000000000e+00,-3.720092773437500000e-01,1.593017578125000000e-02,8.119506835937500000e-01,4.494628906250000000e-01
-9.000000000000000000e+00,-1.000000000000000000e+01,-2.800000000000000000e+01,-1.000000000000000000e+00,-5.000000000000000000e+00,-5.000000000000000000e+00,-6.000000000000000000e+00,0.000000000000000000e+00,-3.720092773437500000e-01,1.593017578125000000e-02,8.119506835937500000e-01,4.494628906250000000e-01
1.200000000000000000e+01,-4.000000000000000000e+00,-2.100000000000000000e+01,-2.500000000000000000e+01,0.000000000000000000e+00,-9.000000000000000000e+00,-8.000000000000000000e+00,-3.000000000000000000e+00,-3.709106445312500000e-01,1.367187500000000000e-02,8.115234375000000000e-01,4.512939453125000000e-01
1.000000000000000000e+00,1.000000000000000000e+00,2.000000000000000000e+01,4.000000000000000000e+00,-8.000000000000000000e+00,6.000000000000000000e+00,7.000000000000000000e+00,0.000000000000000000e+00,-3.709106445312500000e-01,1.367187500000000000e-02,8.115234375000000000e-01,4.512939453125000000e-01
-1.100000000000000000e+01,5.000000000000000000e+00,-3.200000000000000000e+01,-1.800000000000000000e+01,-3.000000000000000000e+00,-1.300000000000000000e+01,-1.400000000000000000e+01,-3.000000000000000000e+00,-3.709106445312500000e-01,1.367187500000000000e-02,8.115234375000000000e-01,4.512939453125000000e-01
-1.000000000000000000e+00,-6.000000000000000000e+00,2.000000000000000000e+01,2.100000000000000000e+01,8.000000000000000000e+00,6.000000000000000000e+00,7.000000000000000000e+00,2.000000000000000000e+00,-3.709106445312500000e-01,1.367187500000000000e-02,8.115234375000000000e-01,4.512939453125000000e-01
-2.000000000000000000e+00,-2.000000000000000000e+00,4.000000000000000000e+00,3.000000000000000000e+00,0.000000000000000000e+00,6.000000000000000000e+00,1.000000000000000000e+01,3.000000000000000000e+00,-3.703002929687500000e-01,1.202392578125000000e-02,8.109741210937500000e-01,4.527587890625000000e-01
-1.000000000000000000e+00,-1.000000000000000000e+00,3.000000000000000000e+00,6.000000000000000000e+00,3.000000000000000000e+00,-5.000000000000000000e+00,-1.100000000000000000e+01,-1.000000000000000000e+00,-3.703002929687500000e-01,1.202392578125000000e-02,8.109741210937500000e-01,4.527587890625000000e-01
0.000000000000000000e+00,6.000000000000000000e+00,2.200000000000000000e+01,-1.800000000000000000e+01,-1.700000000000000000e+01,-8.000000000000000000e+00,-6.000000000000000000e+00,-2.000000000000000000e+00,-3.703002929687500000e-01,1.202392578125000000e-02,8.109741210937500000e-01,4.527587890625000000e-01
-1.000000000000000000e+00,-3.000000000000000000e+00,8.000000000000000000e+00,3.000000000000000000e+00,-9.000000000000000000e+00,-1.200000000000000000e+01,-2.600000000000000000e+01,-3.000000000000000000e+00,-3.703002929687500000e-01,1.202392578125000000e-02,8.109741210937500000e-01,4.527587890625000000e-01
-5.000000000000000000e+00,6.000000000000000000e+00,2.400000000000000000e+01,5.000000000000000000e+00,2.000000000000000000e+00,0.000000000000000000e+00,-8.000000000000000000e+00,-3.000000000000000000e+00,-3.700561523437500000e-01,1.092529296875000000e-02,8.104248046875000000e-01,4.539794921875000000e-01
1.000000000000000000e+00,-4.000000000000000000e+00,1.200000000000000000e+01,5.000000000000000000e+00,1.100000000000000000e+01,1.200000000000000000e+01,1.500000000000000000e+01,2.000000000000000000e+00,-3.700561523437500000e-01,1.092529296875000000e-02,8.104248046875000000e-01,4.539794921875000000e-01
-3.000000000000000000e+00,1.000000000000000000e+00,-2.000000000000000000e+01,0.000000000000000000e+00,2.000000000000000000e+00,-4.000000000000000000e+00,4.000000000000000000e+00,3.000000000000000000e+00,-3.700561523437500000e-01,1.092529296875000000e-02,8.104248046875000000e-01,4.539794921875000000e-01
0.000000000000000000e+00,-9.000000000000000000e+00,-7.300000000000000000e+01,-4.700000000000000000e+01,-9.000000000000000000e+00,-1.000000000000000000e+00,-1.800000000000000000e+01,-5.000000000000000000e+00,-3.700561523437500000e-01,1.092529296875000000e-02,8.104248046875000000e-01,4.539794921875000000e-01
-5.000000000000000000e+00,-1.000000000000000000e+00,0.000000000000000000e+00,-1.000000000000000000e+01,-1.400000000000000000e+01,-8.000000000000000000e+00,-8.000000000000000000e+00,-5.000000000000000000e+00,-3.696899414062500000e-01,1.049804687500000000e-02,8.100585937500000000e-01,4.549560546875000000e-01
0.000000000000000000e+00,-2.000000000000000000e+00,4.000000000000000000e+00,-9.000000000000000000e+00,-1.000000000000000000e+00,-6.000000000000000000e+00,-9.000000000000000000e+00,-1.000000000000000000e+00,-3.696899414062500000e-01,1.049804687500000000e-02,8.100585937500000000e-01,4.549560546875000000e-01
0.000000000000000000e+00,-4.000000000000000000e+00,-4.000000000000000000e+00,1.400000000000000000e+01,7.000000000000000000e+00,-4.000000000000000000e+00,4.000000000000000000e+00,3.000000000000000000e+00,-3.696899414062500000e-01,1.049804687500000000e-02,8.100585937500000000e-01,4.549560546875000000e-01
1.000000000000000000e+00,5.000000000000000000e+00,2.800000000000000000e+01,1.700000000000000000e+01,5.000000000000000000e+00,5.000000000000000000e+00,-2.200000000000000000e+01,-4.000000000000000000e+00,-3.696899414062500000e-01,1.049804687500000000e-02,8.100585937500000000e-01,4.549560546875000000e-01
1.000000000000000000e+00,-1.000000000000000000e+00,-6.000000000000000000e+00,-1.500000000000000000e+01,-5.000000000000000000e+00,-2.000000000000000000e+00,1.200000000000000000e+01,0.000000000000000000e+00,-3.693847656250000000e-01,1.037597656250000000e-02,8.097534179687500000e-01,4.557495117187500000e-01
-2.000000000000000000e+00,-7.000000000000000000e+00,-1.300000000000000000e+01,-8.000000000000000000e+00,0.000000000000000000e+00,-1.000000000000000000e+00,-9.000000000000000000e+00,-3.000000000000000000e+00,-3.693847656250000000e-01,1.037597656250000000e-02,8.097534179687500000e-01,4.557495117187500000e-01
1.000000000000000000e+01,1.000000000000000000e+00,3.400000000000000000e+01,1.000000000000000000e+01,-1.000000000000000000e+01,-1.000000000000000000e+01,-2.300000000000000000e+01,-3.000000000000000000e+00,-3.693847656250000000e-01,1.037597656250000000e-02,8.097534179687500000e-01,4.557495117187500000e-01
3.000000000000000000e+00,0.000000000000000000e+00,-7.000000000000000000e+00,-1.000000000000000000e+00,1.000000000000000000e+00,7.000000000000000000e+00,2.600000000000000000e+01,-1.000000000000000000e+00,-3.693847656250000000e-01,1.037597656250000000e-02,8.097534179687500000e-01,4.557495117187500000e-01
-4.000000000000000000e+00,-4.000000000000000000e+00,-1.000000000000000000e+01,-2.000000000000000000e+00,2.000000000000000000e+00,-1.000000000000000000e+00,-5.000000000000000000e+00,2.000000000000000000e+00,-3.691406250000000000e-01,1.049804687500000000e-02,8.094482421875000000e-01,4.564208984375000000e-01
-1.000000000000000000e+00,6.000000000000000000e+00,-1.000000000000000000e+00,5.000000000000000000e+00,-1.000000000000000000e+00,8.000000000000000000e+00,1.000000000000000000e+01,-2.000000000000000000e+00,-3.691406250000000000e-01,1.049804687500000000e-02,8.094482421875000000e-01,4.564208984375000000e-01
-3.000000000000000000e+00,-3.000000000000000000e+00,7.400000000000000000e+01,3.800000000000000000e+01,1.000000000000000000e+00,-8.000000000000000000e+00,-7.000000000000000000e+00,0.000000000000000000e+00,-3.691406250000000000e-01,1.049804687500000000e-02,8.094482421875000000e-01,4.564208984375000000e-01
1.000000000000000000e+00,8.000000000000000000e+00,4.400000000000000000e+01,3.000000000000000000e+00,-2.000000000000000000e+00,-6.000000000000000000e+00,-4.000000000000000000e+00,-3.000000000000000000e+00,-3.691406250000000000e-01,1.049804687500000000e-02,8.094482421875000000e-01,4.564208984375000000e-01
-2.000000000000000000e+00,-3.000000000000000000e+00,-2.400000000000000000e+01,-7.000000000000000000e+00,0.000000000000000000e+00,1.200000000000000000e+01,3.900000000000000000e+01,2.000000000000000000e+00,-3.687133789062500000e-01,1.074218750000000000e-02,8.092041015625000000e-01,4.571533203125000000e-01
1.000000000000000000e+00,-1.000000000000000000e+00,-1.700000000000000000e+01,-1.000000000000000000e+01,1.000000000000000000e+00,-1.000000000000000000e+00,1.000000000000000000e+00,2.000000000000000000e+00,-3.687133789062500000e-01,1.074218750000000000e-02,8.092041015625000000e-01,4.571533203125000000e-01
-3.000000000000000000e+00,-6.000000000000000000e+00,-2.800000000000000000e+01,-1.600000000000000000e+01,-6.000000000000000000e+00,5.000000000000000000e+00,1.200000000000000000e+01,1.000000000000000000e+00,-3.687133789062500000e-01,1.074218750000000000e-02,8.092041015625000000e-01,4.571533203125000000e-01
-1.000000000000000000e+00,3.000000000000000000e+00,2.600000000000000000e+01,1.100000000000000000e+01,5.000000000000000000e+00,-5.000000000000000000e+00,-4.000000000000000000e+00,-2.000000000000000000e+00,-3.687133789062500000e-01,1.074218750000000000e-02,8.092041015625000000e-01,4.571533203125000000e-01
-3.000000000000000000e+00,-6.000000000000000000e+00,-4.600000000000000000e+01,-9.000000000000000000e+00,-1.700000000000000000e+01,-1.500000000000000000e+01,-1.700000000000000000e+01,-1.000000000000000000e+00,-3.681640625000000000e-01,1.080322265625000000e-02,8.088989257812500000e-01,4.581909179687500000e-01
-2.000000000000000000e+00,1.000000000000000000e+00,3.300000000000000000e+01,8.000000000000000000e+00,1.400000000000000000e+01,-3.000000000000000000e+00,-1.700000000000000000e+01,-4.000000000000000000e+00,-3.681640625000000000e-01,1.080322265625000000e-02,8.088989257812500000e-01,4.581909179687500000e-01
-1.000000000000000000e+00,5.000000000000000000e+00,-2.900000000000000000e+01,-4.000000000000000000e+00,5.000000000000000000e+00,6.000000000000000000e+00,1.000000000000000000e+01,-1.000000000000000000e+00,-3.681640625000000000e-01,1.080322265625000000e-02,8.088989257812500000e-01,4.581909179687500000e-01
0.000000000000000000e+00,-8.000000000000000000e+00,-1.000000000000000000e+00,-1.200000000000000000e+01,-7.000000000000000000e+00,-5.000000000000000000e+00,6.000000000000000000e+00,1.000000000000000000e+00,-3.681640625000000000e-01,1.080322265625000000e-02,8.088989257812500000e-01,4.581909179687500000e-01
0.000000000000000000e+00,-6.000000000000000000e+00,-1.500000000000000000e+01,2.000000000000000000e+00,-1.000000000000000000e+00,-5.000000000000000000e+00,-2.100000000000000000e+01,0.000000000000000000e+00,-3.673095703125000000e-01,1.074218750000000000e-02,8.085937500000000000e-01,4.594726562500000000e-01
-2.000000000000000000e+00,-3.000000000000000000e+00,-2.000000000000000000e+00,3.000000000000000000e+00,-7.000000000000000000e+00,4.000000000000000000e+00,1.700000000000000000e+01,3.000000000000000000e+00,-3.673095703125000000e-01,1.074218750000000000e-02,8.085937500000000000e-01,4.594726562500000000e-01
-3.000000000000000000e+00,-4.000000000000000000e+00,-2.300000000000000000e+01,-2.400000000000000000e+01,-5.000000000000000000e+00,-1.000000000000000000e+00,-2.400000000000000000e+01,-4.000000000000000000e+00,-3.673095703125000000e-01,1.074218750000000000e-02,8.085937500000000000e-01,4.594726562500000000e-01
4.000000000000000000e+00,9.000000000000000000e+00,5.900000000000000000e+01,2.900000000000000000e+01,7.000000000000000000e+00,-2.000000000000000000e+00,2.100000000000000000e+01,0.000000000000000000e+00,-3.673095703125000000e-01,1.074218750000000000e-02,8.085937500000000000e-01,4.594726562500000000e-01
-3.000000000000000000e+00,-2.000000000000000000e+00,1.500000000000000000e+01,-2.000000000000000000e+00,1.000000000000000000e+00,-2.000000000000000000e+00,-8.000000000000000000e+00,-2.000000000000000000e+00,-3.662109375000000000e-01,1.116943359375000000e-02,8.081665039062500000e-01,4.610595703125000000e-01
-2.000000000000000000e+00,-8.000000000000000000e+00,-4.000000000000000000e+00,-1.000000000000000000e+00,1.000000000000000000e+00,1.100000000000000000e+01,1.500000000000000000e+01,1.000000000000000000e+00,-3.662109375000000000e-01,1.116943359375000000e-02,8.081665039062500000e-01,4.610595703125000000e-01
-3.000000000000000000e+00,3.000000000000000000e+00,3.800000000000000000e+01,2.000000000000000000e+00,-1.000000000000000000e+00,-4.000000000000000000e+00,-8.000000000000000000e+00,-4.000000000000000000e+00,-3.662109375000000000e-01,1.116943359375000000e-02,8.081665039062500000e-01,4.610595703125000000e-01
-3.000000000000000000e+00,-7.000000000000000000e+00,-3.700000000000000000e+01,-4.000000000000000000e+00,-5.000000000000000000e+00,4.000000000000000000e+00,2.100000000000000000e+01,4.000000000000000000e+00,-3.662109375000000000e-01,1.116943359375000000e-02,8.081665039062500000e-01,4.610595703125000000e-01
2.000000000000000000e+00,2.000000000000000000e+00,1.800000000000000000e+01,1.700000000000000000e+01,6.000000000000000000e+00,-2.000000000000000000e+00,-2.600000000000000000e+01,-2.000000000000000000e+00,-3.651733398437500000e-01,1.141357421875000000e-02,8.078613281250000000e-01,4.624633789062500000e-01
1.000000000000000000e+00,1.000000000000000000e+00,-1.100000000000000000e+01,-5.000000000000000000e+00,-4.000000000000000000e+00,2.000000000000000000e+00,-1.000000000000000000e+00,-3.000000000000000000e+00,-3.651733398437500000e-01,1.141357421875000000e-02,8.078613281250000000e-01,4.624633789062500000e-01
-5.000000000000000000e+00,-6.000000000000000000e+00,4.000000000000000000e+00,-7.000000000000000000e+00,-6.000000000000000000e+00,-1.000000000000000000e+00,3.200000000000000000e+01,4.000000000000000000e+00,-3.651733398437500000e-01,1.141357421875000000e-02,8.078613281250000000e-01,4.624633789062500000e-01
4.000000000000000000e+00,1.000000000000000000e+00,7.000000000000000000e+00,6.000000000000000000e+00,6.000000000000000000e+00,7.000000000000000000e+00,9.000000000000000000e+00,2.000000000000000000e+00,-3.651733398437500000e-01,1.141357421875000000e-02,8.078613281250000000e-01,4.624633789062500000e-01
0.000000000000000000e+00,2.000000000000000000e+00,0.000000000000000000e+00,5.000000000000000000e+00,1.000000000000000000e+01,4.000000000000000000e+00,7.000000000000000000e+00,1.000000000000000000e+00,-3.644409179687500000e-01,1.184082031250000000e-02,8.075561523437500000e-01,4.634399414062500000e-01
-2.000000000000000000e+00,-3.000000000000000000e+00,-1.400000000000000000e+01,3.000000000000000000e+00,0.000000000000000000e+00,-5.000000000000000000e+00,-1.800000000000000000e+01,-2.000000000000000000e+00,-3.644409179687500000e-01,1.184082031250000000e-02,8.075561523437500000e-01,4.634399414062500000e-01
0.000000000000000000e+00,-4.000000000000000000e+00,-4.100000000000000000e+01,-2.600000000000000000e+01,-4.000000000000000000e+00,3.000000000000000000e+00,2.000000000000000000e+00,-2.000000000000000000e+00,-3.644409179687500000e-01,1.184082031250000000e-02,8.075561523437500000e-01,4.634399414062500000e-01
-4.000000000000000000e+00,-2.000000000000000000e+00,-1.900000000000000000e+01,9.000000000000000000e+00,5.000000000000000000e+00,1.000000000000000000e+00,-6.000000000000000000e+00,-2.000000000000000000e+00,-3.644409179687500000e-01,1.184082031250000000e-02,8.075561523437500000e-01,4.634399414062500000e-01
-3.000000000000000000e+00,2.000000000000000000e+00,-2.000000000000000000e+00,-7.000000000000000000e+00,-5.000000000000000000e+00,-2.000000000000000000e+00,-1.000000000000000000e+00,-1.000000000000000000e+00,-3.640747070312500000e-01,1.208496093750000000e-02,8.073730468750000000e-01,4.641113281250000000e-01
-5.000000000000000000e+00,5.000000000000000000e+00,5.200000000000000000e+01,4.000000000000000000e+00,-1.100000000000000000e+01,-1.200000000000000000e+01,-1.400000000000000000e+01,-5.000000000000000000e+00,-3.640747070312500000e-01,1.208496093750000000e-02,8.073730468750000000e-01,4.641113281250000000e-01
-2.000000000000000000e+00,-4.000000000000000000e+00,-7.400000000000000000e+01,-1.200000000000000000e+01,2.000000000000000000e+00,1.000000000000000000e+00,-1.000000000000000000e+01,0.000000000000000000e+00,-3.640747070312500000e-01,1.208496093750000000e-02,8.073730468750000000e-01,4.641113281250000000e-01
-4.000000000000000000e+00,-3.000000000000000000e+00,-1.000000000000000000e+01,0.000000000000000000e+00,-5.000000000000000000e+00,-6.000000000000000000e+00,-2.000000000000000000e+00,-3.000000000000000000e+00,-3.640747070312500000e-01,1.208496093750000000e-02,8.073730468750000000e-01,4.641113281250000000e-01
3.000000000000000000e+00,1.300000000000000000e+01,1.900000000000000000e+01,-1.000000000000000000e+00,-1.000000000000000000e+00,0.000000000000000000e+00,-2.000000000000000000e+01,-1.000000000000000000e+00,-3.636474609375000000e-01,1.220703125000000000e-02,8.071899414062500000e-01,4.647216796875000000e-01
-2.000000000000000000e+00,-2.000000000000000000e+00,-6.100000000000000000e+01,-1.500000000000000000e+01,0.000000000000000000e+00,0.000000000000000000e+00,1.100000000000000000e+01,3.000000000000000000e+00,-3.636474609375000000e-01,1.220703125000000000e-02,8.071899414062500000e-01,4.647216796875000000e-01
1.000000000000000000e+00,-4.000000000000000000e+00,1.500000000000000000e+01,2.000000000000000000e+00,-1.300000000000000000e+01,-5.000000000000000000e+00,-3.000000000000000000e+00,-3.000000000000000000e+00,-3.636474609375000000e-01,1.220703125000000000e-02,8.071899414062500000e-01,4.647216796875000000e-01
-2.000000000000000000e+00,-8.000000000000000000e+00,-1.000000000000000000e+00,-1.000000000000000000e+01,2.000000000000000000e+00,2.000000000000000000e+00,-7.000000000000000000e+00,-2.000000000000000000e+00,-3.636474609375000000e-01,1.220703125000000000e-02,8.071899414062500000e-01,4.647216796875000000e-01
0.000000000000000000e+00,-6.000000000000000000e+00,-7.000000000000000000e+00,-9.000000000000000000e+00,0.000000000000000000e+00,-4.000000000000000000e+00,4.000000000000000000e+00,1.000000000000000000e+00,-3.632202148437500000e-01,1.226806640625000000e-02,8.069458007812500000e-01,4.654541015625000000e-01
-2.000000000000000000e+00,4.000000000000000000e+00,2.400000000000000000e+01,1.100000000000000000e+01,-4.000000000000000000e+00,-1.600000000000000000e+01,-1.700000000000000000e+01,-5.000000000000000000e+00,-3.632202148437500000e-01,1.226806640625000000e-02,8.069458007812500000e-01,4.654541015625000000e-01
-3.000000000000000000e+00,1.000000000000000000e+01,3.400000000000000000e+01,2.500000000000000000e+01,1.200000000000000000e+01,2.800000000000000000e+01,3.700000000000000000e+01,7.000000000000000000e+00,-3.632202148437500000e-01,1.226806640625000000e-02,8.069458007812500000e-01,4.654541015625000000e-01
7.000000000000000000e+00,-5.000000000000000000e+00,-4.200000000000000000e+01,-2.500000000000000000e+01,-9.000000000000000000e+00,-3.000000000000000000e+00,-2.000000000000000000e+01,-4.000000000000000000e+00,-3.632202148437500000e-01,1.226806640625000000e-02,8.069458007812500000e-01,4.654541015625000000e-01
1.100000000000000000e+01,-1.000000000000000000e+00,1.400000000000000000e+01,7.000000000000000000e+00,1.000000000000000000e+00,-3.000000000000000000e+00,1.400000000000000000e+01,0.000000000000000000e+00,-3.628540039062500000e-01,1.251220703125000000e-02,8.068847656250000000e-01,4.659423828125000000e-01
-1.900000000000000000e+01,-1.000000000000000000e+00,2.000000000000000000e+00,2.000000000000000000e+00,-3.000000000000000000e+00,-4.000000000000000000e+00,-8.000000000000000000e+00,-3.000000000000000000e+00,-3.628540039062500000e-01,1.251220703125000000e-02,8.068847656250000000e-01,4.659423828125000000e-01
-3.000000000000000000e+00,1.000000000000000000e+00,-9.000000000000000000e+00,0.000000000000000000e+00,-2.000000000000000000e+00,-1.300000000000000000e+01,-1.000000000000000000e+01,-5.000000000000000000e+00,-3.628540039062500000e-01,1.251220703125000000e-02,8.068847656250000000e-01,4.659423828125000000e-01
-4.000000000000000000e+00,4.000000000000000000e+00,6.000000000000000000e+00,-2.000000000000000000e+00,-7.000000000000000000e+00,-3.000000000000000000e+00,5.000000000000000000e+00,0.000000000000000000e+00,-3.628540039062500000e-01,1.251220703125000000e-02,8.068847656250000000e-01,4.659423828125000000e-01
1.000000000000000000e+00,-1.000000000000000000e+00,1.200000000000000000e+01,1.000000000000000000e+01,2.000000000000000000e+00,2.000000000000000000e+00,3.000000000000000000e+00,-2.000000000000000000e+00,-3.624267578125000000e-01,1.293945312500000000e-02,8.068847656250000000e-01,4.661865234375000000e-01
7.000000000000000000e+00,0.000000000000000000e+00,-9.000000000000000000e+00,-1.600000000000000000e+01,2.000000000000000000e+00,-5.000000000000000000e+00,-2.100000000000000000e+01,-3.000000000000000000e+00,-3.624267578125000000e-01,1.293945312500000000e-02,8.068847656250000000e-01,4.661865234375000000e-01
-5.000000000000000000e+00,-1.000000000000000000e+00,4.100000000000000000e+01,2.300000000000000000e+01,2.000000000000000000e+00,4.000000000000000000e+00,-5.000000000000000000e+00,-3.000000000000000000e+00,-3.624267578125000000e-01,1.293945312500000000e-02,8.068847656250000000e-01,4.661865234375000000e-01
-5.000000000000000000e+00,-8.000000000000000000e+00,-4.100000000000000000e+01,-3.000000000000000000e+00,-6.000000000000000000e+00,-5.000000000000000000e+00,-1.000000000000000000e+00,-1.000000000000000000e+00,-3.624267578125000000e-01,1.293945312500000000e-02,8.068847656250000000e-01,4.661865234375000000e-01
-7.000000000000000000e+00,-3.000000000000000000e+00,2.000000000000000000e+00,-2.600000000000000000e+01,-1.300000000000000000e+01,-1.100000000000000000e+01,-9.000000000000000000e+00,-4.000000000000000000e+00,-3.622436523437500000e-01,1.306152343750000000e-02,8.070068359375000000e-01,4.661254882812500000e-01
2.000000000000000000e+00,-1.000000000000000000e+00,-1.300000000000000000e+01,2.000000000000000000e+01,0.000000000000000000e+00,1.000000000000000000e+01,2.700000000000000000e+01,2.000000000000000000e+00,-3.622436523437500000e-01,1.306152343750000000e-02,8.070068359375000000e-01,4.661254882812500000e-01
1.000000000000000000e+00,-4.000000000000000000e+00,-4.000000000000000000e+00,1.000000000000000000e+00,2.200000000000000000e+01,1.600000000000000000e+01,6.000000000000000000e+00,2.000000000000000000e+00,-3.622436523437500000e-01,1.306152343750000000e-02,8.070068359375000000e-01,4.661254882812500000e-01
4.000000000000000000e+00,-1.000000000000000000e+00,1.700000000000000000e+01,3.000000000000000000e+00,-4.000000000000000000e+00,-8.000000000000000000e+00,-9.000000000000000000e+00,1.000000000000000000e+00,-3.622436523437500000e-01,1.306152343750000000e-02,8.070068359375000000e-01,4.661254882812500000e-01
-5.000000000000000000e+00,-4.000000000000000000e+00,7.000000000000000000e+00,6.000000000000000000e+00,9.000000000000000000e+00,1.000000000000000000e+01,1.400000000000000000e+01,-1.000000000000000000e+00,-3.616943359375000000e-01,1.336669921875000000e-02,8.071899414062500000e-01,4.662475585937500000e-01
2.000000000000000000e+00,0.000000000000000000e+00,2.900000000000000000e+01,2.000000000000000000e+00,-7.000000000000000000e+00,0.000000000000000000e+00,6.000000000000000000e+00,-1.000000000000000000e+00,-3.616943359375000000e-01,1.336669921875000000e-02,8.071899414062500000e-01,4.662475585937500000e-01
3.000000000000000000e+00,-5.000000000000000000e+00,-5.000000000000000000e+01,-1.700000000000000000e+01,-7.000000000000000000e+00,-9.000000000000000000e+00,-1.000000000000000000e+01,-3.000000000000000000e+00,-3.616943359375000000e-01,1.336669921875000000e-02,8.071899414062500000e-01,4.662475585937500000e-01
0.000000000000000000e+00,0.000000000000000000e+00,6.000000000000000000e+00,0.000000000000000000e+00,1.000000000000000000e+00,-3.000000000000000000e+00,3.000000000000000000e+00,-2.000000000000000000e+00,-3.616943359375000000e-01,1.336669921875000000e-02,8.071899414062500000e-01,4.662475585937500000e-01
-1.000000000000000000e+00,-4.000000000000000000e+00,-1.100000000000000000e+01,5.000000000000000000e+00,5.000000000000000000e+00,3.000000000000000000e+00,9.000000000000000000e+00,2.000000000000000000e+00,-3.609008789062500000e-01,1.373291015625000000e-02,8.073120117187500000e-01,4.666137695312500000e-01
0.000000000000000000e+00,5.000000000000000000e+00,-1.200000000000000000e+01,-1.100000000000000000e+01,-6.000000000000000000e+00,-1.100000000000000000e+01,-3.600000000000000000e+01,-7.000000000000000000e+00,-3.609008789062500000e-01,1.373291015625000000e-02,8.073120117187500000e-01,4.666137695312500000e-01
0.000000000000000000e+00,-3.000000000000000000e+00,2.900000000000000000e+01,1.000000000000000000e+01,-6.000000000000000000e+00,1.000000000000000000e+01,1.500000000000000000e+01,0.000000000000000000e+00,-3.609008789062500000e-01,1.373291015625000000e-02,8.073120117187500000e-01,4.666137695312500000e-01
-4.000000000000000000e+00,-1.100000000000000000e+01,1.300000000000000000e+01,1.000000000000000000e+00,-2.000000000000000000e+00,-4.000000000000000000e+00,2.800000000000000000e+01,2.000000000000000000e+00,-3.609008789062500000e-01,1.373291015625000000e-02,8.073120117187500000e-01,4.666137695312500000e-01
-8.000000000000000000e+00,6.000000000000000000e+00,-2.000000000000000000e+00,-1.000000000000000000e+00,2.000000000000000000e+00,4.000000000000000000e+00,1.600000000000000000e+01,-2.000000000000000000e+00,-3.601074218750000000e-01,1.409912109375000000e-02,8.075561523437500000e-01,4.669189453125000000e-01
1.200000000000000000e+01,-8.000000000000000000e+00,-2.100000000000000000e+01,-9.000000000000000000e+00,-9.000000000000000000e+00,-8.000000000000000000e+00,-1.700000000000000000e+01,-1.000000000000000000e+00,-3.601074218750000000e-01,1.409912109375000000e-02,8.075561523437500000e-01,4.669189453125000000e-01
1.000000000000000000e+00,2.000000000000000000e+00,-9.000000000000000000e+00,-7.000000000000000000e+00,-3.000000000000000000e+00,-4.000000000000000000e+00,-1.000000000000000000e+00,-3.000000000000000000e+00,-3.601074218750000000e-01,1.409912109375000000e-02,8.075561523437500000e-01,4.669189453125000000e-01
0.000000000000000000e+00,6.000000000000000000e+00,1.400000000000000000e+01,2.000000000000000000e+00,1.000000000000000000e+01,1.000000000000000000e+00,-1.500000000000000000e+01,-3.000000000000000000e+00,-3.601074218750000000e-01,1.409912109375000000e-02,8.075561523437500000e-01,4.669189453125000000e-01
-1.000000000000000000e+00,-4.000000000000000000e+00,6.000000000000000000e+00,4.000000000000000000e+00,-4.000000000000000000e+00,-3.000000000000000000e+00,-7.000000000000000000e+00,0.000000000000000000e+00,-3.594970703125000000e-01,1.428222656250000000e-02,8.076171875000000000e-01,4.672241210937500000e-01
-1.200000000000000000e+01,0.000000000000000000e+00,2.400000000000000000e+01,-5.000000000000000000e+00,-6.000000000000000000e+00,6.000000000000000000e+00,1.300000000000000000e+01,-1.000000000000000000e+00,-3.594970703125000000e-01,1.428222656250000000e-02,8.076171875000000000e-01,4.672241210937500000e-01
4.000000000000000000e+00,3.000000000000000000e+00,4.000000000000000000e+00,1.100000000000000000e+01,-2.000000000000000000e+00,-8.000000000000000000e+00,-1.700000000000000000e+01,0.000000000000000000e+00,-3.594970703125000000e-01,1.428222656250000000e-02,8.076171875000000000e-01,4.672241210937500000e-01
-2.000000000000000000e+00,-7.000000000000000000e+00,-3.100000000000000000e+01,-1.800000000000000000e+01,-4.000000000000000000e+00,8.000000000000000000e+00,2.500000000000000000e+01,1.000000000000000000e+00,-3.594970703125000000e-01,1.428222656250000000e-02,8.076171875000000000e-01,4.672241210937500000e-01
-2.000000000000000000e+00,-1.000000000000000000e+00,-1.700000000000000000e+01,-1.000000000000000000e+01,-1.000000000000000000e+00,-4.000000000000000000e+00,-7.000000000000000000e+00,-2.000000000000000000e+00,-3.591918945312500000e-01,1.428222656250000000e-02,8.075561523437500000e-01,4.675292968750000000e-01
1.000000000000000000e+00,-2.000000000000000000e+00,5.000000000000000000e+00,7.000000000000000000e+00,8.000000000000000000e+00,3.000000000000000000e+00,4.000000000000000000e+00,2.000000000000000000e+00,-3.591918945312500000e-01,1.428222656250000000e-02,8.075561523437500000e-01,4.675292968750000000e-01
-6.000000000000000000e+00,0.000000000000000000e+00,3.000000000000000000e+00,3.000000000000000000e+00,-4.000000000000000000e+00,-8.000000000000000000e+00,-1.000000000000000000e+01,-3.000000000000000000e+00,-3.591918945312500000e-01,1.428222656250000000e-02,8.075561523437500000e-01,4.675292968750000000e-01
-2.000000000000000000e+00,5.000000000000000000e+00,1.200000000000000000e+01,-6.000000000000000000e+00,0.000000000000000000e+00,2.000000000000000000e+00,-4.000000000000000000e+00,2.000000000000000000e+00,-3.591918945312500000e-01,1.428222656250000000e-02,8.075561523437500000e-01,4.675292968750000000e-01
0.000000000000000000e+00,-4.000000000000000000e+00,1.600000000000000000e+01,1.300000000000000000e+01,-5.000000000000000000e+00,-2.000000000000000000e+00,0.000000000000000000e+00,-1.000000000000000000e+00,-3.588256835937500000e-01,1.428222656250000000e-02,8.074340820312500000e-01,4.680786132812500000e-01
-8.000000000000000000e+00,-4.000000000000000000e+00,8.000000000000000000e+00,-3.000000000000000000e+00,-1.500000000000000000e+01,-9.000000000000000000e+00,-3.000000000000000000e+00,-4.000000000000000000e+00,-3.588256835937500000e-01,1.428222656250000000e-02,8.074340820312500000e-01,4.680786132812500000e-01
2.000000000000000000e+00,3.000000000000000000e+00,3.700000000000000000e+01,2.900000000000000000e+01,5.000000000000000000e+00,-3.000000000000000000e+00,-1.000000000000000000e+01,-4.000000000000000000e+00,-3.588256835937500000e-01,1.428222656250000000e-02,8.074340820312500000e-01,4.680786132812500000e-01
-2.000000000000000000e+00,3.000000000000000000e+00,-8.000000000000000000e+00,8.000000000000000000e+00,3.000000000000000000e+00,-5.000000000000000000e+00,-5.000000000000000000e+00,0.000000000000000000e+00,-3.588256835937500000e-01,1.428222656250000000e-02,8.074340820312500000e-01,4.680786132812500000e-01
0.000000000000000000e+00,0.000000000000000000e+00,-1.100000000000000000e+01,2.000000000000000000e+00,5.000000000000000000e+00,1.100000000000000000e+01,3.800000000000000000e+01,5.000000000000000000e+00,-3.583984375000000000e-01,1.440429687500000000e-02,8.072509765625000000e-01,4.686279296875000000e-01
0.000000000000000000e+00,-6.000000000000000000e+00,-2.000000000000000000e+00,-1.000000000000000000e+01,-1.000000000000000000e+01,-1.700000000000000000e+01,-3.800000000000000000e+01,-7.000000000000000000e+00,-3.583984375000000000e-01,1.440429687500000000e-02,8.072509765625000000e-01,4.686279296875000000e-01
-1.000000000000000000e+00,-3.000000000000000000e+00,-2.200000000000000000e+01,-2.100000000000000000e+01,-6.000000000000000000e+00,6.000000000000000000e+00,5.000000000000000000e+00,-2.000000000000000000e+00,-3.583984375000000000e-01,1.440429687500000000e-02,8.072509765625000000e-01,4.686279296875000000e-01
4.000000000000000000e+00,1.000000000000000000e+01,4.600000000000000000e+01,1.400000000000000000e+01,9.000000000000000000e+00,1.000000000000000000e+00,5.000000000000000000e+00,1.000000000000000000e+00,-3.583984375000000000e-01,1.440429687500000000e-02,8.072509765625000000e-01,4.686279296875000000e-01
1.200000000000000000e+01,-3.000000000000000000e+00,-3.000000000000000000e+00,2.000000000000000000e+00,-2.000000000000000000e+00,1.000000000000000000e+01,1.200000000000000000e+01,2.000000000000000000e+00,-3.579711914062500000e-01,1.446533203125000000e-02,8.071289062500000000e-01,4.691772460937500000e-01
-1.000000000000000000e+00,-4.000000000000000000e+00,-1.200000000000000000e+01,2.000000000000000000e+00,7.000000000000000000e+00,5.000000000000000000e+00,1.100000000000000000e+01,0.000000000000000000e+00,-3.579711914062500000e-01,1.446533203125000000e-02,8.071289062500000000e-01,4.691772460937500000e-01
2.000000000000000000e+00,-2.000000000000000000e+00,-5.000000000000000000e+00,-1.300000000000000000e+01,-6.000000000000000000e+00,-7.000000000000000000e+00,-1.200000000000000000e+01,0.000000000000000000e+00,-3.579711914062500000e-01,1.446533203125000000e-02,8.071289062500000000e-01,4.691772460937500000e-01
-2.000000000000000000e+00,0.000000000000000000e+00,1.100000000000000000e+01,5.000000000000000000e+00,-5.000000000000000000e+00,-4.000000000000000000e+00,-1.000000000000000000e+00,-1.000000000000000000e+00,-3.579711914062500000e-01,1.446533203125000000e-02,8.071289062500000000e-01,4.691772460937500000e-01
2.000000000000000000e+00,1.000000000000000000e+00,-1.200000000000000000e+01,6.000000000000000000e+00,7.000000000000000000e+00,-3.000000000000000000e+00,-1.800000000000000000e+01,-3.000000000000000000e+00,-3.577880859375000000e-01,1.422119140625000000e-02,8.069458007812500000e-01,4.696044921875000000e-01
1.000000000000000000e+00,-3.000000000000000000e+00,-1.200000000000000000e+01,-3.000000000000000000e+00,9.000000000000000000e+00,5.000000000000000000e+00,7.000000000000000000e+00,2.000000000000000000e+00,-3.577880859375000000e-01,1.422119140625000000e-02,8.069458007812500000e-01,4.696044921875000000e-01
-2.000000000000000000e+00,-3.000000000000000000e+00,-6.000000000000000000e+00,0.000000000000000000e+00,-2.000000000000000000e+00,-5.000000000000000000e+00,-2.100000000000000000e+01,-2.000000000000000000e+00,-3.577880859375000000e-01,1.422119140625000000e-02,8.069458007812500000e-01,4.696044921875000000e-01
0.000000000000000000e+00,-2.000000000000000000e+00,2.200000000000000000e+01,3.000000000000000000e+00,-3.000000000000000000e+00,3.000000000000000000e+00,2.400000000000000000e+01,2.000000000000000000e+00,-3.577880859375000000e-01,1.422119140625000000e-02,8.069458007812500000e-01,4.696044921875000000e-01
-1.000000000000000000e+00,-6.000000000000000000e+00,-2.900000000000000000e+01,-1.100000000000000000e+01,2.000000000000000000e+00,-1.000000000000000000e+01,-3.300000000000000000e+01,-3.000000000000000000e+00,-3.577270507812500000e-01,1.373291015625000000e-02,8.068237304687500000e-01,4.698486328125000000e-01
-4.000000000000000000e+00,-2.000000000000000000e+00,-3.000000000000000000e+01,-1.000000000000000000e+00,3.000000000000000000e+00,9.000000000000000000e+00,9.000000000000000000e+00,2.000000000000000000e+00,-3.577270507812500000e-01,1.373291015625000000e-02,8.068237304687500000e-01,4.698486328125000000e-01
0.000000000000000000e+00,0.000000000000000000e+00,2.500000000000000000e+01,0.000000000000000000e+00,-1.000000000000000000e+00,0.000000000000000000e+00,1.100000000000000000e+01,2.000000000000000000e+00,-3.577270507812500000e-01,1.373291015625000000e-02,8.068237304687500000e-01,4.698486328125000000e-01
-3.000000000000000000e+00,2.000000000000000000e+00,-5.000000000000000000e+00,-3.000000000000000000e+00,-1.000000000000000000e+00,4.000000000000000000e+00,-1.300000000000000000e+01,-4.000000000000000000e+00,-3.577270507812500000e-01,1.373291015625000000e-02,8.068237304687500000e-01,4.698486328125000000e-01
-5.000000000000000000e+00,-5.000000000000000000e+00,1.100000000000000000e+01,1.000000000000000000e+00,-7.000000000000000000e+00,-8.000000000000000000e+00,-4.000000000000000000e+00,-4.000000000000000000e+00,-3.579711914062500000e-01,1.306152343750000000e-02,8.065795898437500000e-01,4.701538085937500000e-01
3.000000000000000000e+00,2.000000000000000000e+00,-6.000000000000000000e+00,-1.900000000000000000e+01,-2.000000000000000000e+00,0.000000000000000000e+00,1.000000000000000000e+01,0.000000000000000000e+00,-3.579711914062500000e-01,1.306152343750000000e-02,8.065795898437500000e-01,4.701538085937500000e-01
-3.000000000000000000e+00,-1.000000000000000000e+00,-2.000000000000000000e+00,1.000000000000000000e+00,-2.000000000000000000e+00,2.000000000000000000e+00,4.000000000000000000e+00,-4.000000000000000000e+00,-3.579711914062500000e-01,1.306152343750000000e-02,8.065795898437500000e-01,4.701538085937500000e-01
-1.000000000000000000e+00,-7.000000000000000000e+00,-3.500000000000000000e+01,-1.800000000000000000e+01,-1.300000000000000000e+01,-7.000000000000000000e+00,-1.100000000000000000e+01,-4.000000000000000000e+00,-3.579711914062500000e-01,1.306152343750000000e-02,8.065795898437500000e-01,4.701538085937500000e-01
-4.000000000000000000e+00,8.000000000000000000e+00,1.800000000000000000e+01,1.500000000000000000e+01,1.300000000000000000e+01,4.000000000000000000e+00,-8.000000000000000000e+00,-3.000000000000000000e+00,-3.579101562500000000e-01,1.324462890625000000e-02,8.064575195312500000e-01,4.704589843750000000e-01
1.000000000000000000e+00,-2.000000000000000000e+00,9.000000000000000000e+00,1.200000000000000000e+01,8.000000000000000000e+00,2.000000000000000000e+00,-7.000000000000000000e+00,1.000000000000000000e+00,-3.579101562500000000e-01,1.324462890625000000e-02,8.064575195312500000e-01,4.704589843750000000e-01
-1.000000000000000000e+01,4.000000000000000000e+00,-6.000000000000000000e+00,-9.000000000000000000e+00,-6.000000000000000000e+00,-8.000000000000000000e+00,1.500000000000000000e+01,1.000000000000000000e+00,-3.579101562500000000e-01,1.324462890625000000e-02,8.064575195312500000e-01,4.704589843750000000e-01
2.200000000000000000e+01,1.000000000000000000e+00,1.200000000000000000e+01,4.000000000000000000e+00,-1.000000000000000000e+00,-7.000000000000000000e+00,-3.500000000000000000e+01,-3.000000000000000000e+00,-3.579101562500000000e-01,1.324462890625000000e-02,8.064575195312500000e-01,4.704589843750000000e-01
