-6.000000000000000000e+00,0.000000000000000000e+00,2.200000000000000000e+01,2.800000000000000000e+01,1.200000000000000000e+01,-2.000000000000000000e+00,2.000000000000000000e+00,-2.000000000000000000e+00,4.846801757812500000e-01,3.096313476562500000e-01,-7.975463867187500000e-01,1.818847656250000000e-01
5.000000000000000000e+00,0.000000000000000000e+00,-1.300000000000000000e+01,-3.400000000000000000e+01,-8.000000000000000000e+00,-3.000000000000000000e+00,-5.000000000000000000e+00,-2.000000000000000000e+00,4.846801757812500000e-01,3.096313476562500000e-01,-7.975463867187500000e-01,1.818847656250000000e-01
-7.000000000000000000e+00,-2.000000000000000000e+00,-7.000000000000000000e+00,9.000000000000000000e+00,2.000000000000000000e+00,1.000000000000000000e+00,1.000000000000000000e+00,0.000000000000000000e+00,4.846801757812500000e-01,3.096313476562500000e-01,-7.975463867187500000e-01,1.818847656250000000e-01
-1.000000000000000000e+00,2.000000000000000000e+00,6.000000000000000000e+00,9.000000000000000000e+00,-1.100000000000000000e+01,-1.400000000000000000e+01,-1.700000000000000000e+01,-3.000000000000000000e+00,4.846801757812500000e-01,3.096313476562500000e-01,-7.975463867187500000e-01,1.818847656250000000e-01
-6.000000000000000000e+00,0.000000000000000000e+00,-5.000000000000000000e+00,-1.100000000000000000e+01,-2.000000000000000000e+00,4.000000000000000000e+00,-2.000000000000000000e+01,-1.000000000000000000e+00,4.840698242187500000e-01,3.103027343750000000e-01,-7.977905273437500000e-01,1.813354492187500000e-01
4.000000000000000000e+00,6.000000000000000000e+00,4.000000000000000000e+00,2.200000000000000000e+01,1.000000000000000000e+00,1.000000000000000000e+00,1.600000000000000000e+01,0.000000000000000000e+00,4.840698242187500000e-01,3.103027343750000000e-01,-7.977905273437500000e-01,1.813354492187500000e-01
-2.000000000000000000e+00,-6.000000000000000000e+00,-8.000000000000000000e+00,-1.000000000000000000e+01,-5.000000000000000000e+00,2.000000000000000000e+00,1.000000000000000000e+00,-4.000000000000000000e+00,4.840698242187500000e-01,3.103027343750000000e-01,-7.977905273437500000e-01,1.813354492187500000e-01
-3.000000000000000000e+00,-1.100000000000000000e+01,-8.000000000000000000e+00,-4.000000000000000000e+00,1.500000000000000000e+01,-2.000000000000000000e+00,-5.000000000000000000e+00,1.000000000000000000e+00,4.840698242187500000e-01,3.103027343750000000e-01,-7.977905273437500000e-01,1.813354492187500000e-01
4.000000000000000000e+00,3.000000000000000000e+00,4.000000000000000000e+00,-4.000000000000000000e+00,-1.100000000000000000e+01,-6.000000000000000000e+00,5.000000000000000000e+00,-1.000000000000000000e+00,4.838256835937500000e-01,3.103027343750000000e-01,-7.980957031250000000e-01,1.807250976562500000e-01
-1.300000000000000000e+01,-4.000000000000000000e+00,-1.000000000000000000e+00,-1.200000000000000000e+01,-2.100000000000000000e+01,8.000000000000000000e+00,-1.100000000000000000e+01,-3.000000000000000000e+00,4.838256835937500000e-01,3.103027343750000000e-01,-7.980957031250000000e-01,1.807250976562500000e-01
7.000000000000000000e+00,0.000000000000000000e+00,2.000000000000000000e+00,3.000000000000000000e+00,1.100000000000000000e+01,-2.200000000000000000e+01,-1.000000000000000000e+01,-2.000000000000000000e+00,4.838256835937500000e-01,3.103027343750000000e-01,-7.980957031250000000e-01,1.807250976562500000e-01
-2.000000000000000000e+00,5.000000000000000000e+00,6.000000000000000000e+00,2.500000000000000000e+01,1.500000000000000000e+01,1.900000000000000000e+01,4.100000000000000000e+01,5.000000000000000000e+00,4.838256835937500000e-01,3.103027343750000000e-01,-7.980957031250000000e-01,1.807250976562500000e-01
5.000000000000000000e+00,-2.000000000000000000e+00,-4.500000000000000000e+01,-2.400000000000000000e+01,0.000000000000000000e+00,-5.000000000000000000e+00,-1.500000000000000000e+01,-1.000000000000000000e+00,4.837036132812500000e-01,3.105468750000000000e-01,-7.981567382812500000e-01,1.804199218750000000e-01
0.000000000000000000e+00,-1.100000000000000000e+01,1.200000000000000000e+01,-1.000000000000000000e+00,-8.000000000000000000e+00,3.000000000000000000e+00,2.000000000000000000e+00,-4.000000000000000000e+00,4.837036132812500000e-01,3.105468750000000000e-01,-7.981567382812500000e-01,1.804199218750000000e-01
5.000000000000000000e+00,8.000000000000000000e+00,-2.000000000000000000e+01,-1.000000000000000000e+01,-2.100000000000000000e+01,0.000000000000000000e+00,-2.000000000000000000e+00,0.000000000000000000e+00,4.837036132812500000e-01,3.105468750000000000e-01,-7.981567382812500000e-01,1.804199218750000000e-01
-4.000000000000000000e+00,-3.000000000000000000e+00,3.700000000000000000e+01,1.400000000000000000e+01,9.000000000000000000e+00,-7.000000000000000000e+00,-2.000000000000000000e+00,-4.000000000000000000e+00,4.837036132812500000e-01,3.105468750000000000e-01,-7.981567382812500000e-01,1.804199218750000000e-01
-5.000000000000000000e+00,-4.000000000000000000e+00,-5.000000000000000000e+00,0.000000000000000000e+00,2.000000000000000000e+01,1.000000000000000000e+01,1.200000000000000000e+01,8.000000000000000000e+00,4.831542968750000000e-01,3.117065429687500000e-01,-7.979736328125000000e-01,1.806030273437500000e-01
9.000000000000000000e+00,1.000000000000000000e+01,-5.000000000000000000e+00,-3.000000000000000000e+00,-1.000000000000000000e+01,-5.000000000000000000e+00,6.000000000000000000e+00,1.000000000000000000e+00,4.831542968750000000e-01,3.117065429687500000e-01,-7.979736328125000000e-01,1.806030273437500000e-01
-1.200000000000000000e+01,-4.000000000000000000e+00,-2.100000000000000000e+01,-6.000000000000000000e+00,-2.000000000000000000e+00,-6.000000000000000000e+00,-1.200000000000000000e+01,-2.000000000000000000e+00,4.831542968750000000e-01,3.117065429687500000e-01,-7.979736328125000000e-01,1.806030273437500000e-01
8.000000000000000000e+00,5.000000000000000000e+00,1.000000000000000000e+00,-1.100000000000000000e+01,-1.300000000000000000e+01,-4.000000000000000000e+00,-2.200000000000000000e+01,0.000000000000000000e+00,4.831542968750000000e-01,3.117065429687500000e-01,-7.979736328125000000e-01,1.806030273437500000e-01
-3.000000000000000000e+00,-2.000000000000000000e+00,1.000000000000000000e+01,3.000000000000000000e+00,-6.000000000000000000e+00,7.000000000000000000e+00,9.000000000000000000e+00,-1.000000000000000000e+00,4.825439453125000000e-01,3.133544921875000000e-01,-7.976684570312500000e-01,1.807861328125000000e-01
2.000000000000000000e+00,-5.000000000000000000e+00,-1.700000000000000000e+01,-9.000000000000000000e+00,3.000000000000000000e+00,-1.000000000000000000e+01,-8.000000000000000000e+00,-2.000000000000000000e+00,4.825439453125000000e-01,3.133544921875000000e-01,-7.976684570312500000e-01,1.807861328125000000e-01
1.000000000000000000e+01,5.000000000000000000e+00,9.000000000000000000e+00,1.200000000000000000e+01,2.000000000000000000e+00,1.000000000000000000e+01,6.000000000000000000e+00,0.000000000000000000e+00,4.825439453125000000e-01,3.133544921875000000e-01,-7.976684570312500000e-01,1.807861328125000000e-01
-2.000000000000000000e+00,5.000000000000000000e+00,-1.600000000000000000e+01,-1.000000000000000000e+00,-3.000000000000000000e+00,-7.000000000000000000e+00,-2.000000000000000000e+01,-1.000000000000000000e+00,4.825439453125000000e-01,3.133544921875000000e-01,-7.976684570312500000e-01,1.807861328125000000e-01
-1.300000000000000000e+01,-8.000000000000000000e+00,4.000000000000000000e+00,-3.000000000000000000e+00,-1.500000000000000000e+01,-7.000000000000000000e+00,4.000000000000000000e+00,-5.000000000000000000e+00,4.825439453125000000e-01,3.140258789062500000e-01,-7.974853515625000000e-01,1.805419921875000000e-01
1.000000000000000000e+00,-3.000000000000000000e+00,0.000000000000000000e+00,-1.000000000000000000e+00,1.200000000000000000e+01,5.000000000000000000e+00,4.000000000000000000e+00,1.000000000000000000e+00,4.825439453125000000e-01,3.140258789062500000e-01,-7.974853515625000000e-01,1.805419921875000000e-01
2.000000000000000000e+00,2.000000000000000000e+00,2.000000000000000000e+01,-3.000000000000000000e+00,5.000000000000000000e+00,-8.000000000000000000e+00,-1.000000000000000000e+01,-1.000000000000000000e+00,4.825439453125000000e-01,3.140258789062500000e-01,-7.974853515625000000e-01,1.805419921875000000e-01
-1.000000000000000000e+00,-1.000000000000000000e+00,-1.400000000000000000e+01,-9.000000000000000000e+00,5.000000000000000000e+00,6.000000000000000000e+00,7.000000000000000000e+00,-1.000000000000000000e+00,4.825439453125000000e-01,3.140258789062500000e-01,-7.974853515625000000e-01,1.805419921875000000e-01
0.000000000000000000e+00,-7.000000000000000000e+00,1.300000000000000000e+01,-3.000000000000000000e+00,-8.000000000000000000e+00,-3.000000000000000000e+00,3.000000000000000000e+00,1.000000000000000000e+00,4.830322265625000000e-01,3.137207031250000000e-01,-7.974243164062500000e-01,1.800537109375000000e-01
-4.000000000000000000e+00,2.000000000000000000e+00,-1.000000000000000000e+00,1.900000000000000000e+01,2.400000000000000000e+01,5.000000000000000000e+00,1.000000000000000000e+00,0.000000000000000000e+00,4.830322265625000000e-01,3.137207031250000000e-01,-7.974243164062500000e-01,1.800537109375000000e-01
1.300000000000000000e+01,6.000000000000000000e+00,1.600000000000000000e+01,1.200000000000000000e+01,-1.000000000000000000e+00,-2.000000000000000000e+00,-7.000000000000000000e+00,1.000000000000000000e+00,4.830322265625000000e-01,3.137207031250000000e-01,-7.974243164062500000e-01,1.800537109375000000e-01
-9.000000000000000000e+00,-4.000000000000000000e+00,-1.500000000000000000e+01,-8.000000000000000000e+00,-2.200000000000000000e+01,-1.600000000000000000e+01,-3.100000000000000000e+01,-1.000000000000000000e+00,4.830322265625000000e-01,3.137207031250000000e-01,-7.974243164062500000e-01,1.800537109375000000e-01
-6.000000000000000000e+00,-4.000000000000000000e+00,-1.600000000000000000e+01,-1.300000000000000000e+01,3.000000000000000000e+00,4.000000000000000000e+00,2.000000000000000000e+00,-1.000000000000000000e+00,4.836425781250000000e-01,3.127441406250000000e-01,-7.975463867187500000e-01,1.793823242187500000e-01
-5.000000000000000000e+00,-7.000000000000000000e+00,1.000000000000000000e+00,-4.000000000000000000e+00,1.400000000000000000e+01,6.000000000000000000e+00,8.000000000000000000e+00,-1.000000000000000000e+00,4.836425781250000000e-01,3.127441406250000000e-01,-7.975463867187500000e-01,1.793823242187500000e-01
0.000000000000000000e+00,1.000000000000000000e+00,7.000000000000000000e+00,-1.000000000000000000e+00,9.000000000000000000e+00,4.000000000000000000e+00,2.000000000000000000e+01,0.000000000000000000e+00,4.836425781250000000e-01,3.127441406250000000e-01,-7.975463867187500000e-01,1.793823242187500000e-01
9.000000000000000000e+00,4.000000000000000000e+00,7.000000000000000000e+00,7.000000000000000000e+00,0.000000000000000000e+00,-2.000000000000000000e+00,-4.000000000000000000e+00,0.000000000000000000e+00,4.836425781250000000e-01,3.127441406250000000e-01,-7.975463867187500000e-01,1.793823242187500000e-01
0.000000000000000000e+00,-2.000000000000000000e+00,-7.000000000000000000e+00,-1.700000000000000000e+01,-2.200000000000000000e+01,2.000000000000000000e+00,2.000000000000000000e+00,-3.000000000000000000e+00,4.835815429687500000e-01,3.121948242187500000e-01,-7.978515625000000000e-01,1.790771484375000000e-01
-2.000000000000000000e+00,-2.000000000000000000e+00,-1.000000000000000000e+01,-4.000000000000000000e+00,-1.700000000000000000e+01,-9.000000000000000000e+00,1.000000000000000000e+00,-1.000000000000000000e+00,4.835815429687500000e-01,3.121948242187500000e-01,-7.978515625000000000e-01,1.790771484375000000e-01
4.000000000000000000e+00,2.000000000000000000e+00,-1.000000000000000000e+00,3.100000000000000000e+01,2.000000000000000000e+00,-8.000000000000000000e+00,-5.000000000000000000e+00,0.000000000000000000e+00,4.835815429687500000e-01,3.121948242187500000e-01,-7.978515625000000000e-01,1.790771484375000000e-01
-4.000000000000000000e+00,2.000000000000000000e+00,4.000000000000000000e+00,-2.300000000000000000e+01,2.200000000000000000e+01,9.000000000000000000e+00,-6.000000000000000000e+00,-2.000000000000000000e+00,4.835815429687500000e-01,3.121948242187500000e-01,-7.978515625000000000e-01,1.790771484375000000e-01
2.000000000000000000e+00,-2.000000000000000000e+00,-2.000000000000000000e+00,-3.000000000000000000e+00,-1.000000000000000000e+00,8.000000000000000000e+00,8.000000000000000000e+00,-3.000000000000000000e+00,4.829711914062500000e-01,3.123779296875000000e-01,-7.981567382812500000e-01,1.792602539062500000e-01
-6.000000000000000000e+00,-9.000000000000000000e+00,-2.500000000000000000e+01,0.000000000000000000e+00,-1.000000000000000000e+01,3.000000000000000000e+00,5.000000000000000000e+00,2.000000000000000000e+00,4.829711914062500000e-01,3.123779296875000000e-01,-7.981567382812500000e-01,1.792602539062500000e-01
1.000000000000000000e+00,-1.000000000000000000e+00,-6.000000000000000000e+00,-7.000000000000000000e+00,-3.000000000000000000e+00,1.000000000000000000e+00,2.000000000000000000e+00,-3.000000000000000000e+00,4.829711914062500000e-01,3.123779296875000000e-01,-7.981567382812500000e-01,1.792602539062500000e-01
-4.000000000000000000e+00,-6.000000000000000000e+00,-1.700000000000000000e+01,6.000000000000000000e+00,-1.600000000000000000e+01,-1.100000000000000000e+01,-3.000000000000000000e+00,-2.000000000000000000e+00,4.829711914062500000e-01,3.123779296875000000e-01,-7.981567382812500000e-01,1.792602539062500000e-01
9.000000000000000000e+00,1.300000000000000000e+01,2.600000000000000000e+01,5.000000000000000000e+00,6.000000000000000000e+00,-4.000000000000000000e+00,-3.000000000000000000e+00,-1.000000000000000000e+00,4.822998046875000000e-01,3.132324218750000000e-01,-7.981567382812500000e-01,1.792602539062500000e-01
1.300000000000000000e+01,-1.000000000000000000e+00,-2.800000000000000000e+01,-3.000000000000000000e+00,3.000000000000000000e+00,0.000000000000000000e+00,0.000000000000000000e+00,2.000000000000000000e+00,4.822998046875000000e-01,3.132324218750000000e-01,-7.981567382812500000e-01,1.792602539062500000e-01
-3.100000000000000000e+01,-1.700000000000000000e+01,-2.000000000000000000e+01,-9.000000000000000000e+00,-6.000000000000000000e+00,-4.000000000000000000e+00,-3.300000000000000000e+01,-5.000000000000000000e+00,4.822998046875000000e-01,3.132324218750000000e-01,-7.981567382812500000e-01,1.792602539062500000e-01
-6.000000000000000000e+00,-1.500000000000000000e+01,-5.000000000000000000e+00,-3.000000000000000000e+00,-7.000000000000000000e+00,-6.000000000000000000e+00,-9.000000000000000000e+00,-6.000000000000000000e+00,4.822998046875000000e-01,3.132324218750000000e-01,-7.981567382812500000e-01,1.792602539062500000e-01
0.000000000000000000e+00,-2.000000000000000000e+00,5.000000000000000000e+00,-5.000000000000000000e+00,3.000000000000000000e+00,1.000000000000000000e+00,4.000000000000000000e+00,-1.000000000000000000e+00,4.816894531250000000e-01,3.135986328125000000e-01,-7.985839843750000000e-01,1.786499023437500000e-01
3.000000000000000000e+00,1.000000000000000000e+01,2.500000000000000000e+01,1.700000000000000000e+01,1.000000000000000000e+00,-4.000000000000000000e+00,8.000000000000000000e+00,-2.000000000000000000e+00,4.816894531250000000e-01,3.135986328125000000e-01,-7.985839843750000000e-01,1.786499023437500000e-01
5.000000000000000000e+00,5.000000000000000000e+00,-1.000000000000000000e+00,-1.000000000000000000e+01,-3.000000000000000000e+00,1.000000000000000000e+00,-7.000000000000000000e+00,1.000000000000000000e+00,4.816894531250000000e-01,3.135986328125000000e-01,-7.985839843750000000e-01,1.786499023437500000e-01
0.000000000000000000e+00,7.000000000000000000e+00,1.000000000000000000e+00,1.000000000000000000e+00,-4.000000000000000000e+00,1.000000000000000000e+00,0.000000000000000000e+00,1.000000000000000000e+00,4.816894531250000000e-01,3.135986328125000000e-01,-7.985839843750000000e-01,1.786499023437500000e-01
-6.000000000000000000e+00,-4.000000000000000000e+00,8.000000000000000000e+00,-8.000000000000000000e+00,-7.000000000000000000e+00,-6.000000000000000000e+00,-5.000000000000000000e+00,-1.000000000000000000e+00,4.813842773437500000e-01,3.135375976562500000e-01,-7.989501953125000000e-01,1.777954101562500000e-01
-6.000000000000000000e+00,-1.900000000000000000e+01,1.800000000000000000e+01,5.000000000000000000e+00,5.000000000000000000e+00,1.000000000000000000e+00,-1.100000000000000000e+01,-6.000000000000000000e+00,4.813842773437500000e-01,3.135375976562500000e-01,-7.989501953125000000e-01,1.777954101562500000e-01
1.000000000000000000e+00,-6.000000000000000000e+00,-1.800000000000000000e+01,-4.000000000000000000e+00,1.000000000000000000e+01,7.000000000000000000e+00,1.000000000000000000e+01,-2.000000000000000000e+00,4.813842773437500000e-01,3.135375976562500000e-01,-7.989501953125000000e-01,1.777954101562500000e-01
-3.000000000000000000e+00,-1.000000000000000000e+00,1.400000000000000000e+01,5.000000000000000000e+00,4.000000000000000000e+00,4.000000000000000000e+00,6.000000000000000000e+00,0.000000000000000000e+00,4.813842773437500000e-01,3.135375976562500000e-01,-7.989501953125000000e-01,1.777954101562500000e-01
3.000000000000000000e+00,3.000000000000000000e+00,-1.200000000000000000e+01,-6.000000000000000000e+00,-7.000000000000000000e+00,-7.000000000000000000e+00,-3.000000000000000000e+00,0.000000000000000000e+00,4.808349609375000000e-01,3.136596679687500000e-01,-7.994384765625000000e-01,1.770629882812500000e-01
-4.000000000000000000e+00,4.000000000000000000e+00,-1.000000000000000000e+00,-6.000000000000000000e+00,-1.400000000000000000e+01,-9.000000000000000000e+00,-1.000000000000000000e+01,-4.000000000000000000e+00,4.808349609375000000e-01,3.136596679687500000e-01,-7.994384765625000000e-01,1.770629882812500000e-01
2.000000000000000000e+00,1.000000000000000000e+00,7.000000000000000000e+00,-4.000000000000000000e+00,-5.000000000000000000e+00,7.000000000000000000e+00,4.000000000000000000e+00,0.000000000000000000e+00,4.808349609375000000e-01,3.136596679687500000e-01,-7.994384765625000000e-01,1.770629882812500000e-01
7.000000000000000000e+00,9.000000000000000000e+00,-7.000000000000000000e+00,1.400000000000000000e+01,5.000000000000000000e+00,-1.100000000000000000e+01,0.000000000000000000e+00,2.000000000000000000e+00,4.808349609375000000e-01,3.136596679687500000e-01,-7.994384765625000000e-01,1.770629882812500000e-01
-2.000000000000000000e+00,2.000000000000000000e+00,2.800000000000000000e+01,3.000000000000000000e+00,1.600000000000000000e+01,6.000000000000000000e+00,5.000000000000000000e+00,0.000000000000000000e+00,4.802856445312500000e-01,3.139648437500000000e-01,-7.997436523437500000e-01,1.764526367187500000e-01
-6.000000000000000000e+00,-6.000000000000000000e+00,-2.300000000000000000e+01,-1.500000000000000000e+01,5.000000000000000000e+00,4.000000000000000000e+00,1.400000000000000000e+01,-4.000000000000000000e+00,4.802856445312500000e-01,3.139648437500000000e-01,-7.997436523437500000e-01,1.764526367187500000e-01
-6.000000000000000000e+00,-1.000000000000000000e+01,1.000000000000000000e+01,1.300000000000000000e+01,2.000000000000000000e+00,5.000000000000000000e+00,5.000000000000000000e+00,-1.000000000000000000e+00,4.802856445312500000e-01,3.139648437500000000e-01,-7.997436523437500000e-01,1.764526367187500000e-01
2.000000000000000000e+00,-2.000000000000000000e+00,1.000000000000000000e+01,-1.000000000000000000e+01,-8.000000000000000000e+00,-5.000000000000000000e+00,-1.000000000000000000e+00,3.000000000000000000e+00,4.802856445312500000e-01,3.139648437500000000e-01,-7.997436523437500000e-01,1.764526367187500000e-01
1.000000000000000000e+00,-2.000000000000000000e+00,-2.000000000000000000e+00,5.000000000000000000e+00,-1.100000000000000000e+01,-8.000000000000000000e+00,-5.000000000000000000e+00,2.000000000000000000e+00,4.794921875000000000e-01,3.150024414062500000e-01,-7.999267578125000000e-01,1.760253906250000000e-01
6.000000000000000000e+00,7.000000000000000000e+00,1.400000000000000000e+01,1.000000000000000000e+00,2.000000000000000000e+00,5.000000000000000000e+00,-5.000000000000000000e+00,2.000000000000000000e+00,4.794921875000000000e-01,3.150024414062500000e-01,-7.999267578125000000e-01,1.760253906250000000e-01
8.000000000000000000e+00,1.600000000000000000e+01,-4.000000000000000000e+00,-6.000000000000000000e+00,5.000000000000000000e+00,8.000000000000000000e+00,2.000000000000000000e+00,1.000000000000000000e+00,4.794921875000000000e-01,3.150024414062500000e-01,-7.999267578125000000e-01,1.760253906250000000e-01
-9.000000000000000000e+00,-2.000000000000000000e+00,1.000000000000000000e+00,-7.000000000000000000e+00,-1.500000000000000000e+01,-1.400000000000000000e+01,5.000000000000000000e+00,-3.000000000000000000e+00,4.794921875000000000e-01,3.150024414062500000e-01,-7.999267578125000000e-01,1.760253906250000000e-01
-4.000000000000000000e+00,-1.700000000000000000e+01,-1.500000000000000000e+01,-2.000000000000000000e+00,1.000000000000000000e+01,-6.000000000000000000e+00,-5.000000000000000000e+00,-4.000000000000000000e+00,4.785156250000000000e-01,3.161621093750000000e-01,-8.001098632812500000e-01,1.756591796875000000e-01
0.000000000000000000e+00,-1.000000000000000000e+00,1.500000000000000000e+01,4.000000000000000000e+00,-8.000000000000000000e+00,2.000000000000000000e+00,2.200000000000000000e+01,-3.000000000000000000e+00,4.785156250000000000e-01,3.161621093750000000e-01,-8.001098632812500000e-01,1.756591796875000000e-01
-3.000000000000000000e+00,-3.000000000000000000e+00,2.000000000000000000e+00,-6.000000000000000000e+00,0.000000000000000000e+00,4.000000000000000000e+00,-5.000000000000000000e+00,-3.000000000000000000e+00,4.785156250000000000e-01,3.161621093750000000e-01,-8.001098632812500000e-01,1.756591796875000000e-01
4.000000000000000000e+00,4.000000000000000000e+00,9.000000000000000000e+00,9.000000000000000000e+00,5.000000000000000000e+00,-1.000000000000000000e+00,-3.000000000000000000e+00,-3.000000000000000000e+00,4.785156250000000000e-01,3.161621093750000000e-01,-8.001098632812500000e-01,1.756591796875000000e-01
-1.400000000000000000e+01,-8.000000000000000000e+00,-4.800000000000000000e+01,-1.300000000000000000e+01,-5.000000000000000000e+00,-3.000000000000000000e+00,4.000000000000000000e+00,-2.000000000000000000e+00,4.777221679687500000e-01,3.168334960937500000e-01,-8.004150390625000000e-01,1.752929687500000000e-01
-4.000000000000000000e+00,5.000000000000000000e+00,2.300000000000000000e+01,1.000000000000000000e+01,-3.000000000000000000e+00,-1.100000000000000000e+01,-1.200000000000000000e+01,-2.000000000000000000e+00,4.777221679687500000e-01,3.168334960937500000e-01,-8.004150390625000000e-01,1.752929687500000000e-01
3.000000000000000000e+00,-1.000000000000000000e+00,2.000000000000000000e+00,-2.400000000000000000e+01,-1.400000000000000000e+01,-5.000000000000000000e+00,-2.000000000000000000e+00,0.000000000000000000e+00,4.777221679687500000e-01,3.168334960937500000e-01,-8.004150390625000000e-01,1.752929687500000000e-01
2.000000000000000000e+00,1.000000000000000000e+00,-1.500000000000000000e+01,0.000000000000000000e+00,6.000000000000000000e+00,1.600000000000000000e+01,2.700000000000000000e+01,-2.000000000000000000e+00,4.777221679687500000e-01,3.168334960937500000e-01,-8.004150390625000000e-01,1.752929687500000000e-01
1.100000000000000000e+01,1.000000000000000000e+01,1.200000000000000000e+01,9.000000000000000000e+00,4.000000000000000000e+00,2.000000000000000000e+00,-2.800000000000000000e+01,2.000000000000000000e+00,4.773559570312500000e-01,3.172607421875000000e-01,-8.005371093750000000e-01,1.749877929687500000e-01
-2.000000000000000000e+00,2.000000000000000000e+00,-1.400000000000000000e+01,-1.000000000000000000e+00,-1.000000000000000000e+00,1.000000000000000000e+00,6.000000000000000000e+00,0.000000000000000000e+00,4.773559570312500000e-01,3.172607421875000000e-01,-8.005371093750000000e-01,1.749877929687500000e-01
-9.000000000000000000e+00,-3.000000000000000000e+00,-4.000000000000000000e+00,0.000000000000000000e+00,-2.000000000000000000e+00,-4.000000000000000000e+00,7.000000000000000000e+00,-5.000000000000000000e+00,4.773559570312500000e-01,3.172607421875000000e-01,-8.005371093750000000e-01,1.749877929687500000e-01
2.000000000000000000e+00,-8.000000000000000000e+00,1.800000000000000000e+01,-2.000000000000000000e+00,-1.500000000000000000e+01,-2.000000000000000000e+00,-4.000000000000000000e+00,1.000000000000000000e+00,4.773559570312500000e-01,3.172607421875000000e-01,-8.005371093750000000e-01,1.749877929687500000e-01
0.000000000000000000e+00,3.000000000000000000e+00,-1.800000000000000000e+01,-1.000000000000000000e+00,9.000000000000000000e+00,-2.000000000000000000e+00,-1.000000000000000000e+00,-2.000000000000000000e+00,4.772949218750000000e-01,3.172607421875000000e-01,-8.005981445312500000e-01,1.749877929687500000e-01
1.000000000000000000e+00,-4.000000000000000000e+00,2.100000000000000000e+01,-3.000000000000000000e+00,-4.000000000000000000e+00,0.000000000000000000e+00,-3.000000000000000000e+00,2.000000000000000000e+00,4.772949218750000000e-01,3.172607421875000000e-01,-8.005981445312500000e-01,1.749877929687500000e-01
7.000000000000000000e+00,3.000000000000000000e+00,1.000000000000000000e+00,-1.000000000000000000e+00,-1.000000000000000000e+00,-1.100000000000000000e+01,-1.400000000000000000e+01,0.000000000000000000e+00,4.772949218750000000e-01,3.172607421875000000e-01,-8.005981445312500000e-01,1.749877929687500000e-01
-6.000000000000000000e+00,4.000000000000000000e+00,-1.800000000000000000e+01,-3.000000000000000000e+00,0.000000000000000000e+00,5.000000000000000000e+00,-3.000000000000000000e+00,-4.000000000000000000e+00,4.772949218750000000e-01,3.172607421875000000e-01,-8.005981445312500000e-01,1.749877929687500000e-01
1.000000000000000000e+00,-2.000000000000000000e+00,1.300000000000000000e+01,6.000000000000000000e+00,-4.000000000000000000e+00,4.000000000000000000e+00,1.300000000000000000e+01,3.000000000000000000e+00,4.775390625000000000e-01,3.168334960937500000e-01,-8.005981445312500000e-01,1.748657226562500000e-01
4.000000000000000000e+00,2.000000000000000000e+00,-2.200000000000000000e+01,1.000000000000000000e+00,0.000000000000000000e+00,-7.000000000000000000e+00,-1.300000000000000000e+01,2.000000000000000000e+00,4.775390625000000000e-01,3.168334960937500000e-01,-8.005981445312500000e-01,1.748657226562500000e-01
-7.000000000000000000e+00,-6.000000000000000000e+00,2.000000000000000000e+01,-1.600000000000000000e+01,-6.000000000000000000e+00,-8.000000000000000000e+00,-7.000000000000000000e+00,-2.000000000000000000e+00,4.775390625000000000e-01,3.168334960937500000e-01,-8.005981445312500000e-01,1.748657226562500000e-01
-4.000000000000000000e+00,-5.000000000000000000e+00,-7.000000000000000000e+00,3.000000000000000000e+00,5.000000000000000000e+00,6.000000000000000000e+00,-2.000000000000000000e+00,1.000000000000000000e+00,4.775390625000000000e-01,3.168334960937500000e-01,-8.005981445312500000e-01,1.748657226562500000e-01
1.000000000000000000e+00,1.000000000000000000e+00,4.000000000000000000e+00,-1.000000000000000000e+00,-9.000000000000000000e+00,-9.000000000000000000e+00,2.000000000000000000e+00,-2.000000000000000000e+00,4.780883789062500000e-01,3.161010742187500000e-01,-8.005371093750000000e-01,1.751098632812500000e-01
1.000000000000000000e+00,1.000000000000000000e+00,-1.000000000000000000e+01,5.000000000000000000e+00,-6.000000000000000000e+00,-1.500000000000000000e+01,-4.500000000000000000e+01,-3.000000000000000000e+00,4.780883789062500000e-01,3.161010742187500000e-01,-8.005371093750000000e-01,1.751098632812500000e-01
-7.000000000000000000e+00,-4.000000000000000000e+00,-2.400000000000000000e+01,1.000000000000000000e+00,2.200000000000000000e+01,2.600000000000000000e+01,5.800000000000000000e+01,5.000000000000000000e+00,4.780883789062500000e-01,3.161010742187500000e-01,-8.005371093750000000e-01,1.751098632812500000e-01
-4.000000000000000000e+00,-5.000000000000000000e+00,1.100000000000000000e+01,1.000000000000000000e+00,2.000000000000000000e+00,-4.000000000000000000e+00,-6.000000000000000000e+00,-2.000000000000000000e+00,4.780883789062500000e-01,3.161010742187500000e-01,-8.005371093750000000e-01,1.751098632812500000e-01
-3.000000000000000000e+00,-2.000000000000000000e+00,-5.000000000000000000e+00,-5.000000000000000000e+00,-1.300000000000000000e+01,2.000000000000000000e+00,2.000000000000000000e+00,-3.000000000000000000e+00,4.783325195312500000e-01,3.155517578125000000e-01,-8.004760742187500000e-01,1.755981445312500000e-01
-1.000000000000000000e+00,-4.000000000000000000e+00,2.000000000000000000e+00,-6.000000000000000000e+00,-2.000000000000000000e+00,-8.000000000000000000e+00,-8.000000000000000000e+00,-4.000000000000000000e+00,4.783325195312500000e-01,3.155517578125000000e-01,-8.004760742187500000e-01,1.755981445312500000e-01
7.000000000000000000e+00,4.000000000000000000e+00,8.000000000000000000e+00,5.000000000000000000e+00,-1.600000000000000000e+01,-1.300000000000000000e+01,-1.300000000000000000e+01,-3.000000000000000000e+00,4.783325195312500000e-01,3.155517578125000000e-01,-8.004760742187500000e-01,1.755981445312500000e-01
1.000000000000000000e+00,5.000000000000000000e+00,1.400000000000000000e+01,6.000000000000000000e+00,1.300000000000000000e+01,6.000000000000000000e+00,-6.000000000000000000e+00,1.000000000000000000e+00,4.783325195312500000e-01,3.155517578125000000e-01,-8.004760742187500000e-01,1.755981445312500000e-01
1.000000000000000000e+00,2.000000000000000000e+00,-2.000000000000000000e+00,-4.000000000000000000e+00,-6.000000000000000000e+00,-2.000000000000000000e+00,1.800000000000000000e+01,-1.000000000000000000e+00,4.786987304687500000e-01,3.151245117187500000e-01,-8.004150390625000000e-01,1.756591796875000000e-01
-1.000000000000000000e+01,-1.200000000000000000e+01,-1.800000000000000000e+01,3.000000000000000000e+00,7.000000000000000000e+00,8.000000000000000000e+00,1.500000000000000000e+01,-4.000000000000000000e+00,4.786987304687500000e-01,3.151245117187500000e-01,-8.004150390625000000e-01,1.756591796875000000e-01
0.000000000000000000e+00,-6.000000000000000000e+00,8.000000000000000000e+00,4.000000000000000000e+00,9.000000000000000000e+00,3.000000000000000000e+00,-4.000000000000000000e+00,0.000000000000000000e+00,4.786987304687500000e-01,3.151245117187500000e-01,-8.004150390625000000e-01,1.756591796875000000e-01
-2.000000000000000000e+00,-6.000000000000000000e+00,-1.200000000000000000e+01,-1.000000000000000000e+00,0.000000000000000000e+00,2.000000000000000000e+00,7.000000000000000000e+00,0.000000000000000000e+00,4.786987304687500000e-01,3.151245117187500000e-01,-8.004150390625000000e-01,1.756591796875000000e-01
-1.000000000000000000e+00,3.000000000000000000e+00,-3.000000000000000000e+00,3.000000000000000000e+00,-3.000000000000000000e+00,-7.000000000000000000e+00,-1.700000000000000000e+01,0.000000000000000000e+00,4.791259765625000000e-01,3.144531250000000000e-01,-8.004760742187500000e-01,1.755371093750000000e-01
4.000000000000000000e+00,1.000000000000000000e+01,5.000000000000000000e+00,-1.000000000000000000e+00,-5.000000000000000000e+00,9.000000000000000000e+00,2.000000000000000000e+00,0.000000000000000000e+00,4.791259765625000000e-01,3.144531250000000000e-01,-8.004760742187500000e-01,1.755371093750000000e-01
3.000000000000000000e+00,8.000000000000000000e+00,-1.600000000000000000e+01,-3.000000000000000000e+00,-1.500000000000000000e+01,-1.800000000000000000e+01,-1.200000000000000000e+01,0.000000000000000000e+00,4.791259765625000000e-01,3.144531250000000000e-01,-8.004760742187500000e-01,1.755371093750000000e-01
5.000000000000000000e+00,-2.100000000000000000e+01,5.100000000000000000e+01,-3.000000000000000000e+00,1.200000000000000000e+01,8.000000000000000000e+00,4.000000000000000000e+00,-3.000000000000000000e+00,4.791259765625000000e-01,3.144531250000000000e-01,-8.004760742187500000e-01,1.755371093750000000e-01
-1.100000000000000000e+01,-5.000000000000000000e+00,-1.400000000000000000e+01,-1.100000000000000000e+01,-3.000000000000000000e+00,-9.000000000000000000e+00,-8.000000000000000000e+00,-3.000000000000000000e+00,4.791259765625000000e-01,3.144531250000000000e-01,-8.004760742187500000e-01,1.755371093750000000e-01
-1.300000000000000000e+01,-1.000000000000000000e+00,2.000000000000000000e+00,-2.100000000000000000e+01,2.000000000000000000e+00,8.000000000000000000e+00,2.000000000000000000e+00,-2.000000000000000000e+00,4.791259765625000000e-01,3.144531250000000000e-01,-8.004760742187500000e-01,1.755371093750000000e-01
3.000000000000000000e+00,-4.000000000000000000e+00,-8.000000000000000000e+00,1.000000000000000000e+01,-4.000000000000000000e+00,-7.000000000000000000e+00,-7.000000000000000000e+00,-2.000000000000000000e+00,4.791259765625000000e-01,3.144531250000000000e-01,-8.004760742187500000e-01,1.755371093750000000e-01
-1.000000000000000000e+00,1.000000000000000000e+01,-1.400000000000000000e+01,1.000000000000000000e+00,-3.000000000000000000e+00,4.000000000000000000e+00,3.000000000000000000e+00,1.000000000000000000e+00,4.791259765625000000e-01,3.144531250000000000e-01,-8.004760742187500000e-01,1.755371093750000000e-01
2.000000000000000000e+00,-3.000000000000000000e+00,-1.000000000000000000e+00,0.000000000000000000e+00,-4.000000000000000000e+00,-2.000000000000000000e+00,-2.000000000000000000e+00,0.000000000000000000e+00,4.792480468750000000e-01,3.146972656250000000e-01,-8.002929687500000000e-01,1.756591796875000000e-01
2.000000000000000000e+00,3.000000000000000000e+00,4.000000000000000000e+00,2.000000000000000000e+00,-8.000000000000000000e+00,-3.000000000000000000e+00,5.000000000000000000e+00,2.000000000000000000e+00,4.792480468750000000e-01,3.146972656250000000e-01,-8.002929687500000000e-01,1.756591796875000000e-01
1.000000000000000000e+00,4.000000000000000000e+00,1.000000000000000000e+00,-3.000000000000000000e+00,6.000000000000000000e+00,-7.000000000000000000e+00,-3.900000000000000000e+01,-1.000000000000000000e+01,4.792480468750000000e-01,3.146972656250000000e-01,-8.002929687500000000e-01,1.756591796875000000e-01
1.500000000000000000e+01,1.400000000000000000e+01,-7.000000000000000000e+00,1.200000000000000000e+01,-4.000000000000000000e+00,-1.000000000000000000e+00,3.000000000000000000e+00,6.000000000000000000e+00,4.792480468750000000e-01,3.146972656250000000e-01,-8.002929687500000000e-01,1.756591796875000000e-01
-1.600000000000000000e+01,-1.700000000000000000e+01,-7.000000000000000000e+00,-9.000000000000000000e+00,1.700000000000000000e+01,1.400000000000000000e+01,1.200000000000000000e+01,-2.000000000000000000e+00,4.791870117187500000e-01,3.142700195312500000e-01,-8.005371093750000000e-01,1.754760742187500000e-01
-9.000000000000000000e+00,-1.300000000000000000e+01,-5.000000000000000000e+00,-2.000000000000000000e+00,-3.000000000000000000e+00,-6.000000000000000000e+00,-1.300000000000000000e+01,-4.000000000000000000e+00,4.791870117187500000e-01,3.142700195312500000e-01,-8.005371093750000000e-01,1.754760742187500000e-01
1.000000000000000000e+00,3.000000000000000000e+00,1.000000000000000000e+01,1.000000000000000000e+00,-3.000000000000000000e+00,0.000000000000000000e+00,6.000000000000000000e+00,-3.000000000000000000e+00,4.791870117187500000e-01,3.142700195312500000e-01,-8.005371093750000000e-01,1.754760742187500000e-01
-5.000000000000000000e+00,-6.000000000000000000e+00,-1.800000000000000000e+01,-9.000000000000000000e+00,-1.000000000000000000e+01,-8.000000000000000000e+00,-9.000000000000000000e+00,-5.000000000000000000e+00,4.791870117187500000e-01,3.142700195312500000e-01,-8.005371093750000000e-01,1.754760742187500000e-01
6.000000000000000000e+00,9.000000000000000000e+00,4.000000000000000000e+00,1.200000000000000000e+01,-3.000000000000000000e+00,-6.000000000000000000e+00,-3.000000000000000000e+00,-1.000000000000000000e+00,4.793090820312500000e-01,3.137207031250000000e-01,-8.006591796875000000e-01,1.753540039062500000e-01
4.000000000000000000e+00,4.000000000000000000e+00,7.000000000000000000e+00,1.000000000000000000e+00,6.000000000000000000e+00,4.000000000000000000e+00,4.000000000000000000e+00,3.000000000000000000e+00,4.793090820312500000e-01,3.137207031250000000e-01,-8.006591796875000000e-01,1.753540039062500000e-01
-1.000000000000000000e+00,-4.000000000000000000e+00,-1.000000000000000000e+00,4.000000000000000000e+00,5.000000000000000000e+00,5.000000000000000000e+00,8.000000000000000000e+00,-1.000000000000000000e+00,4.793090820312500000e-01,3.137207031250000000e-01,-8.006591796875000000e-01,1.753540039062500000e-01
1.000000000000000000e+00,1.000000000000000000e+01,-3.000000000000000000e+00,-9.000000000000000000e+00,-6.000000000000000000e+00,-4.000000000000000000e+00,-1.000000000000000000e+00,-1.000000000000000000e+00,4.793090820312500000e-01,3.137207031250000000e-01,-8.006591796875000000e-01,1.753540039062500000e-01
-9.000000000000000000e+00,-1.400000000000000000e+01,-2.600000000000000000e+01,4.000000000000000000e+00,9.000000000000000000e+00,7.000000000000000000e+00,5.000000000000000000e+00,0.000000000000000000e+00,4.793090820312500000e-01,3.137207031250000000e-01,-8.006591796875000000e-01,1.753540039062500000e-01
-1.600000000000000000e+01,-1.200000000000000000e+01,-3.200000000000000000e+01,-7.000000000000000000e+00,3.000000000000000000e+00,3.000000000000000000e+00,6.000000000000000000e+00,1.000000000000000000e+00,4.793090820312500000e-01,3.137207031250000000e-01,-8.006591796875000000e-01,1.753540039062500000e-01
-2.000000000000000000e+00,-7.000000000000000000e+00,4.000000000000000000e+00,-4.000000000000000000e+00,-9.000000000000000000e+00,-3.000000000000000000e+00,0.000000000000000000e+00,-2.000000000000000000e+00,4.793090820312500000e-01,3.137207031250000000e-01,-8.006591796875000000e-01,1.753540039062500000e-01
2.000000000000000000e+00,3.000000000000000000e+00,-7.000000000000000000e+00,-9.000000000000000000e+00,-1.400000000000000000e+01,-3.000000000000000000e+00,-4.000000000000000000e+00,0.000000000000000000e+00,4.793090820312500000e-01,3.137207031250000000e-01,-8.006591796875000000e-01,1.753540039062500000e-01
-3.000000000000000000e+00,7.000000000000000000e+00,1.800000000000000000e+01,3.000000000000000000e+00,7.000000000000000000e+00,-5.000000000000000000e+00,-3.000000000000000000e+00,0.000000000000000000e+00,4.793090820312500000e-01,3.137207031250000000e-01,-8.006591796875000000e-01,1.753540039062500000e-01
9.000000000000000000e+00,1.300000000000000000e+01,2.400000000000000000e+01,5.000000000000000000e+00,3.000000000000000000e+00,-1.000000000000000000e+00,1.000000000000000000e+00,1.000000000000000000e+00,4.793090820312500000e-01,3.137207031250000000e-01,-8.006591796875000000e-01,1.753540039062500000e-01
-1.000000000000000000e+00,-6.000000000000000000e+00,-4.000000000000000000e+01,5.000000000000000000e+00,2.000000000000000000e+00,4.000000000000000000e+00,2.000000000000000000e+00,2.000000000000000000e+00,4.793090820312500000e-01,3.137207031250000000e-01,-8.006591796875000000e-01,1.753540039062500000e-01
-1.100000000000000000e+01,-8.000000000000000000e+00,-7.000000000000000000e+00,-4.000000000000000000e+00,1.000000000000000000e+00,-7.000000000000000000e+00,-1.300000000000000000e+01,-5.000000000000000000e+00,4.793090820312500000e-01,3.137207031250000000e-01,-8.006591796875000000e-01,1.753540039062500000e-01
5.000000000000000000e+00,-1.200000000000000000e+01,-3.000000000000000000e+00,-8.000000000000000000e+00,-4.000000000000000000e+00,-5.000000000000000000e+00,-1.000000000000000000e+01,1.000000000000000000e+00,4.793090820312500000e-01,3.137207031250000000e-01,-8.006591796875000000e-01,1.753540039062500000e-01
3.000000000000000000e+00,0.000000000000000000e+00,2.100000000000000000e+01,4.000000000000000000e+00,0.000000000000000000e+00,7.000000000000000000e+00,2.000000000000000000e+01,-1.000000000000000000e+00,4.793090820312500000e-01,3.137207031250000000e-01,-8.006591796875000000e-01,1.753540039062500000e-01
-1.000000000000000000e+00,3.000000000000000000e+00,-3.000000000000000000e+00,-6.000000000000000000e+00,-4.000000000000000000e+00,1.000000000000000000e+00,9.000000000000000000e+00,2.000000000000000000e+00,4.793090820312500000e-01,3.137207031250000000e-01,-8.006591796875000000e-01,1.753540039062500000e-01
0.000000000000000000e+00,-3.000000000000000000e+00,-1.100000000000000000e+01,-2.000000000000000000e+00,-5.000000000000000000e+00,-9.000000000000000000e+00,-7.000000000000000000e+00,-1.000000000000000000e+00,4.793090820312500000e-01,3.137207031250000000e-01,-8.006591796875000000e-01,1.753540039062500000e-01
2.000000000000000000e+00,3.000000000000000000e+00,6.000000000000000000e+00,-5.000000000000000000e+00,-7.000000000000000000e+00,-5.000000000000000000e+00,-8.000000000000000000e+00,-2.000000000000000000e+00,4.790649414062500000e-01,3.141479492187500000e-01,-8.005371093750000000e-01,1.759643554687500000e-01
2.000000000000000000e+00,6.000000000000000000e+00,3.000000000000000000e+00,7.000000000000000000e+00,-3.000000000000000000e+00,-5.000000000000000000e+00,-3.000000000000000000e+00,0.000000000000000000e+00,4.790649414062500000e-01,3.141479492187500000e-01,-8.005371093750000000e-01,1.759643554687500000e-01
1.000000000000000000e+01,1.900000000000000000e+01,1.700000000000000000e+01,-1.000000000000000000e+00,-1.000000000000000000e+00,-4.000000000000000000e+00,-6.000000000000000000e+00,2.000000000000000000e+00,4.790649414062500000e-01,3.141479492187500000e-01,-8.005371093750000000e-01,1.759643554687500000e-01
-8.000000000000000000e+00,-1.600000000000000000e+01,-3.600000000000000000e+01,-6.000000000000000000e+00,1.300000000000000000e+01,1.600000000000000000e+01,3.200000000000000000e+01,-6.000000000000000000e+00,4.790649414062500000e-01,3.141479492187500000e-01,-8.005371093750000000e-01,1.759643554687500000e-01
-5.000000000000000000e+00,-1.500000000000000000e+01,-1.100000000000000000e+01,8.000000000000000000e+00,1.000000000000000000e+00,2.000000000000000000e+00,-1.200000000000000000e+01,3.000000000000000000e+00,4.788818359375000000e-01,3.143920898437500000e-01,-8.004760742187500000e-01,1.762084960937500000e-01
0.000000000000000000e+00,-3.000000000000000000e+00,0.000000000000000000e+00,-1.300000000000000000e+01,-4.000000000000000000e+00,-7.000000000000000000e+00,-7.000000000000000000e+00,-1.000000000000000000e+00,4.788818359375000000e-01,3.143920898437500000e-01,-8.004760742187500000e-01,1.762084960937500000e-01
-2.000000000000000000e+00,-5.000000000000000000e+00,-3.000000000000000000e+00,-1.000000000000000000e+00,-4.000000000000000000e+00,-1.000000000000000000e+00,0.000000000000000000e+00,-1.000000000000000000e+00,4.788818359375000000e-01,3.143920898437500000e-01,-8.004760742187500000e-01,1.762084960937500000e-01
-1.000000000000000000e+00,5.000000000000000000e+00,1.500000000000000000e+01,8.000000000000000000e+00,-3.000000000000000000e+00,-4.000000000000000000e+00,-1.000000000000000000e+00,-2.000000000000000000e+00,4.788818359375000000e-01,3.143920898437500000e-01,-8.004760742187500000e-01,1.762084960937500000e-01
6.000000000000000000e+00,1.100000000000000000e+01,1.600000000000000000e+01,-2.000000000000000000e+00,-5.000000000000000000e+00,2.000000000000000000e+00,8.000000000000000000e+00,-2.000000000000000000e+00,4.793090820312500000e-01,3.142700195312500000e-01,-8.002319335937500000e-01,1.763305664062500000e-01
7.000000000000000000e+00,2.000000000000000000e+00,-1.100000000000000000e+01,-4.000000000000000000e+00,-8.000000000000000000e+00,-4.000000000000000000e+00,-6.000000000000000000e+00,-3.000000000000000000e+00,4.793090820312500000e-01,3.142700195312500000e-01,-8.002319335937500000e-01,1.763305664062500000e-01
-6.000000000000000000e+00,-1.200000000000000000e+01,8.000000000000000000e+00,3.000000000000000000e+00,5.000000000000000000e+00,3.000000000000000000e+00,1.000000000000000000e+00,-1.000000000000000000e+00,4.793090820312500000e-01,3.142700195312500000e-01,-8.002319335937500000e-01,1.763305664062500000e-01
5.000000000000000000e+00,9.000000000000000000e+00,1.000000000000000000e+00,3.000000000000000000e+00,4.000000000000000000e+00,-9.000000000000000000e+00,-1.100000000000000000e+01,1.000000000000000000e+00,4.793090820312500000e-01,3.142700195312500000e-01,-8.002319335937500000e-01,1.763305664062500000e-01
5.000000000000000000e+00,-1.000000000000000000e+00,-1.000000000000000000e+01,2.000000000000000000e+00,0.000000000000000000e+00,3.000000000000000000e+00,4.000000000000000000e+00,-2.000000000000000000e+00,4.796752929687500000e-01,3.139648437500000000e-01,-8.001098632812500000e-01,1.764526367187500000e-01
-1.500000000000000000e+01,-1.300000000000000000e+01,3.700000000000000000e+01,7.000000000000000000e+00,1.100000000000000000e+01,3.000000000000000000e+00,0.000000000000000000e+00,-1.000000000000000000e+00,4.796752929687500000e-01,3.139648437500000000e-01,-8.001098632812500000e-01,1.764526367187500000e-01
-1.000000000000000000e+00,-3.000000000000000000e+00,-1.500000000000000000e+01,-9.000000000000000000e+00,-6.000000000000000000e+00,5.000000000000000000e+00,4.000000000000000000e+01,-3.000000000000000000e+00,4.796752929687500000e-01,3.139648437500000000e-01,-8.001098632812500000e-01,1.764526367187500000e-01
-1.000000000000000000e+00,-5.000000000000000000e+00,-1.000000000000000000e+00,-8.000000000000000000e+00,-7.000000000000000000e+00,-8.000000000000000000e+00,-1.200000000000000000e+01,0.000000000000000000e+00,4.796752929687500000e-01,3.139648437500000000e-01,-8.001098632812500000e-01,1.764526367187500000e-01
5.000000000000000000e+00,1.000000000000000000e+01,-3.000000000000000000e+00,0.000000000000000000e+00,-2.300000000000000000e+01,-8.000000000000000000e+00,1.000000000000000000e+00,0.000000000000000000e+00,4.799194335937500000e-01,3.137207031250000000e-01,-7.999877929687500000e-01,1.768188476562500000e-01
3.000000000000000000e+00,0.000000000000000000e+00,-6.000000000000000000e+00,8.000000000000000000e+00,8.000000000000000000e+00,6.000000000000000000e+00,2.000000000000000000e+00,-1.000000000000000000e+00,4.799194335937500000e-01,3.137207031250000000e-01,-7.999877929687500000e-01,1.768188476562500000e-01
1.200000000000000000e+01,1.100000000000000000e+01,2.600000000000000000e+01,3.000000000000000000e+00,2.600000000000000000e+01,1.500000000000000000e+01,1.100000000000000000e+01,2.000000000000000000e+00,4.799194335937500000e-01,3.137207031250000000e-01,-7.999877929687500000e-01,1.768188476562500000e-01
-1.300000000000000000e+01,2.000000000000000000e+00,-2.400000000000000000e+01,1.000000000000000000e+00,1.000000000000000000e+00,2.000000000000000000e+00,-1.300000000000000000e+01,1.000000000000000000e+00,4.799194335937500000e-01,3.137207031250000000e-01,-7.999877929687500000e-01,1.768188476562500000e-01
-7.000000000000000000e+00,-1.500000000000000000e+01,-1.000000000000000000e+01,-1.400000000000000000e+01,-6.000000000000000000e+00,-3.000000000000000000e+00,-6.000000000000000000e+00,-5.000000000000000000e+00,4.799194335937500000e-01,3.136596679687500000e-01,-7.999267578125000000e-01,1.772460937500000000e-01
-6.000000000000000000e+00,-2.900000000000000000e+01,-2.000000000000000000e+01,-6.000000000000000000e+00,-1.400000000000000000e+01,-8.000000000000000000e+00,-6.000000000000000000e+00,-5.000000000000000000e+00,4.799194335937500000e-01,3.136596679687500000e-01,-7.999267578125000000e-01,1.772460937500000000e-01
-3.000000000000000000e+00,-5.000000000000000000e+00,1.000000000000000000e+00,-3.000000000000000000e+00,-1.400000000000000000e+01,-1.000000000000000000e+01,-1.000000000000000000e+01,-1.000000000000000000e+00,4.799194335937500000e-01,3.136596679687500000e-01,-7.999267578125000000e-01,1.772460937500000000e-01
1.300000000000000000e+01,4.000000000000000000e+00,1.200000000000000000e+01,3.000000000000000000e+00,0.000000000000000000e+00,-3.000000000000000000e+00,7.000000000000000000e+00,0.000000000000000000e+00,4.799194335937500000e-01,3.136596679687500000e-01,-7.999267578125000000e-01,1.772460937500000000e-01
-7.000000000000000000e+00,1.900000000000000000e+01,2.000000000000000000e+00,1.300000000000000000e+01,2.000000000000000000e+00,-3.000000000000000000e+00,-1.100000000000000000e+01,0.000000000000000000e+00,4.801635742187500000e-01,3.137817382812500000e-01,-7.996215820312500000e-01,1.777343750000000000e-01
-2.000000000000000000e+00,-4.000000000000000000e+00,-7.000000000000000000e+00,-8.000000000000000000e+00,6.000000000000000000e+00,5.000000000000000000e+00,-2.000000000000000000e+00,0.000000000000000000e+00,4.801635742187500000e-01,3.137817382812500000e-01,-7.996215820312500000e-01,1.777343750000000000e-01
-7.000000000000000000e+00,1.000000000000000000e+00,4.000000000000000000e+00,0.000000000000000000e+00,-5.000000000000000000e+00,-1.700000000000000000e+01,-6.000000000000000000e+00,2.000000000000000000e+00,4.801635742187500000e-01,3.137817382812500000e-01,-7.996215820312500000e-01,1.777343750000000000e-01
-1.000000000000000000e+00,-1.600000000000000000e+01,-3.400000000000000000e+01,-1.100000000000000000e+01,-2.000000000000000000e+00,5.000000000000000000e+00,3.000000000000000000e+00,-2.000000000000000000e+00,4.801635742187500000e-01,3.137817382812500000e-01,-7.996215820312500000e-01,1.777343750000000000e-01
3.000000000000000000e+00,5.000000000000000000e+00,1.900000000000000000e+01,1.000000000000000000e+00,1.000000000000000000e+00,5.000000000000000000e+00,-8.000000000000000000e+00,-8.000000000000000000e+00,4.802246093750000000e-01,3.140258789062500000e-01,-7.993774414062500000e-01,1.781616210937500000e-01
5.000000000000000000e+00,7.000000000000000000e+00,-9.000000000000000000e+00,-1.000000000000000000e+00,-2.000000000000000000e+00,-3.000000000000000000e+00,3.000000000000000000e+00,3.000000000000000000e+00,4.802246093750000000e-01,3.140258789062500000e-01,-7.993774414062500000e-01,1.781616210937500000e-01
-6.000000000000000000e+00,-1.100000000000000000e+01,-1.000000000000000000e+00,-1.000000000000000000e+00,-3.000000000000000000e+00,1.000000000000000000e+00,1.700000000000000000e+01,2.000000000000000000e+00,4.802246093750000000e-01,3.140258789062500000e-01,-7.993774414062500000e-01,1.781616210937500000e-01
-2.000000000000000000e+00,2.000000000000000000e+00,2.000000000000000000e+00,-7.000000000000000000e+00,-3.000000000000000000e+00,-1.000000000000000000e+00,0.000000000000000000e+00,3.000000000000000000e+00,4.802246093750000000e-01,3.140258789062500000e-01,-7.993774414062500000e-01,1.781616210937500000e-01
-5.000000000000000000e+00,-3.000000000000000000e+00,9.000000000000000000e+00,9.000000000000000000e+00,-4.000000000000000000e+00,-1.800000000000000000e+01,-5.000000000000000000e+01,-1.000000000000000000e+00,4.803466796875000000e-01,3.140258789062500000e-01,-7.992553710937500000e-01,1.783447265625000000e-01
4.000000000000000000e+00,8.000000000000000000e+00,1.600000000000000000e+01,-4.000000000000000000e+00,5.000000000000000000e+00,6.000000000000000000e+00,1.100000000000000000e+01,0.000000000000000000e+00,4.803466796875000000e-01,3.140258789062500000e-01,-7.992553710937500000e-01,1.783447265625000000e-01
0.000000000000000000e+00,-1.000000000000000000e+00,-3.100000000000000000e+01,-3.000000000000000000e+00,-8.000000000000000000e+00,-3.000000000000000000e+00,-2.400000000000000000e+01,-1.000000000000000000e+00,4.803466796875000000e-01,3.140258789062500000e-01,-7.992553710937500000e-01,1.783447265625000000e-01
0.000000000000000000e+00,-5.000000000000000000e+00,1.100000000000000000e+01,-8.000000000000000000e+00,-6.000000000000000000e+00,-4.000000000000000000e+00,-1.000000000000000000e+00,-3.000000000000000000e+00,4.803466796875000000e-01,3.140258789062500000e-01,-7.992553710937500000e-01,1.783447265625000000e-01
-1.000000000000000000e+00,-3.000000000000000000e+00,3.000000000000000000e+00,-2.000000000000000000e+00,1.500000000000000000e+01,1.400000000000000000e+01,1.300000000000000000e+01,1.000000000000000000e+00,4.805297851562500000e-01,3.137817382812500000e-01,-7.992553710937500000e-01,1.782226562500000000e-01
2.000000000000000000e+00,7.000000000000000000e+00,-6.000000000000000000e+00,5.000000000000000000e+00,-1.200000000000000000e+01,-7.000000000000000000e+00,-1.200000000000000000e+01,-3.000000000000000000e+00,4.805297851562500000e-01,3.137817382812500000e-01,-7.992553710937500000e-01,1.782226562500000000e-01
-3.000000000000000000e+00,-1.000000000000000000e+00,2.600000000000000000e+01,-3.000000000000000000e+00,8.000000000000000000e+00,7.000000000000000000e+00,-1.000000000000000000e+00,0.000000000000000000e+00,4.805297851562500000e-01,3.137817382812500000e-01,-7.992553710937500000e-01,1.782226562500000000e-01
2.000000000000000000e+00,-1.000000000000000000e+00,-2.400000000000000000e+01,4.000000000000000000e+00,5.000000000000000000e+00,-1.000000000000000000e+00,3.000000000000000000e+00,-2.000000000000000000e+00,4.805297851562500000e-01,3.137817382812500000e-01,-7.992553710937500000e-01,1.782226562500000000e-01
4.000000000000000000e+00,-2.000000000000000000e+00,1.500000000000000000e+01,-6.000000000000000000e+00,-4.000000000000000000e+00,-6.000000000000000000e+00,4.000000000000000000e+00,0.000000000000000000e+00,4.805297851562500000e-01,3.137207031250000000e-01,-7.993164062500000000e-01,1.782836914062500000e-01
-1.400000000000000000e+01,2.000000000000000000e+00,3.000000000000000000e+00,2.000000000000000000e+00,-4.000000000000000000e+00,-2.000000000000000000e+00,-3.000000000000000000e+00,0.000000000000000000e+00,4.805297851562500000e-01,3.137207031250000000e-01,-7.993164062500000000e-01,1.782836914062500000e-01
-3.000000000000000000e+00,-1.000000000000000000e+00,-1.300000000000000000e+01,-7.000000000000000000e+00,-1.000000000000000000e+01,-3.000000000000000000e+00,-2.000000000000000000e+00,-4.000000000000000000e+00,4.805297851562500000e-01,3.137207031250000000e-01,-7.993164062500000000e-01,1.782836914062500000e-01
-5.000000000000000000e+00,3.000000000000000000e+00,1.000000000000000000e+01,0.000000000000000000e+00,-5.000000000000000000e+00,-6.000000000000000000e+00,-9.000000000000000000e+00,-3.000000000000000000e+00,4.805297851562500000e-01,3.137207031250000000e-01,-7.993164062500000000e-01,1.782836914062500000e-01
4.000000000000000000e+00,-3.000000000000000000e+00,-3.000000000000000000e+00,-1.000000000000000000e+00,3.000000000000000000e+00,3.000000000000000000e+00,1.400000000000000000e+01,2.000000000000000000e+00,4.802246093750000000e-01,3.140869140625000000e-01,-7.993164062500000000e-01,1.784667968750000000e-01
3.000000000000000000e+00,0.000000000000000000e+00,-7.000000000000000000e+00,1.000000000000000000e+00,-7.000000000000000000e+00,-3.000000000000000000e+00,1.300000000000000000e+01,-2.000000000000000000e+00,4.802246093750000000e-01,3.140869140625000000e-01,-7.993164062500000000e-01,1.784667968750000000e-01
3.000000000000000000e+00,-3.000000000000000000e+00,-1.600000000000000000e+01,3.000000000000000000e+00,4.000000000000000000e+00,-1.000000000000000000e+00,-1.400000000000000000e+01,-2.000000000000000000e+00,4.802246093750000000e-01,3.140869140625000000e-01,-7.993164062500000000e-01,1.784667968750000000e-01
0.000000000000000000e+00,1.000000000000000000e+01,3.200000000000000000e+01,-2.000000000000000000e+00,3.000000000000000000e+00,6.000000000000000000e+00,-2.000000000000000000e+00,2.000000000000000000e+00,4.802246093750000000e-01,3.140869140625000000e-01,-7.993164062500000000e-01,1.784667968750000000e-01
0.000000000000000000e+00,3.000000000000000000e+00,4.000000000000000000e+00,8.000000000000000000e+00,8.000000000000000000e+00,0.000000000000000000e+00,1.100000000000000000e+01,2.000000000000000000e+00,4.799804687500000000e-01,3.142089843750000000e-01,-7.993164062500000000e-01,1.786499023437500000e-01
-1.200000000000000000e+01,-1.100000000000000000e+01,1.300000000000000000e+01,-2.000000000000000000e+00,-1.000000000000000000e+00,-2.000000000000000000e+00,-1.000000000000000000e+00,-1.000000000000000000e+00,4.799804687500000000e-01,3.142089843750000000e-01,-7.993164062500000000e-01,1.786499023437500000e-01
-7.000000000000000000e+00,-1.100000000000000000e+01,-3.400000000000000000e+01,5.000000000000000000e+00,-1.000000000000000000e+00,-5.000000000000000000e+00,-1.200000000000000000e+01,-6.000000000000000000e+00,4.799804687500000000e-01,3.142089843750000000e-01,-7.993164062500000000e-01,1.786499023437500000e-01
-4.000000000000000000e+00,-6.000000000000000000e+00,2.600000000000000000e+01,-1.000000000000000000e+01,-8.000000000000000000e+00,-8.000000000000000000e+00,2.000000000000000000e+00,-2.000000000000000000e+00,4.799804687500000000e-01,3.142089843750000000e-01,-7.993164062500000000e-01,1.786499023437500000e-01
3.000000000000000000e+00,4.000000000000000000e+00,1.200000000000000000e+01,1.000000000000000000e+00,-5.000000000000000000e+00,1.000000000000000000e+00,-2.800000000000000000e+01,0.000000000000000000e+00,4.797973632812500000e-01,3.145751953125000000e-01,-7.992553710937500000e-01,1.788940429687500000e-01
1.100000000000000000e+01,1.100000000000000000e+01,-1.300000000000000000e+01,-7.000000000000000000e+00,5.000000000000000000e+00,-1.000000000000000000e+00,9.000000000000000000e+00,1.000000000000000000e+00,4.797973632812500000e-01,3.145751953125000000e-01,-7.992553710937500000e-01,1.788940429687500000e-01
-3.000000000000000000e+00,6.000000000000000000e+00,4.000000000000000000e+01,8.000000000000000000e+00,4.000000000000000000e+00,5.000000000000000000e+00,-3.300000000000000000e+01,-2.000000000000000000e+00,4.797973632812500000e-01,3.145751953125000000e-01,-7.992553710937500000e-01,1.788940429687500000e-01
-1.000000000000000000e+00,-2.000000000000000000e+00,-5.000000000000000000e+00,2.000000000000000000e+00,4.000000000000000000e+00,1.000000000000000000e+00,-7.000000000000000000e+00,0.000000000000000000e+00,4.797973632812500000e-01,3.145751953125000000e-01,-7.992553710937500000e-01,1.788940429687500000e-01
-1.000000000000000000e+00,-4.000000000000000000e+00,-1.000000000000000000e+01,-6.000000000000000000e+00,-1.000000000000000000e+00,-1.000000000000000000e+00,5.000000000000000000e+00,0.000000000000000000e+00,4.795532226562500000e-01,3.149414062500000000e-01,-7.992553710937500000e-01,1.790161132812500000e-01
5.000000000000000000e+00,9.000000000000000000e+00,-1.200000000000000000e+01,7.000000000000000000e+00,5.000000000000000000e+00,1.000000000000000000e+00,-9.000000000000000000e+00,2.000000000000000000e+00,4.795532226562500000e-01,3.149414062500000000e-01,-7.992553710937500000e-01,1.790161132812500000e-01
1.000000000000000000e+00,-1.000000000000000000e+00,-5.000000000000000000e+00,-5.000000000000000000e+00,-1.200000000000000000e+01,-6.000000000000000000e+00,8.000000000000000000e+00,0.000000000000000000e+00,4.795532226562500000e-01,3.149414062500000000e-01,-7.992553710937500000e-01,1.790161132812500000e-01
-4.000000000000000000e+00,-2.000000000000000000e+00,-7.000000000000000000e+00,-5.000000000000000000e+00,-1.100000000000000000e+01,-4.000000000000000000e+00,1.000000000000000000e+00,-2.000000000000000000e+00,4.795532226562500000e-01,3.149414062500000000e-01,-7.992553710937500000e-01,1.790161132812500000e-01
4.000000000000000000e+00,4.000000000000000000e+00,1.000000000000000000e+00,-1.000000000000000000e+00,-3.000000000000000000e+00,-2.000000000000000000e+00,7.000000000000000000e+00,0.000000000000000000e+00,4.795532226562500000e-01,3.148803710937500000e-01,-7.992553710937500000e-01,1.790161132812500000e-01
-1.300000000000000000e+01,-3.000000000000000000e+00,4.000000000000000000e+00,5.000000000000000000e+00,6.000000000000000000e+00,3.000000000000000000e+00,2.000000000000000000e+00,-7.000000000000000000e+00,4.795532226562500000e-01,3.148803710937500000e-01,-7.992553710937500000e-01,1.790161132812500000e-01
0.000000000000000000e+00,-1.800000000000000000e+01,-1.200000000000000000e+01,-6.000000000000000000e+00,9.000000000000000000e+00,1.000000000000000000e+00,1.000000000000000000e+01,6.000000000000000000e+00,4.795532226562500000e-01,3.148803710937500000e-01,-7.992553710937500000e-01,1.790161132812500000e-01
-6.000000000000000000e+00,-4.000000000000000000e+00,-1.800000000000000000e+01,2.000000000000000000e+00,4.000000000000000000e+00,8.000000000000000000e+00,6.000000000000000000e+00,-1.000000000000000000e+00,4.795532226562500000e-01,3.148803710937500000e-01,-7.992553710937500000e-01,1.790161132812500000e-01
1.000000000000000000e+00,-8.000000000000000000e+00,-1.800000000000000000e+01,-5.000000000000000000e+00,-8.000000000000000000e+00,-6.000000000000000000e+00,-5.000000000000000000e+00,-3.000000000000000000e+00,4.796752929687500000e-01,3.148803710937500000e-01,-7.991333007812500000e-01,1.791992187500000000e-01
4.000000000000000000e+00,5.000000000000000000e+00,1.100000000000000000e+01,-6.000000000000000000e+00,-9.000000000000000000e+00,-5.000000000000000000e+00,0.000000000000000000e+00,1.000000000000000000e+00,4.796752929687500000e-01,3.148803710937500000e-01,-7.991333007812500000e-01,1.791992187500000000e-01
-1.000000000000000000e+00,3.000000000000000000e+00,1.100000000000000000e+01,2.000000000000000000e+00,-8.000000000000000000e+00,-4.000000000000000000e+00,-8.000000000000000000e+00,-4.000000000000000000e+00,4.796752929687500000e-01,3.148803710937500000e-01,-7.991333007812500000e-01,1.791992187500000000e-01
3.000000000000000000e+00,2.000000000000000000e+00,3.000000000000000000e+00,6.000000000000000000e+00,3.000000000000000000e+00,2.000000000000000000e+00,0.000000000000000000e+00,-1.000000000000000000e+00,4.796752929687500000e-01,3.148803710937500000e-01,-7.991333007812500000e-01,1.791992187500000000e-01
-4.000000000000000000e+00,1.000000000000000000e+00,-3.000000000000000000e+00,-3.000000000000000000e+00,2.000000000000000000e+00,1.000000000000000000e+00,7.000000000000000000e+00,0.000000000000000000e+00,4.796752929687500000e-01,3.155517578125000000e-01,-7.987670898437500000e-01,1.795043945312500000e-01
6.000000000000000000e+00,-4.000000000000000000e+00,-2.000000000000000000e+00,9.000000000000000000e+00,-5.000000000000000000e+00,-1.200000000000000000e+01,-2.200000000000000000e+01,-2.000000000000000000e+00,4.796752929687500000e-01,3.155517578125000000e-01,-7.987670898437500000e-01,1.795043945312500000e-01
-2.000000000000000000e+00,2.000000000000000000e+00,-5.000000000000000000e+00,-8.000000000000000000e+00,5.000000000000000000e+00,1.000000000000000000e+00,9.000000000000000000e+00,-2.000000000000000000e+00,4.796752929687500000e-01,3.155517578125000000e-01,-7.987670898437500000e-01,1.795043945312500000e-01
3.000000000000000000e+00,4.000000000000000000e+00,-1.000000000000000000e+00,-8.000000000000000000e+00,-4.000000000000000000e+00,9.000000000000000000e+00,1.400000000000000000e+01,5.000000000000000000e+00,4.796752929687500000e-01,3.155517578125000000e-01,-7.987670898437500000e-01,1.795043945312500000e-01
1.000000000000000000e+00,-5.000000000000000000e+00,-1.900000000000000000e+01,-6.000000000000000000e+00,1.000000000000000000e+00,8.000000000000000000e+00,1.300000000000000000e+01,-1.000000000000000000e+00,4.797363281250000000e-01,3.160400390625000000e-01,-7.985229492187500000e-01,1.798095703125000000e-01
-1.200000000000000000e+01,-8.000000000000000000e+00,-1.000000000000000000e+01,5.000000000000000000e+00,8.000000000000000000e+00,5.000000000000000000e+00,-7.000000000000000000e+00,-3.000000000000000000e+00,4.797363281250000000e-01,3.160400390625000000e-01,-7.985229492187500000e-01,1.798095703125000000e-01
-1.000000000000000000e+00,-8.000000000000000000e+00,2.700000000000000000e+01,1.000000000000000000e+00,-1.200000000000000000e+01,-1.300000000000000000e+01,-1.000000000000000000e+00,-3.000000000000000000e+00,4.797363281250000000e-01,3.160400390625000000e-01,-7.985229492187500000e-01,1.798095703125000000e-01
0.000000000000000000e+00,4.000000000000000000e+00,-2.800000000000000000e+01,-6.000000000000000000e+00,-3.000000000000000000e+00,-5.000000000000000000e+00,-6.000000000000000000e+00,-3.000000000000000000e+00,4.797363281250000000e-01,3.160400390625000000e-01,-7.985229492187500000e-01,1.798095703125000000e-01
2.000000000000000000e+00,3.000000000000000000e+00,2.000000000000000000e+00,8.000000000000000000e+00,-6.000000000000000000e+00,-4.000000000000000000e+00,6.000000000000000000e+00,1.000000000000000000e+00,4.799194335937500000e-01,3.165283203125000000e-01,-7.981567382812500000e-01,1.801147460937500000e-01
5.000000000000000000e+00,-2.000000000000000000e+00,-2.300000000000000000e+01,-1.400000000000000000e+01,-3.000000000000000000e+00,1.000000000000000000e+00,-9.000000000000000000e+00,1.000000000000000000e+00,4.799194335937500000e-01,3.165283203125000000e-01,-7.981567382812500000e-01,1.801147460937500000e-01
4.000000000000000000e+00,1.200000000000000000e+01,4.000000000000000000e+00,1.000000000000000000e+00,3.000000000000000000e+00,-1.000000000000000000e+00,-5.000000000000000000e+00,1.000000000000000000e+00,4.799194335937500000e-01,3.165283203125000000e-01,-7.981567382812500000e-01,1.801147460937500000e-01
-1.100000000000000000e+01,-6.000000000000000000e+00,7.000000000000000000e+00,1.000000000000000000e+01,1.000000000000000000e+01,3.000000000000000000e+00,4.000000000000000000e+00,-4.000000000000000000e+00,4.799194335937500000e-01,3.165283203125000000e-01,-7.981567382812500000e-01,1.801147460937500000e-01
-1.400000000000000000e+01,-6.000000000000000000e+00,2.100000000000000000e+01,-3.000000000000000000e+00,-5.000000000000000000e+00,-1.000000000000000000e+00,5.000000000000000000e+00,-2.000000000000000000e+00,4.802856445312500000e-01,3.167724609375000000e-01,-7.977294921875000000e-01,1.804199218750000000e-01
7.000000000000000000e+00,4.000000000000000000e+00,2.000000000000000000e+00,4.000000000000000000e+00,-4.000000000000000000e+00,3.000000000000000000e+00,6.000000000000000000e+00,2.000000000000000000e+00,4.802856445312500000e-01,3.167724609375000000e-01,-7.977294921875000000e-01,1.804199218750000000e-01
1.500000000000000000e+01,1.200000000000000000e+01,1.000000000000000000e+00,2.000000000000000000e+00,-2.000000000000000000e+00,-1.000000000000000000e+00,1.500000000000000000e+01,-3.000000000000000000e+00,4.802856445312500000e-01,3.167724609375000000e-01,-7.977294921875000000e-01,1.804199218750000000e-01
-2.200000000000000000e+01,-4.000000000000000000e+00,1.800000000000000000e+01,6.000000000000000000e+00,3.000000000000000000e+00,3.000000000000000000e+00,-1.400000000000000000e+01,0.000000000000000000e+00,4.802856445312500000e-01,3.167724609375000000e-01,-7.977294921875000000e-01,1.804199218750000000e-01
1.000000000000000000e+00,-5.000000000000000000e+00,-2.700000000000000000e+01,-1.000000000000000000e+00,-1.000000000000000000e+00,-4.000000000000000000e+00,-3.000000000000000000e+00,-5.000000000000000000e+00,4.806518554687500000e-01,3.168334960937500000e-01,-7.974243164062500000e-01,1.808471679687500000e-01
0.000000000000000000e+00,-9.000000000000000000e+00,1.100000000000000000e+01,-1.100000000000000000e+01,-4.000000000000000000e+00,0.000000000000000000e+00,3.000000000000000000e+00,-3.000000000000000000e+00,4.806518554687500000e-01,3.168334960937500000e-01,-7.974243164062500000e-01,1.808471679687500000e-01
-1.000000000000000000e+00,-2.000000000000000000e+00,-1.700000000000000000e+01,-1.000000000000000000e+00,-3.000000000000000000e+00,1.000000000000000000e+00,5.000000000000000000e+00,1.000000000000000000e+00,4.806518554687500000e-01,3.168334960937500000e-01,-7.974243164062500000e-01,1.808471679687500000e-01
9.000000000000000000e+00,4.000000000000000000e+00,5.000000000000000000e+00,-2.000000000000000000e+00,-1.000000000000000000e+00,-7.000000000000000000e+00,-3.200000000000000000e+01,1.000000000000000000e+00,4.806518554687500000e-01,3.168334960937500000e-01,-7.974243164062500000e-01,1.808471679687500000e-01
-7.000000000000000000e+00,2.000000000000000000e+00,1.900000000000000000e+01,3.000000000000000000e+00,-7.000000000000000000e+00,-7.000000000000000000e+00,1.500000000000000000e+01,1.000000000000000000e+00,4.807739257812500000e-01,3.170166015625000000e-01,-7.971191406250000000e-01,1.814575195312500000e-01
2.000000000000000000e+00,-2.000000000000000000e+00,-1.600000000000000000e+01,-1.000000000000000000e+00,9.000000000000000000e+00,1.200000000000000000e+01,2.400000000000000000e+01,0.000000000000000000e+00,4.807739257812500000e-01,3.170166015625000000e-01,-7.971191406250000000e-01,1.814575195312500000e-01
-2.000000000000000000e+00,2.000000000000000000e+00,6.000000000000000000e+00,-4.000000000000000000e+00,-4.000000000000000000e+00,1.000000000000000000e+00,-2.900000000000000000e+01,-3.000000000000000000e+00,4.807739257812500000e-01,3.170166015625000000e-01,-7.971191406250000000e-01,1.814575195312500000e-01
-6.000000000000000000e+00,0.000000000000000000e+00,-4.000000000000000000e+00,8.000000000000000000e+00,1.000000000000000000e+00,-1.000000000000000000e+00,1.000000000000000000e+00,-2.000000000000000000e+00,4.807739257812500000e-01,3.170166015625000000e-01,-7.971191406250000000e-01,1.814575195312500000e-01
-6.000000000000000000e+00,-1.300000000000000000e+01,6.000000000000000000e+00,-1.800000000000000000e+01,-4.000000000000000000e+00,-2.000000000000000000e+00,-4.000000000000000000e+00,-4.000000000000000000e+00,4.807739257812500000e-01,3.176269531250000000e-01,-7.967529296875000000e-01,1.819458007812500000e-01
4.000000000000000000e+00,2.000000000000000000e+00,6.000000000000000000e+00,0.000000000000000000e+00,-8.000000000000000000e+00,-1.000000000000000000e+01,-3.000000000000000000e+00,-1.000000000000000000e+00,4.807739257812500000e-01,3.176269531250000000e-01,-7.967529296875000000e-01,1.819458007812500000e-01
-1.000000000000000000e+00,1.000000000000000000e+00,-6.000000000000000000e+00,-2.000000000000000000e+00,2.000000000000000000e+00,3.000000000000000000e+00,1.200000000000000000e+01,3.000000000000000000e+00,4.807739257812500000e-01,3.176269531250000000e-01,-7.967529296875000000e-01,1.819458007812500000e-01
7.000000000000000000e+00,4.000000000000000000e+00,5.000000000000000000e+00,1.700000000000000000e+01,3.000000000000000000e+00,1.000000000000000000e+00,9.000000000000000000e+00,-1.000000000000000000e+00,4.807739257812500000e-01,3.176269531250000000e-01,-7.967529296875000000e-01,1.819458007812500000e-01
2.000000000000000000e+00,-6.000000000000000000e+00,-7.000000000000000000e+00,-1.300000000000000000e+01,6.000000000000000000e+00,1.000000000000000000e+00,-4.000000000000000000e+00,-2.000000000000000000e+00,4.807739257812500000e-01,3.182373046875000000e-01,-7.964477539062500000e-01,1.823120117187500000e-01
-1.200000000000000000e+01,2.000000000000000000e+00,-1.400000000000000000e+01,0.000000000000000000e+00,-6.000000000000000000e+00,-1.000000000000000000e+00,-1.000000000000000000e+01,-1.000000000000000000e+00,4.807739257812500000e-01,3.182373046875000000e-01,-7.964477539062500000e-01,1.823120117187500000e-01
-9.000000000000000000e+00,-1.000000000000000000e+01,1.000000000000000000e+00,1.000000000000000000e+01,8.000000000000000000e+00,-1.000000000000000000e+00,-5.000000000000000000e+00,-2.000000000000000000e+00,4.807739257812500000e-01,3.182373046875000000e-01,-7.964477539062500000e-01,1.823120117187500000e-01
3.000000000000000000e+00,-1.000000000000000000e+01,5.000000000000000000e+00,-1.000000000000000000e+01,-7.000000000000000000e+00,-3.000000000000000000e+00,9.000000000000000000e+00,-2.000000000000000000e+00,4.807739257812500000e-01,3.182373046875000000e-01,-7.964477539062500000e-01,1.823120117187500000e-01
0.000000000000000000e+00,7.000000000000000000e+00,-5.000000000000000000e+00,0.000000000000000000e+00,-1.000000000000000000e+00,0.000000000000000000e+00,-4.000000000000000000e+00,-1.000000000000000000e+00,4.805908203125000000e-01,3.184814453125000000e-01,-7.964477539062500000e-01,1.823730468750000000e-01
4.000000000000000000e+00,-2.000000000000000000e+00,1.000000000000000000e+01,-1.000000000000000000e+00,-4.000000000000000000e+00,-5.000000000000000000e+00,-1.100000000000000000e+01,0.000000000000000000e+00,4.805908203125000000e-01,3.184814453125000000e-01,-7.964477539062500000e-01,1.823730468750000000e-01
-5.000000000000000000e+00,-1.000000000000000000e+00,-2.600000000000000000e+01,-8.000000000000000000e+00,-7.000000000000000000e+00,0.000000000000000000e+00,-3.000000000000000000e+00,-2.000000000000000000e+00,4.805908203125000000e-01,3.184814453125000000e-01,-7.964477539062500000e-01,1.823730468750000000e-01
8.000000000000000000e+00,9.000000000000000000e+00,1.600000000000000000e+01,6.000000000000000000e+00,1.200000000000000000e+01,8.000000000000000000e+00,7.000000000000000000e+00,3.000000000000000000e+00,4.805908203125000000e-01,3.184814453125000000e-01,-7.964477539062500000e-01,1.823730468750000000e-01
-2.000000000000000000e+00,-8.000000000000000000e+00,-2.900000000000000000e+01,8.000000000000000000e+00,3.000000000000000000e+00,7.000000000000000000e+00,2.100000000000000000e+01,0.000000000000000000e+00,4.804687500000000000e-01,3.190307617187500000e-01,-7.962036132812500000e-01,1.828002929687500000e-01
-1.000000000000000000e+01,-1.000000000000000000e+01,-4.300000000000000000e+01,-1.300000000000000000e+01,-9.000000000000000000e+00,-2.000000000000000000e+00,-7.000000000000000000e+00,0.000000000000000000e+00,4.804687500000000000e-01,3.190307617187500000e-01,-7.962036132812500000e-01,1.828002929687500000e-01
-1.000000000000000000e+00,-1.000000000000000000e+01,1.000000000000000000e+01,1.000000000000000000e+00,-6.000000000000000000e+00,0.000000000000000000e+00,3.500000000000000000e+01,-2.000000000000000000e+00,4.804687500000000000e-01,3.190307617187500000e-01,-7.962036132812500000e-01,1.828002929687500000e-01
1.000000000000000000e+01,-5.000000000000000000e+00,-1.000000000000000000e+00,3.000000000000000000e+00,-9.000000000000000000e+00,-6.000000000000000000e+00,3.000000000000000000e+00,-4.000000000000000000e+00,4.804687500000000000e-01,3.190307617187500000e-01,-7.962036132812500000e-01,1.828002929687500000e-01
-1.000000000000000000e+01,1.000000000000000000e+00,-2.000000000000000000e+00,-1.200000000000000000e+01,1.000000000000000000e+00,0.000000000000000000e+00,1.000000000000000000e+00,-1.000000000000000000e+00,4.801635742187500000e-01,3.195800781250000000e-01,-7.960815429687500000e-01,1.832275390625000000e-01
-1.000000000000000000e+00,2.000000000000000000e+00,1.500000000000000000e+01,4.000000000000000000e+00,5.000000000000000000e+00,-3.000000000000000000e+00,-4.000000000000000000e+00,-5.000000000000000000e+00,4.801635742187500000e-01,3.195800781250000000e-01,-7.960815429687500000e-01,1.832275390625000000e-01
3.000000000000000000e+00,6.000000000000000000e+00,-1.600000000000000000e+01,-4.000000000000000000e+00,2.000000000000000000e+00,7.000000000000000000e+00,1.000000000000000000e+00,8.000000000000000000e+00,4.801635742187500000e-01,3.195800781250000000e-01,-7.960815429687500000e-01,1.832275390625000000e-01
1.000000000000000000e+01,-2.000000000000000000e+00,-9.000000000000000000e+00,0.000000000000000000e+00,0.000000000000000000e+00,1.000000000000000000e+00,-3.000000000000000000e+00,2.000000000000000000e+00,4.801635742187500000e-01,3.195800781250000000e-01,-7.960815429687500000e-01,1.832275390625000000e-01
-1.100000000000000000e+01,9.000000000000000000e+00,4.200000000000000000e+01,5.000000000000000000e+00,-6.000000000000000000e+00,-8.000000000000000000e+00,-1.000000000000000000e+00,-2.000000000000000000e+00,4.798583984375000000e-01,3.203735351562500000e-01,-7.958374023437500000e-01,1.837768554687500000e-01
-9.000000000000000000e+00,-1.500000000000000000e+01,-2.500000000000000000e+01,-1.300000000000000000e+01,-1.000000000000000000e+00,-3.000000000000000000e+00,-5.000000000000000000e+00,-5.000000000000000000e+00,4.798583984375000000e-01,3.203735351562500000e-01,-7.958374023437500000e-01,1.837768554687500000e-01
-1.100000000000000000e+01,3.000000000000000000e+00,1.000000000000000000e+00,8.000000000000000000e+00,5.000000000000000000e+00,1.000000000000000000e+00,-6.000000000000000000e+00,-3.000000000000000000e+00,4.798583984375000000e-01,3.203735351562500000e-01,-7.958374023437500000e-01,1.837768554687500000e-01
-4.000000000000000000e+00,-7.000000000000000000e+00,-9.000000000000000000e+00,-2.100000000000000000e+01,-1.700000000000000000e+01,-1.100000000000000000e+01,-2.000000000000000000e+00,-4.000000000000000000e+00,4.798583984375000000e-01,3.203735351562500000e-01,-7.958374023437500000e-01,1.837768554687500000e-01
9.000000000000000000e+00,8.000000000000000000e+00,1.500000000000000000e+01,8.000000000000000000e+00,1.000000000000000000e+01,3.000000000000000000e+00,-8.000000000000000000e+00,1.000000000000000000e+00,4.794311523437500000e-01,3.212280273437500000e-01,-7.956542968750000000e-01,1.840209960937500000e-01
7.000000000000000000e+00,6.000000000000000000e+00,2.100000000000000000e+01,1.100000000000000000e+01,1.100000000000000000e+01,9.000000000000000000e+00,2.800000000000000000e+01,5.000000000000000000e+00,4.794311523437500000e-01,3.212280273437500000e-01,-7.956542968750000000e-01,1.840209960937500000e-01
