9.000000000000000000e+00,1.200000000000000000e+01,3.500000000000000000e+01,2.400000000000000000e+01,1.100000000000000000e+01,5.000000000000000000e+00,1.500000000000000000e+01,1.000000000000000000e+00,5.148315429687500000e-01,1.466674804687500000e-01,-8.430175781250000000e-01,5.230712890625000000e-02
-9.000000000000000000e+00,-2.000000000000000000e+00,-4.900000000000000000e+01,0.000000000000000000e+00,-7.000000000000000000e+00,0.000000000000000000e+00,7.000000000000000000e+00,0.000000000000000000e+00,5.148315429687500000e-01,1.466674804687500000e-01,-8.430175781250000000e-01,5.230712890625000000e-02
6.000000000000000000e+00,-5.000000000000000000e+00,8.000000000000000000e+00,5.000000000000000000e+00,-1.500000000000000000e+01,-3.000000000000000000e+00,-1.100000000000000000e+01,-1.000000000000000000e+00,5.148315429687500000e-01,1.466674804687500000e-01,-8.430175781250000000e-01,5.230712890625000000e-02
5.000000000000000000e+00,4.000000000000000000e+00,-1.300000000000000000e+01,-1.900000000000000000e+01,-1.000000000000000000e+00,-2.000000000000000000e+00,1.000000000000000000e+00,1.000000000000000000e+00,5.148315429687500000e-01,1.466674804687500000e-01,-8.430175781250000000e-01,5.230712890625000000e-02
-2.000000000000000000e+00,-2.000000000000000000e+00,2.000000000000000000e+01,-1.600000000000000000e+01,-3.000000000000000000e+00,-3.000000000000000000e+00,-8.000000000000000000e+00,-4.000000000000000000e+00,5.123901367187500000e-01,1.491088867187500000e-01,-8.442993164062500000e-01,4.876708984375000000e-02
2.000000000000000000e+00,0.000000000000000000e+00,1.000000000000000000e+01,-2.000000000000000000e+00,3.000000000000000000e+00,3.000000000000000000e+00,7.000000000000000000e+00,1.000000000000000000e+00,5.123901367187500000e-01,1.491088867187500000e-01,-8.442993164062500000e-01,4.876708984375000000e-02
-5.000000000000000000e+00,2.000000000000000000e+00,6.000000000000000000e+00,1.200000000000000000e+01,-6.000000000000000000e+00,-4.000000000000000000e+00,-2.000000000000000000e+00,-1.000000000000000000e+00,5.123901367187500000e-01,1.491088867187500000e-01,-8.442993164062500000e-01,4.876708984375000000e-02
1.000000000000000000e+00,-4.000000000000000000e+00,-2.000000000000000000e+01,9.000000000000000000e+00,4.000000000000000000e+00,-1.000000000000000000e+00,3.000000000000000000e+00,0.000000000000000000e+00,5.123901367187500000e-01,1.491088867187500000e-01,-8.442993164062500000e-01,4.876708984375000000e-02
5.000000000000000000e+00,2.000000000000000000e+00,1.200000000000000000e+01,-8.000000000000000000e+00,-5.000000000000000000e+00,0.000000000000000000e+00,3.000000000000000000e+00,-1.000000000000000000e+00,5.102539062500000000e-01,1.502685546875000000e-01,-8.455810546875000000e-01,4.522705078125000000e-02
-1.600000000000000000e+01,-3.000000000000000000e+00,2.200000000000000000e+01,1.500000000000000000e+01,1.200000000000000000e+01,4.000000000000000000e+00,2.000000000000000000e+00,-4.000000000000000000e+00,5.102539062500000000e-01,1.502685546875000000e-01,-8.455810546875000000e-01,4.522705078125000000e-02
3.000000000000000000e+00,-2.000000000000000000e+00,-2.000000000000000000e+01,-1.600000000000000000e+01,-4.000000000000000000e+00,-1.000000000000000000e+00,0.000000000000000000e+00,0.000000000000000000e+00,5.102539062500000000e-01,1.502685546875000000e-01,-8.455810546875000000e-01,4.522705078125000000e-02
5.000000000000000000e+00,8.000000000000000000e+00,1.700000000000000000e+01,9.000000000000000000e+00,2.000000000000000000e+00,-6.000000000000000000e+00,-5.000000000000000000e+00,-2.000000000000000000e+00,5.102539062500000000e-01,1.502685546875000000e-01,-8.455810546875000000e-01,4.522705078125000000e-02
-7.000000000000000000e+00,-7.000000000000000000e+00,1.400000000000000000e+01,5.000000000000000000e+00,-4.000000000000000000e+00,-9.000000000000000000e+00,-1.600000000000000000e+01,0.000000000000000000e+00,5.083618164062500000e-01,1.508789062500000000e-01,-8.467407226562500000e-01,4.315185546875000000e-02
1.100000000000000000e+01,-3.000000000000000000e+00,-8.000000000000000000e+00,-8.000000000000000000e+00,-8.000000000000000000e+00,0.000000000000000000e+00,3.000000000000000000e+00,-2.000000000000000000e+00,5.083618164062500000e-01,1.508789062500000000e-01,-8.467407226562500000e-01,4.315185546875000000e-02
3.000000000000000000e+00,3.000000000000000000e+00,-1.000000000000000000e+00,-5.000000000000000000e+00,1.000000000000000000e+00,-2.000000000000000000e+00,1.000000000000000000e+00,-2.000000000000000000e+00,5.083618164062500000e-01,1.508789062500000000e-01,-8.467407226562500000e-01,4.315185546875000000e-02
-1.800000000000000000e+01,1.000000000000000000e+00,1.000000000000000000e+00,2.000000000000000000e+00,6.000000000000000000e+00,3.000000000000000000e+00,3.000000000000000000e+00,-1.000000000000000000e+00,5.083618164062500000e-01,1.508789062500000000e-01,-8.467407226562500000e-01,4.315185546875000000e-02
3.000000000000000000e+00,5.000000000000000000e+00,9.000000000000000000e+00,1.800000000000000000e+01,1.000000000000000000e+00,-4.000000000000000000e+00,-4.000000000000000000e+00,-3.000000000000000000e+00,5.064697265625000000e-01,1.528320312500000000e-01,-8.475341796875000000e-01,4.260253906250000000e-02
-4.000000000000000000e+00,-7.000000000000000000e+00,-1.200000000000000000e+01,-2.500000000000000000e+01,-9.000000000000000000e+00,-1.000000000000000000e+00,-7.000000000000000000e+00,-2.000000000000000000e+00,5.064697265625000000e-01,1.528320312500000000e-01,-8.475341796875000000e-01,4.260253906250000000e-02
-2.000000000000000000e+00,-1.000000000000000000e+00,0.000000000000000000e+00,4.000000000000000000e+00,2.000000000000000000e+00,-2.000000000000000000e+00,-2.000000000000000000e+00,-2.000000000000000000e+00,5.064697265625000000e-01,1.528320312500000000e-01,-8.475341796875000000e-01,4.260253906250000000e-02
1.200000000000000000e+01,-2.000000000000000000e+00,1.000000000000000000e+01,3.000000000000000000e+00,-4.000000000000000000e+00,3.000000000000000000e+00,4.000000000000000000e+00,-3.000000000000000000e+00,5.064697265625000000e-01,1.528320312500000000e-01,-8.475341796875000000e-01,4.260253906250000000e-02
-9.000000000000000000e+00,4.000000000000000000e+00,0.000000000000000000e+00,1.000000000000000000e+00,3.000000000000000000e+00,1.000000000000000000e+00,7.000000000000000000e+00,1.000000000000000000e+00,5.050659179687500000e-01,1.547851562500000000e-01,-8.480834960937500000e-01,4.193115234375000000e-02
-5.000000000000000000e+00,-3.000000000000000000e+00,-6.000000000000000000e+00,-1.300000000000000000e+01,-9.000000000000000000e+00,-9.000000000000000000e+00,-2.300000000000000000e+01,-1.000000000000000000e+00,5.050659179687500000e-01,1.547851562500000000e-01,-8.480834960937500000e-01,4.193115234375000000e-02
-4.000000000000000000e+00,-4.000000000000000000e+00,6.000000000000000000e+00,1.300000000000000000e+01,-7.000000000000000000e+00,5.000000000000000000e+00,3.900000000000000000e+01,3.000000000000000000e+00,5.050659179687500000e-01,1.547851562500000000e-01,-8.480834960937500000e-01,4.193115234375000000e-02
5.000000000000000000e+00,2.000000000000000000e+00,-5.000000000000000000e+00,2.000000000000000000e+00,6.000000000000000000e+00,1.000000000000000000e+00,-2.300000000000000000e+01,-5.000000000000000000e+00,5.050659179687500000e-01,1.547851562500000000e-01,-8.480834960937500000e-01,4.193115234375000000e-02
2.000000000000000000e+00,0.000000000000000000e+00,-4.000000000000000000e+00,1.500000000000000000e+01,3.000000000000000000e+00,1.000000000000000000e+00,-2.000000000000000000e+00,2.000000000000000000e+00,5.038452148437500000e-01,1.567993164062500000e-01,-8.484497070312500000e-01,4.101562500000000000e-02
-1.100000000000000000e+01,4.000000000000000000e+00,1.000000000000000000e+01,-2.100000000000000000e+01,-7.000000000000000000e+00,-1.000000000000000000e+00,-4.000000000000000000e+00,-1.000000000000000000e+00,5.038452148437500000e-01,1.567993164062500000e-01,-8.484497070312500000e-01,4.101562500000000000e-02
3.000000000000000000e+00,7.000000000000000000e+00,4.000000000000000000e+00,-1.000000000000000000e+00,-4.000000000000000000e+00,-7.000000000000000000e+00,-1.100000000000000000e+01,0.000000000000000000e+00,5.038452148437500000e-01,1.567993164062500000e-01,-8.484497070312500000e-01,4.101562500000000000e-02
-6.000000000000000000e+00,-7.000000000000000000e+00,-1.000000000000000000e+01,-1.300000000000000000e+01,-1.400000000000000000e+01,-2.000000000000000000e+00,2.000000000000000000e+00,-2.000000000000000000e+00,5.038452148437500000e-01,1.567993164062500000e-01,-8.484497070312500000e-01,4.101562500000000000e-02
-1.000000000000000000e+00,-1.000000000000000000e+00,-6.000000000000000000e+00,1.800000000000000000e+01,2.100000000000000000e+01,5.000000000000000000e+00,8.000000000000000000e+00,1.000000000000000000e+00,5.029907226562500000e-01,1.577148437500000000e-01,-8.488159179687500000e-01,4.003906250000000000e-02
3.000000000000000000e+00,-6.000000000000000000e+00,6.000000000000000000e+00,4.000000000000000000e+00,-9.000000000000000000e+00,-3.000000000000000000e+00,1.000000000000000000e+00,-2.000000000000000000e+00,5.029907226562500000e-01,1.577148437500000000e-01,-8.488159179687500000e-01,4.003906250000000000e-02
-1.000000000000000000e+00,4.000000000000000000e+00,4.000000000000000000e+00,-7.000000000000000000e+00,-2.000000000000000000e+00,-5.000000000000000000e+00,-1.000000000000000000e+00,-2.000000000000000000e+00,5.029907226562500000e-01,1.577148437500000000e-01,-8.488159179687500000e-01,4.003906250000000000e-02
1.000000000000000000e+00,-2.000000000000000000e+00,-7.000000000000000000e+00,0.000000000000000000e+00,-4.000000000000000000e+00,-4.000000000000000000e+00,4.000000000000000000e+00,0.000000000000000000e+00,5.029907226562500000e-01,1.577148437500000000e-01,-8.488159179687500000e-01,4.003906250000000000e-02
-3.000000000000000000e+00,-1.000000000000000000e+00,-5.000000000000000000e+00,-1.300000000000000000e+01,-5.000000000000000000e+00,-7.000000000000000000e+00,-1.200000000000000000e+01,-2.000000000000000000e+00,5.028076171875000000e-01,1.582031250000000000e-01,-8.488769531250000000e-01,3.912353515625000000e-02
5.000000000000000000e+00,3.000000000000000000e+00,1.000000000000000000e+00,1.100000000000000000e+01,2.000000000000000000e+00,7.000000000000000000e+00,3.400000000000000000e+01,-1.000000000000000000e+00,5.028076171875000000e-01,1.582031250000000000e-01,-8.488769531250000000e-01,3.912353515625000000e-02
-9.000000000000000000e+00,-6.000000000000000000e+00,6.000000000000000000e+00,-5.000000000000000000e+00,4.000000000000000000e+00,3.000000000000000000e+00,-4.000000000000000000e+00,-3.000000000000000000e+00,5.028076171875000000e-01,1.582031250000000000e-01,-8.488769531250000000e-01,3.912353515625000000e-02
7.000000000000000000e+00,5.000000000000000000e+00,1.200000000000000000e+01,7.000000000000000000e+00,5.000000000000000000e+00,1.000000000000000000e+00,2.000000000000000000e+00,2.000000000000000000e+00,5.028076171875000000e-01,1.582031250000000000e-01,-8.488769531250000000e-01,3.912353515625000000e-02
-1.000000000000000000e+00,-3.000000000000000000e+00,-3.300000000000000000e+01,-1.600000000000000000e+01,-1.100000000000000000e+01,-2.000000000000000000e+00,2.000000000000000000e+00,1.000000000000000000e+00,5.021972656250000000e-01,1.593627929687500000e-01,-8.490600585937500000e-01,3.857421875000000000e-02
-2.000000000000000000e+00,-7.000000000000000000e+00,3.000000000000000000e+00,0.000000000000000000e+00,-2.000000000000000000e+00,-5.000000000000000000e+00,-7.000000000000000000e+00,0.000000000000000000e+00,5.021972656250000000e-01,1.593627929687500000e-01,-8.490600585937500000e-01,3.857421875000000000e-02
5.000000000000000000e+00,-1.000000000000000000e+00,9.000000000000000000e+00,6.000000000000000000e+00,-5.000000000000000000e+00,-3.000000000000000000e+00,-2.000000000000000000e+00,0.000000000000000000e+00,5.021972656250000000e-01,1.593627929687500000e-01,-8.490600585937500000e-01,3.857421875000000000e-02
-6.000000000000000000e+00,-2.000000000000000000e+00,-2.100000000000000000e+01,-8.000000000000000000e+00,-1.000000000000000000e+01,-5.000000000000000000e+00,-1.000000000000000000e+00,-3.000000000000000000e+00,5.021972656250000000e-01,1.593627929687500000e-01,-8.490600585937500000e-01,3.857421875000000000e-02
-3.000000000000000000e+00,0.000000000000000000e+00,1.600000000000000000e+01,9.000000000000000000e+00,1.000000000000000000e+01,2.000000000000000000e+00,1.000000000000000000e+00,-1.000000000000000000e+00,5.015869140625000000e-01,1.613159179687500000e-01,-8.490600585937500000e-01,3.784179687500000000e-02
-1.000000000000000000e+00,1.000000000000000000e+00,1.100000000000000000e+01,4.000000000000000000e+00,8.000000000000000000e+00,3.000000000000000000e+00,-3.000000000000000000e+00,-2.000000000000000000e+00,5.015869140625000000e-01,1.613159179687500000e-01,-8.490600585937500000e-01,3.784179687500000000e-02
-5.000000000000000000e+00,-7.000000000000000000e+00,-7.000000000000000000e+00,-4.000000000000000000e+00,4.000000000000000000e+00,-2.000000000000000000e+00,-7.000000000000000000e+00,2.000000000000000000e+00,5.015869140625000000e-01,1.613159179687500000e-01,-8.490600585937500000e-01,3.784179687500000000e-02
3.000000000000000000e+00,3.000000000000000000e+00,0.000000000000000000e+00,0.000000000000000000e+00,-1.000000000000000000e+00,-6.000000000000000000e+00,-2.500000000000000000e+01,-1.000000000000000000e+00,5.015869140625000000e-01,1.613159179687500000e-01,-8.490600585937500000e-01,3.784179687500000000e-02
0.000000000000000000e+00,9.000000000000000000e+00,1.400000000000000000e+01,-5.000000000000000000e+00,-1.100000000000000000e+01,9.000000000000000000e+00,3.100000000000000000e+01,-2.000000000000000000e+00,5.010375976562500000e-01,1.627807617187500000e-01,-8.491821289062500000e-01,3.717041015625000000e-02
3.000000000000000000e+00,-1.100000000000000000e+01,-3.000000000000000000e+00,-2.000000000000000000e+00,8.000000000000000000e+00,-4.000000000000000000e+00,-9.000000000000000000e+00,-2.000000000000000000e+00,5.010375976562500000e-01,1.627807617187500000e-01,-8.491821289062500000e-01,3.717041015625000000e-02
3.000000000000000000e+00,0.000000000000000000e+00,9.000000000000000000e+00,-6.000000000000000000e+00,1.000000000000000000e+00,-2.000000000000000000e+00,-3.000000000000000000e+00,-2.000000000000000000e+00,5.010375976562500000e-01,1.627807617187500000e-01,-8.491821289062500000e-01,3.717041015625000000e-02
-6.000000000000000000e+00,-4.000000000000000000e+00,-5.000000000000000000e+00,-3.000000000000000000e+00,-3.000000000000000000e+00,-1.000000000000000000e+00,6.000000000000000000e+00,1.000000000000000000e+00,5.010375976562500000e-01,1.627807617187500000e-01,-8.491821289062500000e-01,3.717041015625000000e-02
0.000000000000000000e+00,0.000000000000000000e+00,2.000000000000000000e+00,-2.000000000000000000e+00,5.000000000000000000e+00,1.000000000000000000e+00,-1.000000000000000000e+01,-1.000000000000000000e+00,5.006103515625000000e-01,1.645507812500000000e-01,-8.491210937500000000e-01,3.656005859375000000e-02
7.000000000000000000e+00,1.000000000000000000e+01,1.000000000000000000e+01,4.000000000000000000e+00,-6.000000000000000000e+00,1.000000000000000000e+00,6.000000000000000000e+00,2.000000000000000000e+00,5.006103515625000000e-01,1.645507812500000000e-01,-8.491210937500000000e-01,3.656005859375000000e-02
-1.000000000000000000e+00,-2.000000000000000000e+00,-1.000000000000000000e+01,-1.000000000000000000e+00,-2.000000000000000000e+00,1.000000000000000000e+00,-4.000000000000000000e+00,-3.000000000000000000e+00,5.006103515625000000e-01,1.645507812500000000e-01,-8.491210937500000000e-01,3.656005859375000000e-02
-1.600000000000000000e+01,-6.000000000000000000e+00,3.000000000000000000e+00,-1.000000000000000000e+01,-2.000000000000000000e+00,0.000000000000000000e+00,4.000000000000000000e+00,-1.000000000000000000e+00,5.006103515625000000e-01,1.645507812500000000e-01,-8.491210937500000000e-01,3.656005859375000000e-02
0.000000000000000000e+00,-4.000000000000000000e+00,-8.000000000000000000e+00,4.000000000000000000e+00,-5.000000000000000000e+00,-9.000000000000000000e+00,-7.000000000000000000e+00,-4.000000000000000000e+00,5.003051757812500000e-01,1.657714843750000000e-01,-8.491210937500000000e-01,3.527832031250000000e-02
-1.000000000000000000e+00,1.000000000000000000e+00,0.000000000000000000e+00,1.000000000000000000e+00,-4.000000000000000000e+00,-4.000000000000000000e+00,2.000000000000000000e+00,1.000000000000000000e+00,5.003051757812500000e-01,1.657714843750000000e-01,-8.491210937500000000e-01,3.527832031250000000e-02
3.000000000000000000e+00,-8.000000000000000000e+00,-1.500000000000000000e+01,-1.000000000000000000e+00,8.000000000000000000e+00,3.000000000000000000e+00,-4.000000000000000000e+00,0.000000000000000000e+00,5.003051757812500000e-01,1.657714843750000000e-01,-8.491210937500000000e-01,3.527832031250000000e-02
8.000000000000000000e+00,3.000000000000000000e+00,0.000000000000000000e+00,4.000000000000000000e+00,2.000000000000000000e+00,2.000000000000000000e+00,4.000000000000000000e+00,0.000000000000000000e+00,5.003051757812500000e-01,1.657714843750000000e-01,-8.491210937500000000e-01,3.527832031250000000e-02
-5.000000000000000000e+00,-1.000000000000000000e+00,0.000000000000000000e+00,-8.000000000000000000e+00,-1.000000000000000000e+00,1.000000000000000000e+00,-4.000000000000000000e+00,0.000000000000000000e+00,4.999389648437500000e-01,1.660766601562500000e-01,-8.493041992187500000e-01,3.411865234375000000e-02
-5.000000000000000000e+00,2.000000000000000000e+00,-1.000000000000000000e+00,-2.000000000000000000e+00,-5.000000000000000000e+00,-2.000000000000000000e+00,1.000000000000000000e+00,-1.000000000000000000e+00,4.999389648437500000e-01,1.660766601562500000e-01,-8.493041992187500000e-01,3.411865234375000000e-02
-6.000000000000000000e+00,3.000000000000000000e+00,-1.300000000000000000e+01,-3.000000000000000000e+00,-1.200000000000000000e+01,-4.000000000000000000e+00,-1.300000000000000000e+01,-3.000000000000000000e+00,4.999389648437500000e-01,1.660766601562500000e-01,-8.493041992187500000e-01,3.411865234375000000e-02
1.000000000000000000e+00,-2.000000000000000000e+00,5.000000000000000000e+00,-7.000000000000000000e+00,4.000000000000000000e+00,1.000000000000000000e+00,7.000000000000000000e+00,-1.000000000000000000e+00,4.999389648437500000e-01,1.660766601562500000e-01,-8.493041992187500000e-01,3.411865234375000000e-02
2.000000000000000000e+00,-4.000000000000000000e+00,5.000000000000000000e+00,3.200000000000000000e+01,7.000000000000000000e+00,0.000000000000000000e+00,3.000000000000000000e+00,0.000000000000000000e+00,4.994506835937500000e-01,1.669311523437500000e-01,-8.494262695312500000e-01,3.375244140625000000e-02
6.000000000000000000e+00,-3.000000000000000000e+00,-8.000000000000000000e+00,-2.300000000000000000e+01,2.000000000000000000e+00,1.000000000000000000e+00,-4.000000000000000000e+00,0.000000000000000000e+00,4.994506835937500000e-01,1.669311523437500000e-01,-8.494262695312500000e-01,3.375244140625000000e-02
-7.000000000000000000e+00,-3.000000000000000000e+00,1.300000000000000000e+01,-3.000000000000000000e+00,1.000000000000000000e+00,2.000000000000000000e+00,2.000000000000000000e+00,1.000000000000000000e+00,4.994506835937500000e-01,1.669311523437500000e-01,-8.494262695312500000e-01,3.375244140625000000e-02
-2.000000000000000000e+00,-3.000000000000000000e+00,-7.000000000000000000e+00,0.000000000000000000e+00,-8.000000000000000000e+00,-1.000000000000000000e+00,1.000000000000000000e+00,0.000000000000000000e+00,4.994506835937500000e-01,1.669311523437500000e-01,-8.494262695312500000e-01,3.375244140625000000e-02
3.000000000000000000e+00,1.000000000000000000e+00,-6.000000000000000000e+00,-6.000000000000000000e+00,-3.000000000000000000e+00,-2.000000000000000000e+00,-5.000000000000000000e+00,-1.000000000000000000e+00,4.988403320312500000e-01,1.680908203125000000e-01,-8.495483398437500000e-01,3.405761718750000000e-02
-3.000000000000000000e+00,4.000000000000000000e+00,-1.000000000000000000e+00,9.000000000000000000e+00,-2.000000000000000000e+00,-2.000000000000000000e+00,-3.000000000000000000e+00,2.000000000000000000e+00,4.988403320312500000e-01,1.680908203125000000e-01,-8.495483398437500000e-01,3.405761718750000000e-02
4.000000000000000000e+00,2.000000000000000000e+00,-4.000000000000000000e+00,1.000000000000000000e+00,-3.000000000000000000e+00,0.000000000000000000e+00,-3.000000000000000000e+00,-2.000000000000000000e+00,4.988403320312500000e-01,1.680908203125000000e-01,-8.495483398437500000e-01,3.405761718750000000e-02
9.000000000000000000e+00,1.000000000000000000e+00,7.000000000000000000e+00,-7.000000000000000000e+00,-4.000000000000000000e+00,-5.000000000000000000e+00,-2.000000000000000000e+01,-2.000000000000000000e+00,4.988403320312500000e-01,1.680908203125000000e-01,-8.495483398437500000e-01,3.405761718750000000e-02
-2.700000000000000000e+01,-1.000000000000000000e+01,-9.000000000000000000e+00,-3.000000000000000000e+00,1.200000000000000000e+01,6.000000000000000000e+00,2.500000000000000000e+01,1.000000000000000000e+00,4.983520507812500000e-01,1.689453125000000000e-01,-8.496704101562500000e-01,3.411865234375000000e-02
2.000000000000000000e+00,-1.000000000000000000e+01,-1.700000000000000000e+01,-2.000000000000000000e+00,-6.000000000000000000e+00,0.000000000000000000e+00,5.000000000000000000e+00,-2.000000000000000000e+00,4.983520507812500000e-01,1.689453125000000000e-01,-8.496704101562500000e-01,3.411865234375000000e-02
-8.000000000000000000e+00,-3.000000000000000000e+00,-9.000000000000000000e+00,-5.000000000000000000e+00,-1.000000000000000000e+00,-2.000000000000000000e+00,8.000000000000000000e+00,-4.000000000000000000e+00,4.983520507812500000e-01,1.689453125000000000e-01,-8.496704101562500000e-01,3.411865234375000000e-02
6.000000000000000000e+00,1.000000000000000000e+00,4.000000000000000000e+00,1.000000000000000000e+00,-3.000000000000000000e+00,-1.000000000000000000e+00,1.000000000000000000e+00,1.000000000000000000e+00,4.983520507812500000e-01,1.689453125000000000e-01,-8.496704101562500000e-01,3.411865234375000000e-02
6.000000000000000000e+00,4.000000000000000000e+00,-1.000000000000000000e+00,-1.000000000000000000e+01,-4.000000000000000000e+00,-4.000000000000000000e+00,-9.000000000000000000e+00,-1.000000000000000000e+00,4.981079101562500000e-01,1.688842773437500000e-01,-8.498535156250000000e-01,3.375244140625000000e-02
-6.000000000000000000e+00,2.000000000000000000e+00,3.000000000000000000e+00,3.000000000000000000e+00,-3.000000000000000000e+00,-3.000000000000000000e+00,-2.000000000000000000e+00,-1.000000000000000000e+00,4.981079101562500000e-01,1.688842773437500000e-01,-8.498535156250000000e-01,3.375244140625000000e-02
-1.000000000000000000e+00,-2.000000000000000000e+00,-1.000000000000000000e+00,1.000000000000000000e+00,1.000000000000000000e+00,0.000000000000000000e+00,1.000000000000000000e+00,0.000000000000000000e+00,4.981079101562500000e-01,1.688842773437500000e-01,-8.498535156250000000e-01,3.375244140625000000e-02
-4.000000000000000000e+00,-1.000000000000000000e+00,-5.000000000000000000e+00,1.100000000000000000e+01,5.000000000000000000e+00,0.000000000000000000e+00,3.000000000000000000e+00,0.000000000000000000e+00,4.981079101562500000e-01,1.688842773437500000e-01,-8.498535156250000000e-01,3.375244140625000000e-02
6.000000000000000000e+00,0.000000000000000000e+00,0.000000000000000000e+00,-2.100000000000000000e+01,-3.000000000000000000e+00,-3.000000000000000000e+00,-1.100000000000000000e+01,-2.000000000000000000e+00,4.984130859375000000e-01,1.683959960937500000e-01,-8.497924804687500000e-01,3.338623046875000000e-02
5.000000000000000000e+00,3.000000000000000000e+00,-1.100000000000000000e+01,9.000000000000000000e+00,7.000000000000000000e+00,1.000000000000000000e+00,1.000000000000000000e+00,0.000000000000000000e+00,4.984130859375000000e-01,1.683959960937500000e-01,-8.497924804687500000e-01,3.338623046875000000e-02
-1.200000000000000000e+01,-6.000000000000000000e+00,2.300000000000000000e+01,-7.000000000000000000e+00,3.000000000000000000e+00,-3.000000000000000000e+00,-7.000000000000000000e+00,0.000000000000000000e+00,4.984130859375000000e-01,1.683959960937500000e-01,-8.497924804687500000e-01,3.338623046875000000e-02
-2.000000000000000000e+00,-5.000000000000000000e+00,7.000000000000000000e+00,1.000000000000000000e+00,-2.000000000000000000e+00,0.000000000000000000e+00,4.000000000000000000e+00,-6.000000000000000000e+00,4.984130859375000000e-01,1.683959960937500000e-01,-8.497924804687500000e-01,3.338623046875000000e-02
-1.000000000000000000e+00,-6.000000000000000000e+00,-9.000000000000000000e+00,-6.000000000000000000e+00,-4.000000000000000000e+00,-3.000000000000000000e+00,-3.000000000000000000e+00,2.000000000000000000e+00,4.985961914062500000e-01,1.680297851562500000e-01,-8.497314453125000000e-01,3.320312500000000000e-02
-6.000000000000000000e+00,-1.000000000000000000e+00,5.000000000000000000e+00,1.000000000000000000e+00,-6.000000000000000000e+00,-6.000000000000000000e+00,-6.000000000000000000e+00,-3.000000000000000000e+00,4.985961914062500000e-01,1.680297851562500000e-01,-8.497314453125000000e-01,3.320312500000000000e-02
5.000000000000000000e+00,4.000000000000000000e+00,-9.000000000000000000e+00,-4.000000000000000000e+00,-9.000000000000000000e+00,-4.000000000000000000e+00,0.000000000000000000e+00,1.000000000000000000e+00,4.985961914062500000e-01,1.680297851562500000e-01,-8.497314453125000000e-01,3.320312500000000000e-02
-3.000000000000000000e+00,-3.000000000000000000e+00,-2.000000000000000000e+00,1.300000000000000000e+01,7.000000000000000000e+00,4.000000000000000000e+00,6.000000000000000000e+00,0.000000000000000000e+00,4.985961914062500000e-01,1.680297851562500000e-01,-8.497314453125000000e-01,3.320312500000000000e-02
1.000000000000000000e+00,5.000000000000000000e+00,8.000000000000000000e+00,-1.000000000000000000e+00,4.000000000000000000e+00,2.000000000000000000e+00,-3.000000000000000000e+00,-1.000000000000000000e+00,4.987792968750000000e-01,1.686401367187500000e-01,-8.495483398437500000e-01,3.338623046875000000e-02
8.000000000000000000e+00,6.000000000000000000e+00,4.000000000000000000e+00,-8.000000000000000000e+00,0.000000000000000000e+00,4.000000000000000000e+00,1.000000000000000000e+00,0.000000000000000000e+00,4.987792968750000000e-01,1.686401367187500000e-01,-8.495483398437500000e-01,3.338623046875000000e-02
7.000000000000000000e+00,3.000000000000000000e+00,1.000000000000000000e+00,1.900000000000000000e+01,5.000000000000000000e+00,0.000000000000000000e+00,0.000000000000000000e+00,-2.000000000000000000e+00,4.987792968750000000e-01,1.686401367187500000e-01,-8.495483398437500000e-01,3.338623046875000000e-02
-1.700000000000000000e+01,-1.700000000000000000e+01,-2.000000000000000000e+01,-2.300000000000000000e+01,-1.900000000000000000e+01,-1.200000000000000000e+01,-1.200000000000000000e+01,-3.000000000000000000e+00,4.987792968750000000e-01,1.686401367187500000e-01,-8.495483398437500000e-01,3.338623046875000000e-02
7.000000000000000000e+00,1.000000000000000000e+00,-4.000000000000000000e+00,1.100000000000000000e+01,1.000000000000000000e+00,-1.000000000000000000e+00,-5.000000000000000000e+00,0.000000000000000000e+00,4.985351562500000000e-01,1.694335937500000000e-01,-8.494873046875000000e-01,3.326416015625000000e-02
-9.000000000000000000e+00,-9.000000000000000000e+00,-9.000000000000000000e+00,0.000000000000000000e+00,1.000000000000000000e+00,-1.000000000000000000e+00,2.000000000000000000e+00,0.000000000000000000e+00,4.985351562500000000e-01,1.694335937500000000e-01,-8.494873046875000000e-01,3.326416015625000000e-02
0.000000000000000000e+00,0.000000000000000000e+00,-1.000000000000000000e+00,1.000000000000000000e+00,2.000000000000000000e+00,-5.000000000000000000e+00,-4.000000000000000000e+00,-1.000000000000000000e+00,4.985351562500000000e-01,1.694335937500000000e-01,-8.494873046875000000e-01,3.326416015625000000e-02
7.000000000000000000e+00,1.100000000000000000e+01,2.000000000000000000e+00,0.000000000000000000e+00,5.000000000000000000e+00,-1.000000000000000000e+00,-4.000000000000000000e+00,0.000000000000000000e+00,4.985351562500000000e-01,1.694335937500000000e-01,-8.494873046875000000e-01,3.326416015625000000e-02
-2.000000000000000000e+00,-1.100000000000000000e+01,-7.000000000000000000e+00,-1.000000000000000000e+00,1.000000000000000000e+00,1.000000000000000000e+00,7.000000000000000000e+00,0.000000000000000000e+00,4.982910156250000000e-01,1.706542968750000000e-01,-8.494262695312500000e-01,3.308105468750000000e-02
-2.000000000000000000e+00,-1.000000000000000000e+00,1.200000000000000000e+01,-5.000000000000000000e+00,-5.000000000000000000e+00,-1.000000000000000000e+00,-3.000000000000000000e+00,-1.000000000000000000e+00,4.982910156250000000e-01,1.706542968750000000e-01,-8.494262695312500000e-01,3.308105468750000000e-02
-1.000000000000000000e+00,-3.000000000000000000e+00,-8.000000000000000000e+00,-5.000000000000000000e+00,-8.000000000000000000e+00,-3.000000000000000000e+00,-5.000000000000000000e+00,-2.000000000000000000e+00,4.982910156250000000e-01,1.706542968750000000e-01,-8.494262695312500000e-01,3.308105468750000000e-02
2.000000000000000000e+00,-1.000000000000000000e+00,-1.000000000000000000e+00,1.100000000000000000e+01,2.000000000000000000e+00,2.000000000000000000e+00,-2.000000000000000000e+00,-1.000000000000000000e+00,4.982910156250000000e-01,1.706542968750000000e-01,-8.494262695312500000e-01,3.308105468750000000e-02
-1.000000000000000000e+00,3.000000000000000000e+00,-1.700000000000000000e+01,-2.100000000000000000e+01,-4.000000000000000000e+00,0.000000000000000000e+00,7.000000000000000000e+00,0.000000000000000000e+00,4.979248046875000000e-01,1.721191406250000000e-01,-8.493652343750000000e-01,3.259277343750000000e-02
-4.000000000000000000e+00,-2.000000000000000000e+00,2.600000000000000000e+01,4.000000000000000000e+00,-2.000000000000000000e+00,-3.000000000000000000e+00,2.000000000000000000e+00,-1.000000000000000000e+00,4.979248046875000000e-01,1.721191406250000000e-01,-8.493652343750000000e-01,3.259277343750000000e-02
2.000000000000000000e+00,-3.000000000000000000e+00,-7.000000000000000000e+00,-4.000000000000000000e+00,-4.000000000000000000e+00,-4.000000000000000000e+00,-1.000000000000000000e+00,-1.000000000000000000e+00,4.979248046875000000e-01,1.721191406250000000e-01,-8.493652343750000000e-01,3.259277343750000000e-02
-1.000000000000000000e+00,0.000000000000000000e+00,-1.000000000000000000e+01,-9.000000000000000000e+00,-2.000000000000000000e+00,1.000000000000000000e+00,0.000000000000000000e+00,1.000000000000000000e+00,4.979248046875000000e-01,1.721191406250000000e-01,-8.493652343750000000e-01,3.259277343750000000e-02
-4.000000000000000000e+00,-4.000000000000000000e+00,9.000000000000000000e+00,2.000000000000000000e+00,-4.000000000000000000e+00,0.000000000000000000e+00,-8.000000000000000000e+00,-4.000000000000000000e+00,4.977416992187500000e-01,1.726074218750000000e-01,-8.494262695312500000e-01,3.173828125000000000e-02
-1.000000000000000000e+00,-2.000000000000000000e+00,-1.200000000000000000e+01,3.000000000000000000e+00,0.000000000000000000e+00,-1.000000000000000000e+00,-6.000000000000000000e+00,-3.000000000000000000e+00,4.977416992187500000e-01,1.726074218750000000e-01,-8.494262695312500000e-01,3.173828125000000000e-02
-3.000000000000000000e+00,4.000000000000000000e+00,-4.000000000000000000e+00,-1.000000000000000000e+01,-5.000000000000000000e+00,-3.000000000000000000e+00,2.000000000000000000e+00,3.000000000000000000e+00,4.977416992187500000e-01,1.726074218750000000e-01,-8.494262695312500000e-01,3.173828125000000000e-02
6.000000000000000000e+00,0.000000000000000000e+00,7.000000000000000000e+00,8.000000000000000000e+00,1.000000000000000000e+00,-1.000000000000000000e+00,3.000000000000000000e+00,-2.000000000000000000e+00,4.977416992187500000e-01,1.726074218750000000e-01,-8.494262695312500000e-01,3.173828125000000000e-02
-8.000000000000000000e+00,-4.000000000000000000e+00,-7.000000000000000000e+00,-1.200000000000000000e+01,7.000000000000000000e+00,3.000000000000000000e+00,-3.000000000000000000e+00,0.000000000000000000e+00,4.977416992187500000e-01,1.725463867187500000e-01,-8.494262695312500000e-01,3.088378906250000000e-02
6.000000000000000000e+00,-3.000000000000000000e+00,-1.200000000000000000e+01,2.000000000000000000e+00,1.000000000000000000e+00,-1.000000000000000000e+00,9.000000000000000000e+00,0.000000000000000000e+00,4.977416992187500000e-01,1.725463867187500000e-01,-8.494262695312500000e-01,3.088378906250000000e-02
3.000000000000000000e+00,-2.000000000000000000e+00,-2.000000000000000000e+00,-3.000000000000000000e+00,-2.000000000000000000e+00,1.000000000000000000e+00,-3.000000000000000000e+00,-2.000000000000000000e+00,4.977416992187500000e-01,1.725463867187500000e-01,-8.494262695312500000e-01,3.088378906250000000e-02
-1.100000000000000000e+01,-1.000000000000000000e+00,0.000000000000000000e+00,0.000000000000000000e+00,1.000000000000000000e+00,0.000000000000000000e+00,3.000000000000000000e+00,-1.000000000000000000e+00,4.977416992187500000e-01,1.725463867187500000e-01,-8.494262695312500000e-01,3.088378906250000000e-02
6.000000000000000000e+00,3.000000000000000000e+00,1.100000000000000000e+01,1.000000000000000000e+00,-1.000000000000000000e+01,-5.000000000000000000e+00,-5.000000000000000000e+00,-1.000000000000000000e+00,4.979858398437500000e-01,1.719360351562500000e-01,-8.494262695312500000e-01,3.057861328125000000e-02
-5.000000000000000000e+00,0.000000000000000000e+00,2.000000000000000000e+00,-1.000000000000000000e+00,0.000000000000000000e+00,-5.000000000000000000e+00,-7.000000000000000000e+00,-2.000000000000000000e+00,4.979858398437500000e-01,1.719360351562500000e-01,-8.494262695312500000e-01,3.057861328125000000e-02
-1.000000000000000000e+00,-2.000000000000000000e+00,-1.000000000000000000e+00,3.000000000000000000e+00,3.000000000000000000e+00,3.000000000000000000e+00,1.000000000000000000e+00,-1.000000000000000000e+00,4.979858398437500000e-01,1.719360351562500000e-01,-8.494262695312500000e-01,3.057861328125000000e-02
5.000000000000000000e+00,2.000000000000000000e+00,0.000000000000000000e+00,1.000000000000000000e+00,-5.000000000000000000e+00,1.000000000000000000e+00,4.000000000000000000e+00,0.000000000000000000e+00,4.979858398437500000e-01,1.719360351562500000e-01,-8.494262695312500000e-01,3.057861328125000000e-02
6.000000000000000000e+00,3.000000000000000000e+00,6.000000000000000000e+00,-7.000000000000000000e+00,-1.300000000000000000e+01,0.000000000000000000e+00,6.000000000000000000e+00,-2.000000000000000000e+00,4.983520507812500000e-01,1.716308593750000000e-01,-8.492431640625000000e-01,3.076171875000000000e-02
0.000000000000000000e+00,8.000000000000000000e+00,2.000000000000000000e+00,3.000000000000000000e+00,1.800000000000000000e+01,4.000000000000000000e+00,5.000000000000000000e+00,-1.000000000000000000e+00,4.983520507812500000e-01,1.716308593750000000e-01,-8.492431640625000000e-01,3.076171875000000000e-02
-1.400000000000000000e+01,-2.100000000000000000e+01,-5.700000000000000000e+01,-8.000000000000000000e+00,2.000000000000000000e+00,0.000000000000000000e+00,1.000000000000000000e+00,-3.000000000000000000e+00,4.983520507812500000e-01,1.716308593750000000e-01,-8.492431640625000000e-01,3.076171875000000000e-02
-4.000000000000000000e+00,-9.000000000000000000e+00,1.000000000000000000e+01,-5.000000000000000000e+00,-1.000000000000000000e+00,-2.000000000000000000e+00,2.000000000000000000e+00,-1.000000000000000000e+00,4.983520507812500000e-01,1.716308593750000000e-01,-8.492431640625000000e-01,3.076171875000000000e-02
-2.000000000000000000e+00,-2.000000000000000000e+00,-1.000000000000000000e+00,0.000000000000000000e+00,-2.000000000000000000e+00,-2.000000000000000000e+00,-6.000000000000000000e+00,-1.000000000000000000e+00,4.986572265625000000e-01,1.713867187500000000e-01,-8.491210937500000000e-01,3.088378906250000000e-02
1.000000000000000000e+00,2.000000000000000000e+00,0.000000000000000000e+00,-2.000000000000000000e+00,-1.200000000000000000e+01,-4.000000000000000000e+00,-7.000000000000000000e+00,0.000000000000000000e+00,4.986572265625000000e-01,1.713867187500000000e-01,-8.491210937500000000e-01,3.088378906250000000e-02
1.000000000000000000e+00,9.000000000000000000e+00,9.000000000000000000e+00,0.000000000000000000e+00,-1.000000000000000000e+00,0.000000000000000000e+00,1.000000000000000000e+00,0.000000000000000000e+00,4.986572265625000000e-01,1.713867187500000000e-01,-8.491210937500000000e-01,3.088378906250000000e-02
-3.000000000000000000e+00,0.000000000000000000e+00,-6.000000000000000000e+00,0.000000000000000000e+00,8.000000000000000000e+00,0.000000000000000000e+00,-1.000000000000000000e+00,0.000000000000000000e+00,4.986572265625000000e-01,1.713867187500000000e-01,-8.491210937500000000e-01,3.088378906250000000e-02
4.000000000000000000e+00,-1.000000000000000000e+00,4.000000000000000000e+00,-2.000000000000000000e+00,-7.000000000000000000e+00,-4.000000000000000000e+00,-4.000000000000000000e+00,0.000000000000000000e+00,4.993896484375000000e-01,1.713867187500000000e-01,-8.486938476562500000e-01,3.070068359375000000e-02
-2.000000000000000000e+00,-3.000000000000000000e+00,-5.000000000000000000e+00,2.000000000000000000e+00,-1.000000000000000000e+00,0.000000000000000000e+00,-2.000000000000000000e+00,-2.000000000000000000e+00,4.993896484375000000e-01,1.713867187500000000e-01,-8.486938476562500000e-01,3.070068359375000000e-02
-4.000000000000000000e+00,1.000000000000000000e+00,8.000000000000000000e+00,8.000000000000000000e+00,5.000000000000000000e+00,4.000000000000000000e+00,-2.000000000000000000e+00,1.000000000000000000e+00,4.993896484375000000e-01,1.713867187500000000e-01,-8.486938476562500000e-01,3.070068359375000000e-02
0.000000000000000000e+00,1.000000000000000000e+00,-2.000000000000000000e+00,-8.000000000000000000e+00,-1.000000000000000000e+01,-5.000000000000000000e+00,-2.000000000000000000e+00,0.000000000000000000e+00,4.993896484375000000e-01,1.713867187500000000e-01,-8.486938476562500000e-01,3.070068359375000000e-02
-2.000000000000000000e+00,1.000000000000000000e+00,8.000000000000000000e+00,3.000000000000000000e+00,-5.000000000000000000e+00,-8.000000000000000000e+00,-7.000000000000000000e+00,-1.000000000000000000e+00,5.001220703125000000e-01,1.713867187500000000e-01,-8.482666015625000000e-01,3.039550781250000000e-02
-3.000000000000000000e+00,-5.000000000000000000e+00,1.000000000000000000e+00,-3.000000000000000000e+00,5.000000000000000000e+00,2.000000000000000000e+00,7.000000000000000000e+00,4.000000000000000000e+00,5.001220703125000000e-01,1.713867187500000000e-01,-8.482666015625000000e-01,3.039550781250000000e-02
3.000000000000000000e+00,-8.000000000000000000e+00,-2.000000000000000000e+00,1.000000000000000000e+00,6.000000000000000000e+00,-1.000000000000000000e+00,1.000000000000000000e+00,1.000000000000000000e+00,5.001220703125000000e-01,1.713867187500000000e-01,-8.482666015625000000e-01,3.039550781250000000e-02
-1.000000000000000000e+00,-2.000000000000000000e+00,3.000000000000000000e+00,-3.000000000000000000e+00,1.000000000000000000e+00,-1.000000000000000000e+00,-9.000000000000000000e+00,-1.000000000000000000e+00,5.001220703125000000e-01,1.713867187500000000e-01,-8.482666015625000000e-01,3.039550781250000000e-02
-2.000000000000000000e+00,-1.000000000000000000e+00,-3.000000000000000000e+00,5.000000000000000000e+00,-6.000000000000000000e+00,2.000000000000000000e+00,5.000000000000000000e+00,-1.000000000000000000e+00,5.005493164062500000e-01,1.715087890625000000e-01,-8.480224609375000000e-01,3.009033203125000000e-02
-3.000000000000000000e+00,-2.000000000000000000e+00,-1.000000000000000000e+00,-3.000000000000000000e+00,-6.000000000000000000e+00,-2.000000000000000000e+00,-7.000000000000000000e+00,-3.000000000000000000e+00,5.005493164062500000e-01,1.715087890625000000e-01,-8.480224609375000000e-01,3.009033203125000000e-02
4.000000000000000000e+00,4.000000000000000000e+00,1.300000000000000000e+01,-2.000000000000000000e+00,-3.000000000000000000e+00,-1.000000000000000000e+00,-2.000000000000000000e+00,-2.000000000000000000e+00,5.005493164062500000e-01,1.715087890625000000e-01,-8.480224609375000000e-01,3.009033203125000000e-02
3.000000000000000000e+00,4.000000000000000000e+00,-1.000000000000000000e+00,2.000000000000000000e+00,1.000000000000000000e+00,0.000000000000000000e+00,2.000000000000000000e+00,0.000000000000000000e+00,5.005493164062500000e-01,1.715087890625000000e-01,-8.480224609375000000e-01,3.009033203125000000e-02
-2.000000000000000000e+00,-2.000000000000000000e+00,-4.000000000000000000e+00,-1.000000000000000000e+00,3.000000000000000000e+00,0.000000000000000000e+00,-5.000000000000000000e+00,-3.000000000000000000e+00,5.006713867187500000e-01,1.724853515625000000e-01,-8.477783203125000000e-01,2.978515625000000000e-02
0.000000000000000000e+00,-2.000000000000000000e+00,1.000000000000000000e+00,1.000000000000000000e+00,-6.000000000000000000e+00,-3.000000000000000000e+00,-4.000000000000000000e+00,-1.000000000000000000e+00,5.006713867187500000e-01,1.724853515625000000e-01,-8.477783203125000000e-01,2.978515625000000000e-02
-1.000000000000000000e+00,0.000000000000000000e+00,2.000000000000000000e+00,0.000000000000000000e+00,3.000000000000000000e+00,3.000000000000000000e+00,1.000000000000000000e+00,1.000000000000000000e+00,5.006713867187500000e-01,1.724853515625000000e-01,-8.477783203125000000e-01,2.978515625000000000e-02
1.000000000000000000e+00,-1.000000000000000000e+00,-3.000000000000000000e+00,-4.000000000000000000e+00,3.000000000000000000e+00,1.000000000000000000e+00,3.000000000000000000e+00,-1.000000000000000000e+00,5.006713867187500000e-01,1.724853515625000000e-01,-8.477783203125000000e-01,2.978515625000000000e-02
-3.000000000000000000e+00,-1.000000000000000000e+00,-3.000000000000000000e+00,5.000000000000000000e+00,9.000000000000000000e+00,-2.000000000000000000e+00,-1.500000000000000000e+01,-2.000000000000000000e+00,5.003051757812500000e-01,1.741333007812500000e-01,-8.476562500000000000e-01,2.972412109375000000e-02
3.000000000000000000e+00,3.000000000000000000e+00,-7.000000000000000000e+00,-1.200000000000000000e+01,-1.900000000000000000e+01,0.000000000000000000e+00,1.200000000000000000e+01,0.000000000000000000e+00,5.003051757812500000e-01,1.741333007812500000e-01,-8.476562500000000000e-01,2.972412109375000000e-02
-1.200000000000000000e+01,0.000000000000000000e+00,0.000000000000000000e+00,3.100000000000000000e+01,1.900000000000000000e+01,2.000000000000000000e+00,3.000000000000000000e+00,1.000000000000000000e+00,5.003051757812500000e-01,1.741333007812500000e-01,-8.476562500000000000e-01,2.972412109375000000e-02
-6.000000000000000000e+00,-1.600000000000000000e+01,1.000000000000000000e+00,-3.800000000000000000e+01,-6.000000000000000000e+00,-3.000000000000000000e+00,2.000000000000000000e+00,-5.000000000000000000e+00,5.003051757812500000e-01,1.741333007812500000e-01,-8.476562500000000000e-01,2.972412109375000000e-02
4.000000000000000000e+00,-3.000000000000000000e+00,3.000000000000000000e+00,1.000000000000000000e+00,-4.000000000000000000e+00,-4.000000000000000000e+00,-2.000000000000000000e+00,-1.000000000000000000e+00,4.998779296875000000e-01,1.757202148437500000e-01,-8.475952148437500000e-01,2.954101562500000000e-02
1.000000000000000000e+00,-1.000000000000000000e+00,1.000000000000000000e+00,3.000000000000000000e+00,-1.000000000000000000e+00,-2.000000000000000000e+00,-8.000000000000000000e+00,0.000000000000000000e+00,4.998779296875000000e-01,1.757202148437500000e-01,-8.475952148437500000e-01,2.954101562500000000e-02
2.000000000000000000e+00,3.000000000000000000e+00,-2.000000000000000000e+00,-3.000000000000000000e+00,-8.000000000000000000e+00,-2.000000000000000000e+00,-2.000000000000000000e+00,-1.000000000000000000e+00,4.998779296875000000e-01,1.757202148437500000e-01,-8.475952148437500000e-01,2.954101562500000000e-02
0.000000000000000000e+00,4.000000000000000000e+00,0.000000000000000000e+00,1.400000000000000000e+01,3.000000000000000000e+00,3.000000000000000000e+00,3.000000000000000000e+00,1.000000000000000000e+00,4.998779296875000000e-01,1.757202148437500000e-01,-8.475952148437500000e-01,2.954101562500000000e-02
-3.000000000000000000e+00,-1.000000000000000000e+00,-1.000000000000000000e+00,-1.000000000000000000e+00,0.000000000000000000e+00,0.000000000000000000e+00,1.000000000000000000e+00,-2.000000000000000000e+00,4.993286132812500000e-01,1.773681640625000000e-01,-8.475952148437500000e-01,2.874755859375000000e-02
-1.000000000000000000e+00,-1.000000000000000000e+00,-3.000000000000000000e+00,-4.000000000000000000e+00,-1.000000000000000000e+00,-2.000000000000000000e+00,-4.000000000000000000e+00,0.000000000000000000e+00,4.993286132812500000e-01,1.773681640625000000e-01,-8.475952148437500000e-01,2.874755859375000000e-02
0.000000000000000000e+00,5.000000000000000000e+00,4.000000000000000000e+00,-5.000000000000000000e+00,-1.000000000000000000e+00,1.000000000000000000e+00,1.400000000000000000e+01,-2.000000000000000000e+00,4.993286132812500000e-01,1.773681640625000000e-01,-8.475952148437500000e-01,2.874755859375000000e-02
2.000000000000000000e+00,-1.000000000000000000e+00,-1.000000000000000000e+00,1.000000000000000000e+01,6.000000000000000000e+00,1.000000000000000000e+00,-2.000000000000000000e+00,-4.000000000000000000e+00,4.993286132812500000e-01,1.773681640625000000e-01,-8.475952148437500000e-01,2.874755859375000000e-02
-7.000000000000000000e+00,-3.000000000000000000e+00,9.000000000000000000e+00,-9.000000000000000000e+00,-5.000000000000000000e+00,-3.000000000000000000e+00,2.000000000000000000e+00,-1.000000000000000000e+00,4.990234375000000000e-01,1.783447265625000000e-01,-8.475952148437500000e-01,2.740478515625000000e-02
2.000000000000000000e+00,-9.000000000000000000e+00,-2.200000000000000000e+01,4.000000000000000000e+00,-4.000000000000000000e+00,-4.000000000000000000e+00,-6.000000000000000000e+00,-3.000000000000000000e+00,4.990234375000000000e-01,1.783447265625000000e-01,-8.475952148437500000e-01,2.740478515625000000e-02
-1.300000000000000000e+01,-7.000000000000000000e+00,7.000000000000000000e+00,-1.200000000000000000e+01,-1.000000000000000000e+00,-4.000000000000000000e+00,-6.000000000000000000e+00,0.000000000000000000e+00,4.990234375000000000e-01,1.783447265625000000e-01,-8.475952148437500000e-01,2.740478515625000000e-02
0.000000000000000000e+00,0.000000000000000000e+00,-5.000000000000000000e+00,2.000000000000000000e+00,-5.000000000000000000e+00,-3.000000000000000000e+00,-2.000000000000000000e+00,0.000000000000000000e+00,4.990234375000000000e-01,1.783447265625000000e-01,-8.475952148437500000e-01,2.740478515625000000e-02
1.000000000000000000e+00,0.000000000000000000e+00,-5.000000000000000000e+00,-1.000000000000000000e+01,2.000000000000000000e+00,3.000000000000000000e+00,6.000000000000000000e+00,1.000000000000000000e+00,4.985961914062500000e-01,1.788330078125000000e-01,-8.477783203125000000e-01,2.630615234375000000e-02
-1.000000000000000000e+00,0.000000000000000000e+00,7.000000000000000000e+00,1.700000000000000000e+01,1.100000000000000000e+01,3.000000000000000000e+00,-1.000000000000000000e+00,0.000000000000000000e+00,4.985961914062500000e-01,1.788330078125000000e-01,-8.477783203125000000e-01,2.630615234375000000e-02
1.000000000000000000e+00,0.000000000000000000e+00,1.000000000000000000e+00,-9.000000000000000000e+00,-4.000000000000000000e+00,-1.000000000000000000e+00,-4.000000000000000000e+00,-2.000000000000000000e+00,4.981079101562500000e-01,1.793823242187500000e-01,-8.479614257812500000e-01,2.575683593750000000e-02
1.000000000000000000e+00,3.000000000000000000e+00,-2.000000000000000000e+00,4.000000000000000000e+00,-6.000000000000000000e+00,-2.000000000000000000e+00,1.000000000000000000e+00,0.000000000000000000e+00,4.981079101562500000e-01,1.793823242187500000e-01,-8.479614257812500000e-01,2.575683593750000000e-02
-2.000000000000000000e+00,2.000000000000000000e+00,-3.000000000000000000e+00,-3.000000000000000000e+00,-3.000000000000000000e+00,-3.000000000000000000e+00,-3.000000000000000000e+00,-1.000000000000000000e+00,4.981079101562500000e-01,1.793823242187500000e-01,-8.479614257812500000e-01,2.575683593750000000e-02
0.000000000000000000e+00,2.000000000000000000e+00,1.000000000000000000e+00,4.000000000000000000e+00,5.000000000000000000e+00,3.000000000000000000e+00,-1.000000000000000000e+00,0.000000000000000000e+00,4.981079101562500000e-01,1.793823242187500000e-01,-8.479614257812500000e-01,2.575683593750000000e-02
2.000000000000000000e+00,0.000000000000000000e+00,1.000000000000000000e+00,-9.000000000000000000e+00,-8.000000000000000000e+00,-6.000000000000000000e+00,-1.100000000000000000e+01,0.000000000000000000e+00,4.978027343750000000e-01,1.801757812500000000e-01,-8.479614257812500000e-01,2.532958984375000000e-02
1.000000000000000000e+00,-2.000000000000000000e+00,3.000000000000000000e+00,7.000000000000000000e+00,1.000000000000000000e+00,-1.000000000000000000e+00,1.000000000000000000e+00,-1.000000000000000000e+00,4.978027343750000000e-01,1.801757812500000000e-01,-8.479614257812500000e-01,2.532958984375000000e-02
1.000000000000000000e+00,-3.000000000000000000e+00,-7.000000000000000000e+00,3.000000000000000000e+00,6.000000000000000000e+00,-1.000000000000000000e+00,-5.000000000000000000e+00,0.000000000000000000e+00,4.978027343750000000e-01,1.801757812500000000e-01,-8.479614257812500000e-01,2.532958984375000000e-02
-4.000000000000000000e+00,0.000000000000000000e+00,6.000000000000000000e+00,-5.000000000000000000e+00,-4.000000000000000000e+00,-4.000000000000000000e+00,-1.500000000000000000e+01,-1.000000000000000000e+00,4.978027343750000000e-01,1.801757812500000000e-01,-8.479614257812500000e-01,2.532958984375000000e-02
-1.000000000000000000e+00,-6.000000000000000000e+00,7.000000000000000000e+00,3.000000000000000000e+00,-2.000000000000000000e+00,1.000000000000000000e+00,3.000000000000000000e+00,-1.000000000000000000e+00,4.978027343750000000e-01,1.809082031250000000e-01,-8.478393554687500000e-01,2.478027343750000000e-02
-2.000000000000000000e+00,0.000000000000000000e+00,-1.500000000000000000e+01,-6.000000000000000000e+00,-1.000000000000000000e+00,0.000000000000000000e+00,-4.000000000000000000e+00,0.000000000000000000e+00,4.978027343750000000e-01,1.809082031250000000e-01,-8.478393554687500000e-01,2.478027343750000000e-02
2.000000000000000000e+00,1.000000000000000000e+00,3.000000000000000000e+00,4.000000000000000000e+00,-9.000000000000000000e+00,-9.000000000000000000e+00,-1.700000000000000000e+01,-2.000000000000000000e+00,4.978027343750000000e-01,1.809082031250000000e-01,-8.478393554687500000e-01,2.478027343750000000e-02
-2.000000000000000000e+00,-1.000000000000000000e+00,2.000000000000000000e+00,-7.000000000000000000e+00,1.200000000000000000e+01,4.000000000000000000e+00,1.300000000000000000e+01,0.000000000000000000e+00,4.978027343750000000e-01,1.809082031250000000e-01,-8.478393554687500000e-01,2.478027343750000000e-02
0.000000000000000000e+00,3.000000000000000000e+00,-2.000000000000000000e+00,8.000000000000000000e+00,1.000000000000000000e+00,2.000000000000000000e+00,2.000000000000000000e+00,0.000000000000000000e+00,4.979248046875000000e-01,1.815185546875000000e-01,-8.476562500000000000e-01,2.423095703125000000e-02
5.000000000000000000e+00,-1.000000000000000000e+00,-2.000000000000000000e+01,-9.000000000000000000e+00,-3.000000000000000000e+00,-2.000000000000000000e+00,0.000000000000000000e+00,-4.000000000000000000e+00,4.979248046875000000e-01,1.815185546875000000e-01,-8.476562500000000000e-01,2.423095703125000000e-02
-1.400000000000000000e+01,-1.100000000000000000e+01,6.000000000000000000e+00,-3.000000000000000000e+00,-2.000000000000000000e+00,-1.000000000000000000e+00,1.000000000000000000e+00,-2.000000000000000000e+00,4.979248046875000000e-01,1.815185546875000000e-01,-8.476562500000000000e-01,2.423095703125000000e-02
-1.000000000000000000e+00,-1.000000000000000000e+00,2.000000000000000000e+00,1.000000000000000000e+00,-6.000000000000000000e+00,-2.000000000000000000e+00,-4.000000000000000000e+00,-2.000000000000000000e+00,4.979248046875000000e-01,1.815185546875000000e-01,-8.476562500000000000e-01,2.423095703125000000e-02
1.000000000000000000e+00,-1.000000000000000000e+00,-2.000000000000000000e+00,-1.200000000000000000e+01,-9.000000000000000000e+00,-4.000000000000000000e+00,-5.000000000000000000e+00,0.000000000000000000e+00,4.982299804687500000e-01,1.822509765625000000e-01,-8.473510742187500000e-01,2.368164062500000000e-02
-2.000000000000000000e+00,4.000000000000000000e+00,8.000000000000000000e+00,7.000000000000000000e+00,-9.000000000000000000e+00,0.000000000000000000e+00,4.000000000000000000e+00,-1.000000000000000000e+00,4.982299804687500000e-01,1.822509765625000000e-01,-8.473510742187500000e-01,2.368164062500000000e-02
4.000000000000000000e+00,3.000000000000000000e+00,-9.000000000000000000e+00,1.000000000000000000e+00,8.000000000000000000e+00,1.000000000000000000e+00,3.000000000000000000e+00,0.000000000000000000e+00,4.982299804687500000e-01,1.822509765625000000e-01,-8.473510742187500000e-01,2.368164062500000000e-02
4.000000000000000000e+00,5.000000000000000000e+00,1.400000000000000000e+01,2.700000000000000000e+01,2.200000000000000000e+01,6.000000000000000000e+00,2.000000000000000000e+00,2.000000000000000000e+00,4.982299804687500000e-01,1.822509765625000000e-01,-8.473510742187500000e-01,2.368164062500000000e-02
-1.700000000000000000e+01,-7.000000000000000000e+00,-1.600000000000000000e+01,8.000000000000000000e+00,-4.000000000000000000e+00,-4.000000000000000000e+00,-7.000000000000000000e+00,1.000000000000000000e+00,4.983520507812500000e-01,1.828002929687500000e-01,-8.471679687500000000e-01,2.307128906250000000e-02
-4.000000000000000000e+00,-5.000000000000000000e+00,3.000000000000000000e+00,-2.100000000000000000e+01,-3.000000000000000000e+00,0.000000000000000000e+00,8.000000000000000000e+00,-1.000000000000000000e+00,4.983520507812500000e-01,1.828002929687500000e-01,-8.471679687500000000e-01,2.307128906250000000e-02
2.000000000000000000e+00,-5.000000000000000000e+00,-1.000000000000000000e+00,-8.000000000000000000e+00,-9.000000000000000000e+00,1.000000000000000000e+00,1.000000000000000000e+00,-1.000000000000000000e+00,4.983520507812500000e-01,1.828002929687500000e-01,-8.471679687500000000e-01,2.307128906250000000e-02
-2.000000000000000000e+00,-2.000000000000000000e+00,-3.000000000000000000e+00,-1.500000000000000000e+01,-1.100000000000000000e+01,-5.000000000000000000e+00,-1.000000000000000000e+00,-2.000000000000000000e+00,4.983520507812500000e-01,1.828002929687500000e-01,-8.471679687500000000e-01,2.307128906250000000e-02
1.100000000000000000e+01,5.000000000000000000e+00,-1.000000000000000000e+00,6.000000000000000000e+00,3.000000000000000000e+00,1.000000000000000000e+00,0.000000000000000000e+00,-1.000000000000000000e+00,4.985351562500000000e-01,1.839599609375000000e-01,-8.468627929687500000e-01,2.252197265625000000e-02
-1.000000000000000000e+00,2.000000000000000000e+00,5.000000000000000000e+00,8.000000000000000000e+00,3.000000000000000000e+00,2.000000000000000000e+00,-3.000000000000000000e+00,1.000000000000000000e+00,4.985351562500000000e-01,1.839599609375000000e-01,-8.468627929687500000e-01,2.252197265625000000e-02
0.000000000000000000e+00,1.000000000000000000e+00,-3.000000000000000000e+00,1.000000000000000000e+00,-4.000000000000000000e+00,-1.000000000000000000e+00,2.000000000000000000e+00,-2.000000000000000000e+00,4.985351562500000000e-01,1.839599609375000000e-01,-8.468627929687500000e-01,2.252197265625000000e-02
-1.000000000000000000e+00,-1.000000000000000000e+00,-2.000000000000000000e+00,1.200000000000000000e+01,6.000000000000000000e+00,1.000000000000000000e+00,4.000000000000000000e+00,-1.000000000000000000e+00,4.985351562500000000e-01,1.839599609375000000e-01,-8.468627929687500000e-01,2.252197265625000000e-02
2.000000000000000000e+00,-1.000000000000000000e+00,-4.000000000000000000e+00,-1.600000000000000000e+01,-7.000000000000000000e+00,-4.000000000000000000e+00,-1.000000000000000000e+01,-4.000000000000000000e+00,4.986572265625000000e-01,1.849975585937500000e-01,-8.465576171875000000e-01,2.221679687500000000e-02
-2.000000000000000000e+00,3.000000000000000000e+00,2.000000000000000000e+00,-1.000000000000000000e+00,-4.000000000000000000e+00,-5.000000000000000000e+00,6.000000000000000000e+00,0.000000000000000000e+00,4.986572265625000000e-01,1.849975585937500000e-01,-8.465576171875000000e-01,2.221679687500000000e-02
7.000000000000000000e+00,1.100000000000000000e+01,1.100000000000000000e+01,6.000000000000000000e+00,9.000000000000000000e+00,6.000000000000000000e+00,6.000000000000000000e+00,1.000000000000000000e+00,4.986572265625000000e-01,1.849975585937500000e-01,-8.465576171875000000e-01,2.221679687500000000e-02
-1.400000000000000000e+01,-2.300000000000000000e+01,-3.700000000000000000e+01,-1.400000000000000000e+01,-1.500000000000000000e+01,-8.000000000000000000e+00,-6.000000000000000000e+00,-1.000000000000000000e+00,4.986572265625000000e-01,1.849975585937500000e-01,-8.465576171875000000e-01,2.221679687500000000e-02
-2.000000000000000000e+00,-7.000000000000000000e+00,2.000000000000000000e+00,-1.200000000000000000e+01,-7.000000000000000000e+00,-4.000000000000000000e+00,-7.000000000000000000e+00,-4.000000000000000000e+00,4.985351562500000000e-01,1.862182617187500000e-01,-8.463134765625000000e-01,2.221679687500000000e-02
-3.000000000000000000e+00,2.000000000000000000e+00,7.000000000000000000e+00,1.000000000000000000e+01,4.000000000000000000e+00,-1.000000000000000000e+00,-5.000000000000000000e+00,1.000000000000000000e+00,4.985351562500000000e-01,1.862182617187500000e-01,-8.463134765625000000e-01,2.221679687500000000e-02
2.000000000000000000e+00,-1.000000000000000000e+00,-2.000000000000000000e+00,2.000000000000000000e+00,-7.000000000000000000e+00,-1.000000000000000000e+00,1.000000000000000000e+00,-1.000000000000000000e+00,4.985351562500000000e-01,1.862182617187500000e-01,-8.463134765625000000e-01,2.221679687500000000e-02
2.000000000000000000e+00,6.000000000000000000e+00,3.000000000000000000e+00,-9.000000000000000000e+00,2.000000000000000000e+00,-2.000000000000000000e+00,-2.000000000000000000e+00,-6.000000000000000000e+00,4.985351562500000000e-01,1.862182617187500000e-01,-8.463134765625000000e-01,2.221679687500000000e-02
0.000000000000000000e+00,-3.000000000000000000e+00,-6.000000000000000000e+00,1.000000000000000000e+00,1.000000000000000000e+00,2.000000000000000000e+00,7.000000000000000000e+00,1.000000000000000000e+00,4.981689453125000000e-01,1.875000000000000000e-01,-8.463134765625000000e-01,2.221679687500000000e-02
2.000000000000000000e+00,-1.000000000000000000e+00,0.000000000000000000e+00,-2.000000000000000000e+00,0.000000000000000000e+00,0.000000000000000000e+00,-1.100000000000000000e+01,-1.000000000000000000e+00,4.981689453125000000e-01,1.875000000000000000e-01,-8.463134765625000000e-01,2.221679687500000000e-02
-5.000000000000000000e+00,-1.000000000000000000e+00,-2.000000000000000000e+00,1.000000000000000000e+00,0.000000000000000000e+00,-3.000000000000000000e+00,-1.000000000000000000e+00,-1.000000000000000000e+00,4.981689453125000000e-01,1.875000000000000000e-01,-8.463134765625000000e-01,2.221679687500000000e-02
1.000000000000000000e+00,0.000000000000000000e+00,1.000000000000000000e+00,-1.000000000000000000e+00,-1.200000000000000000e+01,-3.000000000000000000e+00,0.000000000000000000e+00,-1.000000000000000000e+00,4.981689453125000000e-01,1.875000000000000000e-01,-8.463134765625000000e-01,2.221679687500000000e-02
0.000000000000000000e+00,-3.000000000000000000e+00,0.000000000000000000e+00,-6.000000000000000000e+00,3.000000000000000000e+00,3.000000000000000000e+00,9.000000000000000000e+00,-3.000000000000000000e+00,4.977416992187500000e-01,1.880493164062500000e-01,-8.464355468750000000e-01,2.191162109375000000e-02
5.000000000000000000e+00,6.000000000000000000e+00,-2.000000000000000000e+00,0.000000000000000000e+00,6.000000000000000000e+00,-1.000000000000000000e+00,-4.000000000000000000e+00,1.000000000000000000e+00,4.977416992187500000e-01,1.880493164062500000e-01,-8.464355468750000000e-01,2.191162109375000000e-02
-1.500000000000000000e+01,-9.000000000000000000e+00,-2.400000000000000000e+01,-2.000000000000000000e+00,-1.000000000000000000e+00,0.000000000000000000e+00,-5.000000000000000000e+00,-4.000000000000000000e+00,4.977416992187500000e-01,1.880493164062500000e-01,-8.464355468750000000e-01,2.191162109375000000e-02
-3.000000000000000000e+00,-6.000000000000000000e+00,0.000000000000000000e+00,-8.000000000000000000e+00,0.000000000000000000e+00,-2.000000000000000000e+00,2.000000000000000000e+00,3.000000000000000000e+00,4.977416992187500000e-01,1.880493164062500000e-01,-8.464355468750000000e-01,2.191162109375000000e-02
3.000000000000000000e+00,0.000000000000000000e+00,1.000000000000000000e+00,3.000000000000000000e+00,-5.000000000000000000e+00,-5.000000000000000000e+00,-4.000000000000000000e+00,-3.000000000000000000e+00,4.973144531250000000e-01,1.880493164062500000e-01,-8.466796875000000000e-01,2.166748046875000000e-02
6.000000000000000000e+00,-2.000000000000000000e+00,3.000000000000000000e+00,1.000000000000000000e+00,-1.000000000000000000e+00,1.000000000000000000e+00,0.000000000000000000e+00,1.000000000000000000e+00,4.973144531250000000e-01,1.880493164062500000e-01,-8.466796875000000000e-01,2.166748046875000000e-02
3.000000000000000000e+00,0.000000000000000000e+00,-2.000000000000000000e+00,1.000000000000000000e+00,2.000000000000000000e+00,0.000000000000000000e+00,0.000000000000000000e+00,-1.000000000000000000e+00,4.973144531250000000e-01,1.880493164062500000e-01,-8.466796875000000000e-01,2.166748046875000000e-02
-1.000000000000000000e+00,4.000000000000000000e+00,-5.000000000000000000e+00,-1.000000000000000000e+00,-2.000000000000000000e+00,-2.000000000000000000e+00,-4.000000000000000000e+00,-1.000000000000000000e+00,4.973144531250000000e-01,1.880493164062500000e-01,-8.466796875000000000e-01,2.166748046875000000e-02
1.000000000000000000e+00,5.000000000000000000e+00,5.000000000000000000e+00,-2.000000000000000000e+00,-3.000000000000000000e+00,-2.000000000000000000e+00,-4.000000000000000000e+00,0.000000000000000000e+00,4.967651367187500000e-01,1.881713867187500000e-01,-8.469848632812500000e-01,2.148437500000000000e-02
-5.000000000000000000e+00,-3.000000000000000000e+00,-2.000000000000000000e+00,1.000000000000000000e+00,-1.000000000000000000e+00,0.000000000000000000e+00,2.000000000000000000e+00,0.000000000000000000e+00,4.967651367187500000e-01,1.881713867187500000e-01,-8.469848632812500000e-01,2.148437500000000000e-02
3.000000000000000000e+00,-3.000000000000000000e+00,1.000000000000000000e+00,3.000000000000000000e+00,8.000000000000000000e+00,0.000000000000000000e+00,0.000000000000000000e+00,2.000000000000000000e+00,4.967651367187500000e-01,1.881713867187500000e-01,-8.469848632812500000e-01,2.148437500000000000e-02
-4.000000000000000000e+00,-1.000000000000000000e+00,2.000000000000000000e+00,-5.000000000000000000e+00,-7.000000000000000000e+00,-3.000000000000000000e+00,-4.000000000000000000e+00,-1.000000000000000000e+00,4.967651367187500000e-01,1.881713867187500000e-01,-8.469848632812500000e-01,2.148437500000000000e-02
-4.000000000000000000e+00,-2.000000000000000000e+00,1.200000000000000000e+01,4.000000000000000000e+00,-2.000000000000000000e+00,-5.000000000000000000e+00,-5.000000000000000000e+00,-2.000000000000000000e+00,4.962768554687500000e-01,1.878662109375000000e-01,-8.473510742187500000e-01,2.111816406250000000e-02
-9.000000000000000000e+00,-6.000000000000000000e+00,-7.000000000000000000e+00,-7.000000000000000000e+00,-4.000000000000000000e+00,0.000000000000000000e+00,-4.000000000000000000e+00,-4.000000000000000000e+00,4.962768554687500000e-01,1.878662109375000000e-01,-8.473510742187500000e-01,2.111816406250000000e-02
1.000000000000000000e+00,0.000000000000000000e+00,-1.000000000000000000e+01,-3.000000000000000000e+00,-2.000000000000000000e+00,-2.000000000000000000e+00,-1.000000000000000000e+00,2.000000000000000000e+00,4.962768554687500000e-01,1.878662109375000000e-01,-8.473510742187500000e-01,2.111816406250000000e-02
4.000000000000000000e+00,2.000000000000000000e+00,5.000000000000000000e+00,0.000000000000000000e+00,-5.000000000000000000e+00,2.000000000000000000e+00,1.600000000000000000e+01,1.000000000000000000e+00,4.962768554687500000e-01,1.878662109375000000e-01,-8.473510742187500000e-01,2.111816406250000000e-02
-1.000000000000000000e+00,2.000000000000000000e+00,2.000000000000000000e+00,0.000000000000000000e+00,3.000000000000000000e+00,4.000000000000000000e+00,-4.000000000000000000e+00,1.000000000000000000e+00,4.959106445312500000e-01,1.876831054687500000e-01,-8.475952148437500000e-01,2.075195312500000000e-02
1.000000000000000000e+00,2.000000000000000000e+00,-6.000000000000000000e+00,-3.000000000000000000e+00,8.000000000000000000e+00,2.000000000000000000e+00,8.000000000000000000e+00,0.000000000000000000e+00,4.959106445312500000e-01,1.876831054687500000e-01,-8.475952148437500000e-01,2.075195312500000000e-02
9.000000000000000000e+00,0.000000000000000000e+00,1.200000000000000000e+01,1.000000000000000000e+00,2.000000000000000000e+00,-2.000000000000000000e+00,-3.000000000000000000e+00,-2.000000000000000000e+00,4.959106445312500000e-01,1.876831054687500000e-01,-8.475952148437500000e-01,2.075195312500000000e-02
-3.000000000000000000e+01,-1.000000000000000000e+01,-2.000000000000000000e+00,-7.000000000000000000e+00,-7.000000000000000000e+00,-3.000000000000000000e+00,-6.000000000000000000e+00,-2.000000000000000000e+00,4.959106445312500000e-01,1.876831054687500000e-01,-8.475952148437500000e-01,2.075195312500000000e-02
1.000000000000000000e+00,-1.000000000000000000e+00,-1.000000000000000000e+01,-5.000000000000000000e+00,-2.000000000000000000e+00,-2.000000000000000000e+00,0.000000000000000000e+00,-1.000000000000000000e+00,4.955444335937500000e-01,1.873779296875000000e-01,-8.479003906250000000e-01,2.032470703125000000e-02
-4.000000000000000000e+00,-3.000000000000000000e+00,2.000000000000000000e+00,5.000000000000000000e+00,-6.000000000000000000e+00,-4.000000000000000000e+00,-2.000000000000000000e+00,-2.000000000000000000e+00,4.955444335937500000e-01,1.873779296875000000e-01,-8.479003906250000000e-01,2.032470703125000000e-02
-1.000000000000000000e+00,1.000000000000000000e+00,-3.000000000000000000e+00,-1.100000000000000000e+01,-7.000000000000000000e+00,-1.000000000000000000e+00,-3.000000000000000000e+00,-2.000000000000000000e+00,4.955444335937500000e-01,1.873779296875000000e-01,-8.479003906250000000e-01,2.032470703125000000e-02
1.100000000000000000e+01,6.000000000000000000e+00,-1.000000000000000000e+00,8.000000000000000000e+00,4.000000000000000000e+00,-4.000000000000000000e+00,-1.100000000000000000e+01,0.000000000000000000e+00,4.955444335937500000e-01,1.873779296875000000e-01,-8.479003906250000000e-01,2.032470703125000000e-02
-2.000000000000000000e+00,1.000000000000000000e+00,-1.000000000000000000e+00,8.000000000000000000e+00,1.000000000000000000e+00,1.000000000000000000e+00,1.100000000000000000e+01,1.000000000000000000e+00,4.953613281250000000e-01,1.873168945312500000e-01,-8.480224609375000000e-01,1.965332031250000000e-02
0.000000000000000000e+00,9.000000000000000000e+00,1.400000000000000000e+01,-8.000000000000000000e+00,0.000000000000000000e+00,2.000000000000000000e+00,-3.000000000000000000e+00,2.000000000000000000e+00,4.953613281250000000e-01,1.873168945312500000e-01,-8.480224609375000000e-01,1.965332031250000000e-02
-4.000000000000000000e+00,-1.500000000000000000e+01,0.000000000000000000e+00,3.000000000000000000e+00,2.000000000000000000e+00,-3.000000000000000000e+00,-1.000000000000000000e+00,-4.000000000000000000e+00,4.953613281250000000e-01,1.873168945312500000e-01,-8.480224609375000000e-01,1.965332031250000000e-02
-1.000000000000000000e+00,-5.000000000000000000e+00,-6.000000000000000000e+00,-7.000000000000000000e+00,-5.000000000000000000e+00,0.000000000000000000e+00,-1.000000000000000000e+00,-3.000000000000000000e+00,4.953613281250000000e-01,1.873168945312500000e-01,-8.480224609375000000e-01,1.965332031250000000e-02
-3.000000000000000000e+00,-1.000000000000000000e+00,1.000000000000000000e+00,-1.000000000000000000e+00,4.000000000000000000e+00,0.000000000000000000e+00,-3.000000000000000000e+00,-2.000000000000000000e+00,4.955444335937500000e-01,1.868896484375000000e-01,-8.480224609375000000e-01,1.885986328125000000e-02
4.000000000000000000e+00,1.000000000000000000e+00,0.000000000000000000e+00,1.100000000000000000e+01,6.000000000000000000e+00,2.000000000000000000e+00,0.000000000000000000e+00,-5.000000000000000000e+00,4.955444335937500000e-01,1.868896484375000000e-01,-8.480224609375000000e-01,1.885986328125000000e-02
2.000000000000000000e+00,6.000000000000000000e+00,-2.000000000000000000e+00,-6.000000000000000000e+00,-4.000000000000000000e+00,-3.000000000000000000e+00,-6.000000000000000000e+00,4.000000000000000000e+00,4.955444335937500000e-01,1.868896484375000000e-01,-8.480224609375000000e-01,1.885986328125000000e-02
1.000000000000000000e+00,-1.000000000000000000e+00,1.100000000000000000e+01,-1.000000000000000000e+00,-2.000000000000000000e+00,6.000000000000000000e+00,1.800000000000000000e+01,-4.000000000000000000e+00,4.955444335937500000e-01,1.868896484375000000e-01,-8.480224609375000000e-01,1.885986328125000000e-02
-1.000000000000000000e+00,-4.000000000000000000e+00,-9.000000000000000000e+00,-3.000000000000000000e+00,2.000000000000000000e+00,-2.000000000000000000e+00,-1.000000000000000000e+00,-2.000000000000000000e+00,4.957885742187500000e-01,1.862792968750000000e-01,-8.480224609375000000e-01,1.806640625000000000e-02
-5.000000000000000000e+00,-2.000000000000000000e+00,-5.000000000000000000e+00,-9.000000000000000000e+00,-8.000000000000000000e+00,-3.000000000000000000e+00,-1.000000000000000000e+00,-1.000000000000000000e+00,4.957885742187500000e-01,1.862792968750000000e-01,-8.480224609375000000e-01,1.806640625000000000e-02
-3.000000000000000000e+00,0.000000000000000000e+00,2.000000000000000000e+00,4.000000000000000000e+00,1.000000000000000000e+00,-1.000000000000000000e+00,0.000000000000000000e+00,-2.000000000000000000e+00,4.957885742187500000e-01,1.862792968750000000e-01,-8.480224609375000000e-01,1.806640625000000000e-02
7.000000000000000000e+00,0.000000000000000000e+00,1.000000000000000000e+00,-1.000000000000000000e+00,-1.000000000000000000e+00,-2.000000000000000000e+00,-6.000000000000000000e+00,0.000000000000000000e+00,4.957885742187500000e-01,1.862792968750000000e-01,-8.480224609375000000e-01,1.806640625000000000e-02
-5.000000000000000000e+00,1.000000000000000000e+00,-4.000000000000000000e+00,-9.000000000000000000e+00,-5.000000000000000000e+00,-2.000000000000000000e+00,0.000000000000000000e+00,1.000000000000000000e+00,4.962158203125000000e-01,1.855468750000000000e-01,-8.479614257812500000e-01,1.745605468750000000e-02
-1.000000000000000000e+00,-3.000000000000000000e+00,7.000000000000000000e+00,1.200000000000000000e+01,2.000000000000000000e+00,-3.000000000000000000e+00,1.000000000000000000e+00,1.000000000000000000e+00,4.962158203125000000e-01,1.855468750000000000e-01,-8.479614257812500000e-01,1.745605468750000000e-02
-6.000000000000000000e+00,-6.000000000000000000e+00,-4.000000000000000000e+00,-2.000000000000000000e+00,-7.000000000000000000e+00,-2.000000000000000000e+00,-4.000000000000000000e+00,-2.000000000000000000e+00,4.962158203125000000e-01,1.855468750000000000e-01,-8.479614257812500000e-01,1.745605468750000000e-02
4.000000000000000000e+00,0.000000000000000000e+00,-6.000000000000000000e+00,-2.000000000000000000e+00,9.000000000000000000e+00,0.000000000000000000e+00,-4.000000000000000000e+00,2.000000000000000000e+00,4.962158203125000000e-01,1.855468750000000000e-01,-8.479614257812500000e-01,1.745605468750000000e-02
0.000000000000000000e+00,0.000000000000000000e+00,-1.000000000000000000e+00,-7.000000000000000000e+00,3.000000000000000000e+00,-1.000000000000000000e+00,1.000000000000000000e+00,-2.000000000000000000e+00,4.967651367187500000e-01,1.849975585937500000e-01,-8.477783203125000000e-01,1.715087890625000000e-02
-3.000000000000000000e+00,-5.000000000000000000e+00,-8.000000000000000000e+00,1.000000000000000000e+00,-6.000000000000000000e+00,-6.000000000000000000e+00,-9.000000000000000000e+00,0.000000000000000000e+00,4.967651367187500000e-01,1.849975585937500000e-01,-8.477783203125000000e-01,1.715087890625000000e-02
0.000000000000000000e+00,6.000000000000000000e+00,2.000000000000000000e+00,-1.000000000000000000e+00,-2.000000000000000000e+00,0.000000000000000000e+00,3.000000000000000000e+00,-1.000000000000000000e+00,4.967651367187500000e-01,1.849975585937500000e-01,-8.477783203125000000e-01,1.715087890625000000e-02
1.000000000000000000e+00,-1.000000000000000000e+00,1.300000000000000000e+01,3.100000000000000000e+01,-1.000000000000000000e+01,-4.000000000000000000e+00,-6.000000000000000000e+00,-1.000000000000000000e+00,4.967651367187500000e-01,1.849975585937500000e-01,-8.477783203125000000e-01,1.715087890625000000e-02
2.000000000000000000e+00,-7.000000000000000000e+00,-1.400000000000000000e+01,-3.800000000000000000e+01,-6.000000000000000000e+00,-3.000000000000000000e+00,-1.000000000000000000e+01,-2.000000000000000000e+00,4.972534179687500000e-01,1.846923828125000000e-01,-8.475341796875000000e-01,1.702880859375000000e-02
0.000000000000000000e+00,-2.000000000000000000e+00,6.000000000000000000e+00,5.000000000000000000e+00,1.300000000000000000e+01,5.000000000000000000e+00,9.000000000000000000e+00,1.000000000000000000e+00,4.972534179687500000e-01,1.846923828125000000e-01,-8.475341796875000000e-01,1.702880859375000000e-02
2.000000000000000000e+00,2.000000000000000000e+00,-1.000000000000000000e+01,-2.000000000000000000e+00,3.000000000000000000e+00,1.000000000000000000e+00,1.000000000000000000e+00,0.000000000000000000e+00,4.972534179687500000e-01,1.846923828125000000e-01,-8.475341796875000000e-01,1.702880859375000000e-02
2.000000000000000000e+00,5.000000000000000000e+00,2.000000000000000000e+00,-4.000000000000000000e+00,-4.000000000000000000e+00,1.000000000000000000e+00,-6.000000000000000000e+00,-2.000000000000000000e+00,4.972534179687500000e-01,1.846923828125000000e-01,-8.475341796875000000e-01,1.702880859375000000e-02
-6.000000000000000000e+00,-7.000000000000000000e+00,4.000000000000000000e+00,1.300000000000000000e+01,0.000000000000000000e+00,1.000000000000000000e+00,2.000000000000000000e+00,1.000000000000000000e+00,4.976196289062500000e-01,1.844482421875000000e-01,-8.474121093750000000e-01,1.666259765625000000e-02
3.000000000000000000e+00,-1.000000000000000000e+00,-9.000000000000000000e+00,-6.000000000000000000e+00,-4.000000000000000000e+00,-1.000000000000000000e+00,-3.000000000000000000e+00,-4.000000000000000000e+00,4.976196289062500000e-01,1.844482421875000000e-01,-8.474121093750000000e-01,1.666259765625000000e-02
-1.000000000000000000e+01,1.000000000000000000e+00,6.000000000000000000e+00,-4.000000000000000000e+00,-4.000000000000000000e+00,-7.000000000000000000e+00,-6.000000000000000000e+00,-2.000000000000000000e+00,4.976196289062500000e-01,1.844482421875000000e-01,-8.474121093750000000e-01,1.666259765625000000e-02
0.000000000000000000e+00,7.000000000000000000e+00,-9.000000000000000000e+00,-5.000000000000000000e+00,1.000000000000000000e+00,-1.000000000000000000e+00,-3.000000000000000000e+00,-1.000000000000000000e+00,4.976196289062500000e-01,1.844482421875000000e-01,-8.474121093750000000e-01,1.666259765625000000e-02
5.000000000000000000e+00,-1.000000000000000000e+00,1.200000000000000000e+01,6.000000000000000000e+00,2.000000000000000000e+00,-1.000000000000000000e+00,3.000000000000000000e+00,0.000000000000000000e+00,4.982299804687500000e-01,1.835937500000000000e-01,-8.472290039062500000e-01,1.629638671875000000e-02
-8.000000000000000000e+00,-1.200000000000000000e+01,-1.100000000000000000e+01,-8.000000000000000000e+00,1.000000000000000000e+00,1.000000000000000000e+00,-3.000000000000000000e+00,-1.000000000000000000e+00,4.982299804687500000e-01,1.835937500000000000e-01,-8.472290039062500000e-01,1.629638671875000000e-02
3.000000000000000000e+00,-2.000000000000000000e+00,1.000000000000000000e+00,2.000000000000000000e+00,0.000000000000000000e+00,2.000000000000000000e+00,4.000000000000000000e+00,0.000000000000000000e+00,4.982299804687500000e-01,1.835937500000000000e-01,-8.472290039062500000e-01,1.629638671875000000e-02
-1.000000000000000000e+00,1.000000000000000000e+00,-1.000000000000000000e+00,-7.000000000000000000e+00,1.000000000000000000e+00,-3.000000000000000000e+00,-5.000000000000000000e+00,0.000000000000000000e+00,4.982299804687500000e-01,1.835937500000000000e-01,-8.472290039062500000e-01,1.629638671875000000e-02
