0.000000000000000000e+00,-2.000000000000000000e+00,-3.400000000000000000e+01,6.000000000000000000e+00,-1.000000000000000000e+00,2.000000000000000000e+00,1.000000000000000000e+01,0.000000000000000000e+00,3.481445312500000000e-01,2.263793945312500000e-01,-9.064331054687500000e-01,7.696533203125000000e-02
2.000000000000000000e+00,5.000000000000000000e+00,1.500000000000000000e+01,5.000000000000000000e+00,5.000000000000000000e+00,0.000000000000000000e+00,-3.600000000000000000e+01,1.000000000000000000e+00,3.481445312500000000e-01,2.263793945312500000e-01,-9.064331054687500000e-01,7.696533203125000000e-02
-3.000000000000000000e+00,1.000000000000000000e+00,6.400000000000000000e+01,9.000000000000000000e+00,5.000000000000000000e+00,1.000000000000000000e+00,3.200000000000000000e+01,0.000000000000000000e+00,3.477172851562500000e-01,2.265014648437500000e-01,-9.064941406250000000e-01,7.739257812500000000e-02
1.000000000000000000e+00,-2.000000000000000000e+00,-8.800000000000000000e+01,-2.500000000000000000e+01,3.000000000000000000e+00,7.000000000000000000e+00,6.000000000000000000e+00,0.000000000000000000e+00,3.477172851562500000e-01,2.265014648437500000e-01,-9.064941406250000000e-01,7.739257812500000000e-02
1.000000000000000000e+00,5.000000000000000000e+00,6.500000000000000000e+01,2.400000000000000000e+01,-6.000000000000000000e+00,-5.000000000000000000e+00,-5.000000000000000000e+00,-4.000000000000000000e+00,3.477172851562500000e-01,2.265014648437500000e-01,-9.064941406250000000e-01,7.739257812500000000e-02
-1.000000000000000000e+00,-6.000000000000000000e+00,-6.000000000000000000e+00,-1.000000000000000000e+00,-3.000000000000000000e+00,-2.000000000000000000e+00,-1.000000000000000000e+00,0.000000000000000000e+00,3.477172851562500000e-01,2.265014648437500000e-01,-9.064941406250000000e-01,7.739257812500000000e-02
2.000000000000000000e+00,9.000000000000000000e+00,1.800000000000000000e+01,-2.000000000000000000e+01,-5.000000000000000000e+00,-4.000000000000000000e+00,-9.000000000000000000e+00,1.000000000000000000e+00,3.475341796875000000e-01,2.268676757812500000e-01,-9.064941406250000000e-01,7.751464843750000000e-02
-3.000000000000000000e+00,2.000000000000000000e+00,9.000000000000000000e+00,2.600000000000000000e+01,0.000000000000000000e+00,4.000000000000000000e+00,4.000000000000000000e+00,-2.000000000000000000e+00,3.475341796875000000e-01,2.268676757812500000e-01,-9.064941406250000000e-01,7.751464843750000000e-02
-4.000000000000000000e+00,-1.000000000000000000e+01,1.000000000000000000e+01,1.800000000000000000e+01,4.000000000000000000e+00,0.000000000000000000e+00,-2.000000000000000000e+01,-3.000000000000000000e+00,3.475341796875000000e-01,2.268676757812500000e-01,-9.064941406250000000e-01,7.751464843750000000e-02
0.000000000000000000e+00,0.000000000000000000e+00,-1.200000000000000000e+01,-2.700000000000000000e+01,1.000000000000000000e+00,2.000000000000000000e+00,1.600000000000000000e+01,-3.000000000000000000e+00,3.475341796875000000e-01,2.268676757812500000e-01,-9.064941406250000000e-01,7.751464843750000000e-02
-8.000000000000000000e+00,-1.400000000000000000e+01,-6.300000000000000000e+01,3.000000000000000000e+00,-9.000000000000000000e+00,-9.000000000000000000e+00,-1.500000000000000000e+01,-4.000000000000000000e+00,3.476562500000000000e-01,2.260131835937500000e-01,-9.066772460937500000e-01,7.739257812500000000e-02
2.000000000000000000e+00,5.000000000000000000e+00,4.800000000000000000e+01,2.000000000000000000e+01,3.000000000000000000e+00,0.000000000000000000e+00,3.000000000000000000e+00,0.000000000000000000e+00,3.476562500000000000e-01,2.260131835937500000e-01,-9.066772460937500000e-01,7.739257812500000000e-02
0.000000000000000000e+00,0.000000000000000000e+00,1.600000000000000000e+01,1.000000000000000000e+01,-1.200000000000000000e+01,-5.000000000000000000e+00,1.000000000000000000e+00,0.000000000000000000e+00,3.476562500000000000e-01,2.260131835937500000e-01,-9.066772460937500000e-01,7.739257812500000000e-02
-2.000000000000000000e+00,-6.000000000000000000e+00,3.000000000000000000e+00,-3.500000000000000000e+01,-2.000000000000000000e+00,-1.000000000000000000e+00,4.000000000000000000e+00,0.000000000000000000e+00,3.476562500000000000e-01,2.260131835937500000e-01,-9.066772460937500000e-01,7.739257812500000000e-02
2.000000000000000000e+00,5.000000000000000000e+00,1.300000000000000000e+01,2.600000000000000000e+01,1.200000000000000000e+01,5.000000000000000000e+00,-7.000000000000000000e+00,4.000000000000000000e+00,3.475341796875000000e-01,2.252197265625000000e-01,-9.069213867187500000e-01,7.763671875000000000e-02
2.000000000000000000e+00,8.000000000000000000e+00,2.900000000000000000e+01,1.100000000000000000e+01,-3.000000000000000000e+00,-3.000000000000000000e+00,2.000000000000000000e+00,-1.000000000000000000e+00,3.475341796875000000e-01,2.252197265625000000e-01,-9.069213867187500000e-01,7.763671875000000000e-02
-9.000000000000000000e+00,-2.000000000000000000e+01,-3.000000000000000000e+01,-2.200000000000000000e+01,0.000000000000000000e+00,-1.000000000000000000e+00,-3.000000000000000000e+00,-4.000000000000000000e+00,3.475341796875000000e-01,2.252197265625000000e-01,-9.069213867187500000e-01,7.763671875000000000e-02
1.000000000000000000e+00,5.000000000000000000e+00,8.700000000000000000e+01,2.100000000000000000e+01,-2.000000000000000000e+00,-2.000000000000000000e+00,3.000000000000000000e+00,-1.000000000000000000e+00,3.475341796875000000e-01,2.252197265625000000e-01,-9.069213867187500000e-01,7.763671875000000000e-02
-5.000000000000000000e+00,-1.500000000000000000e+01,-6.900000000000000000e+01,-2.100000000000000000e+01,-1.100000000000000000e+01,-8.000000000000000000e+00,-7.000000000000000000e+00,-6.000000000000000000e+00,3.468627929687500000e-01,2.255249023437500000e-01,-9.070434570312500000e-01,7.818603515625000000e-02
3.000000000000000000e+00,3.000000000000000000e+00,-5.100000000000000000e+01,-7.000000000000000000e+00,7.000000000000000000e+00,3.000000000000000000e+00,-1.100000000000000000e+01,-1.000000000000000000e+00,3.468627929687500000e-01,2.255249023437500000e-01,-9.070434570312500000e-01,7.818603515625000000e-02
-1.000000000000000000e+00,0.000000000000000000e+00,-5.100000000000000000e+01,1.000000000000000000e+00,4.000000000000000000e+00,4.000000000000000000e+00,1.900000000000000000e+01,2.000000000000000000e+00,3.468627929687500000e-01,2.255249023437500000e-01,-9.070434570312500000e-01,7.818603515625000000e-02
4.000000000000000000e+00,8.000000000000000000e+00,2.000000000000000000e+01,2.600000000000000000e+01,-2.000000000000000000e+00,-5.000000000000000000e+00,6.000000000000000000e+00,1.000000000000000000e+00,3.468627929687500000e-01,2.255249023437500000e-01,-9.070434570312500000e-01,7.818603515625000000e-02
-1.000000000000000000e+01,-1.600000000000000000e+01,-4.000000000000000000e+00,-1.000000000000000000e+01,-6.000000000000000000e+00,2.000000000000000000e+00,-5.000000000000000000e+00,-2.000000000000000000e+00,3.461303710937500000e-01,2.261962890625000000e-01,-9.071044921875000000e-01,7.843017578125000000e-02
-1.000000000000000000e+00,-1.000000000000000000e+00,8.000000000000000000e+00,-2.000000000000000000e+00,7.000000000000000000e+00,-2.000000000000000000e+00,-6.400000000000000000e+01,-6.000000000000000000e+00,3.461303710937500000e-01,2.261962890625000000e-01,-9.071044921875000000e-01,7.843017578125000000e-02
-1.000000000000000000e+00,5.000000000000000000e+00,4.000000000000000000e+00,-7.000000000000000000e+00,4.000000000000000000e+00,2.000000000000000000e+00,1.900000000000000000e+01,1.000000000000000000e+00,3.461303710937500000e-01,2.261962890625000000e-01,-9.071044921875000000e-01,7.843017578125000000e-02
-4.000000000000000000e+00,-1.400000000000000000e+01,-1.090000000000000000e+02,-1.600000000000000000e+01,-5.000000000000000000e+00,-3.000000000000000000e+00,2.000000000000000000e+00,-3.000000000000000000e+00,3.461303710937500000e-01,2.261962890625000000e-01,-9.071044921875000000e-01,7.843017578125000000e-02
1.000000000000000000e+00,4.000000000000000000e+00,4.500000000000000000e+01,1.100000000000000000e+01,-4.000000000000000000e+00,-2.000000000000000000e+00,3.000000000000000000e+00,-3.000000000000000000e+00,3.457031250000000000e-01,2.260742187500000000e-01,-9.073486328125000000e-01,7.855224609375000000e-02
2.000000000000000000e+00,7.000000000000000000e+00,4.900000000000000000e+01,6.000000000000000000e+00,-5.000000000000000000e+00,-4.000000000000000000e+00,5.000000000000000000e+00,3.000000000000000000e+00,3.457031250000000000e-01,2.260742187500000000e-01,-9.073486328125000000e-01,7.855224609375000000e-02
1.000000000000000000e+00,-4.000000000000000000e+00,-7.700000000000000000e+01,-2.600000000000000000e+01,-4.000000000000000000e+00,0.000000000000000000e+00,0.000000000000000000e+00,1.000000000000000000e+00,3.457031250000000000e-01,2.260742187500000000e-01,-9.073486328125000000e-01,7.855224609375000000e-02
1.000000000000000000e+00,4.000000000000000000e+00,-1.200000000000000000e+01,1.000000000000000000e+00,7.000000000000000000e+00,2.000000000000000000e+00,-7.000000000000000000e+00,0.000000000000000000e+00,3.457031250000000000e-01,2.260742187500000000e-01,-9.073486328125000000e-01,7.855224609375000000e-02
-1.000000000000000000e+00,2.000000000000000000e+00,-5.900000000000000000e+01,-1.300000000000000000e+01,-1.000000000000000000e+01,-1.000000000000000000e+01,-1.200000000000000000e+01,-5.000000000000000000e+00,3.455810546875000000e-01,2.254638671875000000e-01,-9.074707031250000000e-01,7.873535156250000000e-02
-5.000000000000000000e+00,-1.200000000000000000e+01,-3.400000000000000000e+01,-3.100000000000000000e+01,-4.000000000000000000e+00,1.000000000000000000e+00,1.800000000000000000e+01,-1.000000000000000000e+00,3.455810546875000000e-01,2.254638671875000000e-01,-9.074707031250000000e-01,7.873535156250000000e-02
1.000000000000000000e+00,4.000000000000000000e+00,4.100000000000000000e+01,1.000000000000000000e+01,-1.000000000000000000e+00,0.000000000000000000e+00,-1.000000000000000000e+00,0.000000000000000000e+00,3.455810546875000000e-01,2.254638671875000000e-01,-9.074707031250000000e-01,7.873535156250000000e-02
-1.000000000000000000e+00,-2.000000000000000000e+00,-2.300000000000000000e+01,0.000000000000000000e+00,3.000000000000000000e+00,1.000000000000000000e+00,9.000000000000000000e+00,1.000000000000000000e+00,3.455810546875000000e-01,2.254638671875000000e-01,-9.074707031250000000e-01,7.873535156250000000e-02
3.000000000000000000e+00,0.000000000000000000e+00,-1.600000000000000000e+01,9.000000000000000000e+00,9.000000000000000000e+00,3.000000000000000000e+00,2.000000000000000000e+00,3.000000000000000000e+00,3.457031250000000000e-01,2.250976562500000000e-01,-9.075317382812500000e-01,7.904052734375000000e-02
-5.000000000000000000e+00,-2.000000000000000000e+00,7.600000000000000000e+01,-1.000000000000000000e+01,-6.000000000000000000e+00,-4.000000000000000000e+00,-1.000000000000000000e+00,-2.000000000000000000e+00,3.457031250000000000e-01,2.250976562500000000e-01,-9.075317382812500000e-01,7.904052734375000000e-02
-5.000000000000000000e+00,-1.200000000000000000e+01,-8.000000000000000000e+00,3.100000000000000000e+01,-1.000000000000000000e+01,-4.000000000000000000e+00,3.000000000000000000e+00,-4.000000000000000000e+00,3.457031250000000000e-01,2.250976562500000000e-01,-9.075317382812500000e-01,7.904052734375000000e-02
-2.000000000000000000e+00,-8.000000000000000000e+00,4.000000000000000000e+00,-4.000000000000000000e+00,2.000000000000000000e+00,0.000000000000000000e+00,-9.000000000000000000e+00,0.000000000000000000e+00,3.457031250000000000e-01,2.250976562500000000e-01,-9.075317382812500000e-01,7.904052734375000000e-02
1.000000000000000000e+00,7.000000000000000000e+00,2.400000000000000000e+01,-2.500000000000000000e+01,-3.000000000000000000e+00,-1.000000000000000000e+00,3.000000000000000000e+00,0.000000000000000000e+00,3.454589843750000000e-01,2.250976562500000000e-01,-9.075927734375000000e-01,7.946777343750000000e-02
-3.000000000000000000e+00,-7.000000000000000000e+00,-2.300000000000000000e+01,2.500000000000000000e+01,-2.000000000000000000e+00,-3.000000000000000000e+00,1.200000000000000000e+01,-1.000000000000000000e+00,3.454589843750000000e-01,2.250976562500000000e-01,-9.075927734375000000e-01,7.946777343750000000e-02
5.000000000000000000e+00,1.400000000000000000e+01,3.600000000000000000e+01,-7.000000000000000000e+00,1.200000000000000000e+01,4.000000000000000000e+00,-8.000000000000000000e+00,2.000000000000000000e+00,3.454589843750000000e-01,2.250976562500000000e-01,-9.075927734375000000e-01,7.946777343750000000e-02
4.000000000000000000e+00,-5.000000000000000000e+00,-1.700000000000000000e+01,-7.000000000000000000e+00,5.000000000000000000e+00,3.000000000000000000e+00,-3.900000000000000000e+01,2.000000000000000000e+00,3.454589843750000000e-01,2.250976562500000000e-01,-9.075927734375000000e-01,7.946777343750000000e-02
-1.000000000000000000e+01,-1.000000000000000000e+01,1.700000000000000000e+01,3.000000000000000000e+00,-8.000000000000000000e+00,-5.000000000000000000e+00,2.600000000000000000e+01,-6.000000000000000000e+00,3.453369140625000000e-01,2.252197265625000000e-01,-9.075927734375000000e-01,7.989501953125000000e-02
3.000000000000000000e+00,-2.000000000000000000e+00,-3.200000000000000000e+01,-2.000000000000000000e+01,-2.000000000000000000e+00,8.000000000000000000e+00,1.400000000000000000e+01,3.000000000000000000e+00,3.453369140625000000e-01,2.252197265625000000e-01,-9.075927734375000000e-01,7.989501953125000000e-02
-3.000000000000000000e+00,-4.000000000000000000e+00,6.000000000000000000e+00,-4.000000000000000000e+00,-6.000000000000000000e+00,-1.000000000000000000e+01,-1.600000000000000000e+01,-6.000000000000000000e+00,3.453369140625000000e-01,2.252197265625000000e-01,-9.075927734375000000e-01,7.989501953125000000e-02
1.000000000000000000e+00,6.000000000000000000e+00,5.300000000000000000e+01,1.800000000000000000e+01,2.000000000000000000e+00,1.000000000000000000e+00,0.000000000000000000e+00,0.000000000000000000e+00,3.453369140625000000e-01,2.252197265625000000e-01,-9.075927734375000000e-01,7.989501953125000000e-02
4.000000000000000000e+00,4.000000000000000000e+00,3.000000000000000000e+00,9.000000000000000000e+00,6.000000000000000000e+00,0.000000000000000000e+00,-9.000000000000000000e+00,1.000000000000000000e+00,3.453369140625000000e-01,2.255859375000000000e-01,-9.074707031250000000e-01,7.995605468750000000e-02
2.000000000000000000e+00,2.000000000000000000e+00,-9.000000000000000000e+00,2.000000000000000000e+00,-6.000000000000000000e+00,-2.000000000000000000e+00,-3.000000000000000000e+00,-1.000000000000000000e+00,3.453369140625000000e-01,2.255859375000000000e-01,-9.074707031250000000e-01,7.995605468750000000e-02
4.000000000000000000e+00,6.000000000000000000e+00,-1.500000000000000000e+01,-1.100000000000000000e+01,3.000000000000000000e+00,6.000000000000000000e+00,6.000000000000000000e+00,4.000000000000000000e+00,3.453369140625000000e-01,2.255859375000000000e-01,-9.074707031250000000e-01,7.995605468750000000e-02
-7.000000000000000000e+00,1.000000000000000000e+00,1.010000000000000000e+02,3.900000000000000000e+01,-5.000000000000000000e+00,-5.000000000000000000e+00,0.000000000000000000e+00,-5.000000000000000000e+00,3.453369140625000000e-01,2.255859375000000000e-01,-9.074707031250000000e-01,7.995605468750000000e-02
1.000000000000000000e+00,-2.000000000000000000e+00,5.200000000000000000e+01,-9.000000000000000000e+00,-1.200000000000000000e+01,-4.000000000000000000e+00,-4.000000000000000000e+00,-5.000000000000000000e+00,3.453369140625000000e-01,2.255859375000000000e-01,-9.074707031250000000e-01,7.958984375000000000e-02
-3.000000000000000000e+00,-5.000000000000000000e+00,-1.100000000000000000e+01,1.900000000000000000e+01,7.000000000000000000e+00,1.000000000000000000e+00,1.300000000000000000e+01,-1.000000000000000000e+00,3.453369140625000000e-01,2.255859375000000000e-01,-9.074707031250000000e-01,7.958984375000000000e-02
1.000000000000000000e+00,-1.000000000000000000e+00,1.500000000000000000e+01,4.000000000000000000e+00,6.000000000000000000e+00,3.000000000000000000e+00,-1.000000000000000000e+00,1.000000000000000000e+00,3.453369140625000000e-01,2.255859375000000000e-01,-9.074707031250000000e-01,7.958984375000000000e-02
1.000000000000000000e+00,6.000000000000000000e+00,-2.200000000000000000e+01,-1.000000000000000000e+01,0.000000000000000000e+00,1.000000000000000000e+00,1.500000000000000000e+01,1.000000000000000000e+00,3.453369140625000000e-01,2.255859375000000000e-01,-9.074707031250000000e-01,7.958984375000000000e-02
0.000000000000000000e+00,1.000000000000000000e+00,-1.100000000000000000e+01,3.000000000000000000e+00,4.000000000000000000e+00,1.000000000000000000e+00,-6.000000000000000000e+00,2.000000000000000000e+00,3.453369140625000000e-01,2.255859375000000000e-01,-9.075317382812500000e-01,7.934570312500000000e-02
-1.000000000000000000e+00,6.000000000000000000e+00,9.000000000000000000e+00,1.800000000000000000e+01,1.000000000000000000e+00,-2.000000000000000000e+00,-6.000000000000000000e+00,-2.000000000000000000e+00,3.453369140625000000e-01,2.255859375000000000e-01,-9.075317382812500000e-01,7.934570312500000000e-02
6.000000000000000000e+00,1.100000000000000000e+01,6.000000000000000000e+00,4.000000000000000000e+00,3.000000000000000000e+00,3.000000000000000000e+00,-2.000000000000000000e+00,4.000000000000000000e+00,3.453369140625000000e-01,2.255859375000000000e-01,-9.075317382812500000e-01,7.934570312500000000e-02
-1.500000000000000000e+01,-3.600000000000000000e+01,-9.300000000000000000e+01,-7.900000000000000000e+01,-2.400000000000000000e+01,-1.700000000000000000e+01,5.000000000000000000e+00,-8.000000000000000000e+00,3.453369140625000000e-01,2.255859375000000000e-01,-9.075317382812500000e-01,7.934570312500000000e-02
2.000000000000000000e+00,3.000000000000000000e+00,1.000000000000000000e+01,2.000000000000000000e+01,1.200000000000000000e+01,5.000000000000000000e+00,4.000000000000000000e+00,2.000000000000000000e+00,3.452148437500000000e-01,2.259521484375000000e-01,-9.074707031250000000e-01,7.940673828125000000e-02
5.000000000000000000e+00,-1.000000000000000000e+00,-1.300000000000000000e+01,-7.000000000000000000e+00,2.000000000000000000e+00,-2.000000000000000000e+00,4.000000000000000000e+00,2.000000000000000000e+00,3.452148437500000000e-01,2.259521484375000000e-01,-9.074707031250000000e-01,7.940673828125000000e-02
2.000000000000000000e+00,1.000000000000000000e+01,-2.000000000000000000e+00,1.400000000000000000e+01,1.000000000000000000e+00,-2.000000000000000000e+00,-1.700000000000000000e+01,-1.000000000000000000e+00,3.452148437500000000e-01,2.259521484375000000e-01,-9.074707031250000000e-01,7.940673828125000000e-02
-1.000000000000000000e+00,9.000000000000000000e+00,1.100000000000000000e+01,-8.000000000000000000e+00,3.000000000000000000e+00,5.000000000000000000e+00,1.400000000000000000e+01,-1.000000000000000000e+00,3.452148437500000000e-01,2.259521484375000000e-01,-9.074707031250000000e-01,7.940673828125000000e-02
-2.000000000000000000e+00,-7.000000000000000000e+00,-2.000000000000000000e+01,-4.000000000000000000e+00,-7.000000000000000000e+00,-1.000000000000000000e+00,1.500000000000000000e+01,-1.000000000000000000e+00,3.450317382812500000e-01,2.265625000000000000e-01,-9.073486328125000000e-01,7.946777343750000000e-02
0.000000000000000000e+00,4.000000000000000000e+00,3.500000000000000000e+01,6.000000000000000000e+00,3.000000000000000000e+00,0.000000000000000000e+00,4.000000000000000000e+00,-4.000000000000000000e+00,3.450317382812500000e-01,2.265625000000000000e-01,-9.073486328125000000e-01,7.946777343750000000e-02
-1.000000000000000000e+01,-7.000000000000000000e+00,1.000000000000000000e+01,-8.000000000000000000e+00,-1.600000000000000000e+01,-1.200000000000000000e+01,1.000000000000000000e+00,-4.000000000000000000e+00,3.450317382812500000e-01,2.265625000000000000e-01,-9.073486328125000000e-01,7.946777343750000000e-02
-1.000000000000000000e+00,-5.000000000000000000e+00,4.300000000000000000e+01,-7.000000000000000000e+00,-1.000000000000000000e+01,-1.000000000000000000e+00,6.000000000000000000e+00,-1.000000000000000000e+00,3.450317382812500000e-01,2.265625000000000000e-01,-9.073486328125000000e-01,7.946777343750000000e-02
3.000000000000000000e+00,3.000000000000000000e+00,-3.400000000000000000e+01,-1.700000000000000000e+01,3.000000000000000000e+00,0.000000000000000000e+00,-1.300000000000000000e+01,1.000000000000000000e+00,3.448486328125000000e-01,2.270507812500000000e-01,-9.072875976562500000e-01,7.940673828125000000e-02
1.000000000000000000e+00,6.000000000000000000e+00,3.100000000000000000e+01,1.400000000000000000e+01,1.400000000000000000e+01,7.000000000000000000e+00,-1.800000000000000000e+01,-1.000000000000000000e+00,3.448486328125000000e-01,2.270507812500000000e-01,-9.072875976562500000e-01,7.940673828125000000e-02
-4.000000000000000000e+00,-5.000000000000000000e+00,4.200000000000000000e+01,-4.000000000000000000e+00,-1.000000000000000000e+00,-3.000000000000000000e+00,3.000000000000000000e+00,-3.000000000000000000e+00,3.448486328125000000e-01,2.270507812500000000e-01,-9.072875976562500000e-01,7.940673828125000000e-02
3.000000000000000000e+00,0.000000000000000000e+00,-4.500000000000000000e+01,-2.000000000000000000e+00,2.000000000000000000e+00,1.000000000000000000e+00,-7.000000000000000000e+00,-1.000000000000000000e+00,3.448486328125000000e-01,2.270507812500000000e-01,-9.072875976562500000e-01,7.940673828125000000e-02
0.000000000000000000e+00,3.000000000000000000e+00,1.000000000000000000e+01,1.800000000000000000e+01,-3.000000000000000000e+00,-1.000000000000000000e+00,-7.000000000000000000e+00,0.000000000000000000e+00,3.445434570312500000e-01,2.272949218750000000e-01,-9.073486328125000000e-01,7.946777343750000000e-02
-3.000000000000000000e+00,-6.000000000000000000e+00,-2.000000000000000000e+01,-1.600000000000000000e+01,-9.000000000000000000e+00,-7.000000000000000000e+00,3.000000000000000000e+00,1.000000000000000000e+00,3.445434570312500000e-01,2.272949218750000000e-01,-9.073486328125000000e-01,7.946777343750000000e-02
0.000000000000000000e+00,-2.000000000000000000e+00,-1.600000000000000000e+01,-2.700000000000000000e+01,-5.000000000000000000e+00,-2.000000000000000000e+00,-9.000000000000000000e+00,-2.000000000000000000e+00,3.445434570312500000e-01,2.272949218750000000e-01,-9.073486328125000000e-01,7.946777343750000000e-02
-1.000000000000000000e+00,5.000000000000000000e+00,7.000000000000000000e+00,-9.000000000000000000e+00,-1.000000000000000000e+00,-1.000000000000000000e+00,-1.000000000000000000e+00,-1.000000000000000000e+00,3.445434570312500000e-01,2.272949218750000000e-01,-9.073486328125000000e-01,7.946777343750000000e-02
-6.000000000000000000e+00,-1.400000000000000000e+01,-1.400000000000000000e+01,-2.900000000000000000e+01,-8.000000000000000000e+00,-5.000000000000000000e+00,-1.800000000000000000e+01,-5.000000000000000000e+00,3.446044921875000000e-01,2.277832031250000000e-01,-9.072265625000000000e-01,7.928466796875000000e-02
-5.000000000000000000e+00,-2.000000000000000000e+00,1.800000000000000000e+01,1.300000000000000000e+01,-1.000000000000000000e+01,-1.000000000000000000e+01,0.000000000000000000e+00,-4.000000000000000000e+00,3.446044921875000000e-01,2.277832031250000000e-01,-9.072265625000000000e-01,7.928466796875000000e-02
0.000000000000000000e+00,-1.000000000000000000e+00,-1.400000000000000000e+01,-7.000000000000000000e+00,3.000000000000000000e+00,-2.000000000000000000e+00,2.000000000000000000e+00,-4.000000000000000000e+00,3.446044921875000000e-01,2.277832031250000000e-01,-9.072265625000000000e-01,7.928466796875000000e-02
0.000000000000000000e+00,5.000000000000000000e+00,1.800000000000000000e+01,3.400000000000000000e+01,1.100000000000000000e+01,7.000000000000000000e+00,8.000000000000000000e+00,3.000000000000000000e+00,3.446044921875000000e-01,2.277832031250000000e-01,-9.072265625000000000e-01,7.928466796875000000e-02
1.000000000000000000e+00,0.000000000000000000e+00,-1.000000000000000000e+00,-4.000000000000000000e+00,3.000000000000000000e+00,1.000000000000000000e+00,3.000000000000000000e+00,1.000000000000000000e+00,3.447265625000000000e-01,2.275390625000000000e-01,-9.072875976562500000e-01,7.916259765625000000e-02
0.000000000000000000e+00,-2.000000000000000000e+00,-3.000000000000000000e+00,-2.500000000000000000e+01,-7.000000000000000000e+00,0.000000000000000000e+00,-3.000000000000000000e+00,-1.000000000000000000e+00,3.447265625000000000e-01,2.275390625000000000e-01,-9.072875976562500000e-01,7.916259765625000000e-02
-1.000000000000000000e+00,1.000000000000000000e+00,1.500000000000000000e+01,1.300000000000000000e+01,-6.000000000000000000e+00,-3.000000000000000000e+00,-2.000000000000000000e+00,0.000000000000000000e+00,3.447265625000000000e-01,2.275390625000000000e-01,-9.072875976562500000e-01,7.916259765625000000e-02
-2.000000000000000000e+00,-6.000000000000000000e+00,-4.900000000000000000e+01,-2.500000000000000000e+01,-8.000000000000000000e+00,-8.000000000000000000e+00,1.400000000000000000e+01,-4.000000000000000000e+00,3.447265625000000000e-01,2.275390625000000000e-01,-9.072875976562500000e-01,7.916259765625000000e-02
0.000000000000000000e+00,1.000000000000000000e+00,1.100000000000000000e+01,1.500000000000000000e+01,-1.000000000000000000e+00,-1.000000000000000000e+00,-5.000000000000000000e+00,-1.000000000000000000e+00,3.447265625000000000e-01,2.270507812500000000e-01,-9.073486328125000000e-01,7.946777343750000000e-02
0.000000000000000000e+00,-1.000000000000000000e+00,-9.000000000000000000e+00,8.000000000000000000e+00,3.000000000000000000e+00,3.000000000000000000e+00,5.000000000000000000e+00,3.000000000000000000e+00,3.447265625000000000e-01,2.270507812500000000e-01,-9.073486328125000000e-01,7.946777343750000000e-02
1.000000000000000000e+00,-1.000000000000000000e+01,-7.700000000000000000e+01,-4.100000000000000000e+01,2.000000000000000000e+00,2.000000000000000000e+00,1.000000000000000000e+01,0.000000000000000000e+00,3.447265625000000000e-01,2.270507812500000000e-01,-9.073486328125000000e-01,7.946777343750000000e-02
0.000000000000000000e+00,2.000000000000000000e+00,4.000000000000000000e+00,1.500000000000000000e+01,5.000000000000000000e+00,3.000000000000000000e+00,-3.000000000000000000e+00,-1.000000000000000000e+00,3.447265625000000000e-01,2.270507812500000000e-01,-9.073486328125000000e-01,7.946777343750000000e-02
0.000000000000000000e+00,3.000000000000000000e+00,1.100000000000000000e+01,5.000000000000000000e+00,-1.000000000000000000e+00,-5.000000000000000000e+00,-4.000000000000000000e+00,0.000000000000000000e+00,3.444824218750000000e-01,2.272949218750000000e-01,-9.073486328125000000e-01,8.007812500000000000e-02
-4.000000000000000000e+00,7.000000000000000000e+00,3.000000000000000000e+00,3.300000000000000000e+01,1.000000000000000000e+00,4.000000000000000000e+00,1.600000000000000000e+01,-1.000000000000000000e+00,3.444824218750000000e-01,2.272949218750000000e-01,-9.073486328125000000e-01,8.007812500000000000e-02
-7.000000000000000000e+00,-1.600000000000000000e+01,-5.000000000000000000e+01,-4.600000000000000000e+01,-1.000000000000000000e+01,-5.000000000000000000e+00,-2.500000000000000000e+01,-5.000000000000000000e+00,3.444824218750000000e-01,2.272949218750000000e-01,-9.073486328125000000e-01,8.007812500000000000e-02
0.000000000000000000e+00,-3.000000000000000000e+00,1.000000000000000000e+00,-1.200000000000000000e+01,-1.000000000000000000e+00,-1.000000000000000000e+00,8.000000000000000000e+00,-2.000000000000000000e+00,3.444824218750000000e-01,2.272949218750000000e-01,-9.073486328125000000e-01,8.007812500000000000e-02
-3.000000000000000000e+00,-2.000000000000000000e+00,-1.400000000000000000e+01,4.000000000000000000e+00,1.000000000000000000e+00,-5.000000000000000000e+00,-1.000000000000000000e+01,-2.000000000000000000e+00,3.442993164062500000e-01,2.277832031250000000e-01,-9.072265625000000000e-01,8.068847656250000000e-02
2.000000000000000000e+00,-3.000000000000000000e+00,-3.100000000000000000e+01,-4.000000000000000000e+00,3.000000000000000000e+00,-1.000000000000000000e+00,-2.000000000000000000e+00,1.000000000000000000e+00,3.442993164062500000e-01,2.277832031250000000e-01,-9.072265625000000000e-01,8.068847656250000000e-02
2.000000000000000000e+00,4.000000000000000000e+00,-2.000000000000000000e+00,1.900000000000000000e+01,2.000000000000000000e+00,4.000000000000000000e+00,-3.000000000000000000e+00,2.000000000000000000e+00,3.442993164062500000e-01,2.277832031250000000e-01,-9.072265625000000000e-01,8.068847656250000000e-02
-1.000000000000000000e+00,2.000000000000000000e+00,2.000000000000000000e+00,3.000000000000000000e+00,-2.000000000000000000e+00,-1.000000000000000000e+00,-7.000000000000000000e+00,0.000000000000000000e+00,3.442993164062500000e-01,2.277832031250000000e-01,-9.072265625000000000e-01,8.068847656250000000e-02
0.000000000000000000e+00,2.000000000000000000e+00,9.000000000000000000e+00,5.000000000000000000e+00,-3.000000000000000000e+00,1.000000000000000000e+00,1.900000000000000000e+01,0.000000000000000000e+00,3.442382812500000000e-01,2.280273437500000000e-01,-9.071655273437500000e-01,8.123779296875000000e-02
-1.000000000000000000e+00,-4.000000000000000000e+00,-1.300000000000000000e+01,-1.100000000000000000e+01,2.000000000000000000e+00,5.000000000000000000e+00,2.000000000000000000e+01,0.000000000000000000e+00,3.442382812500000000e-01,2.280273437500000000e-01,-9.071655273437500000e-01,8.123779296875000000e-02
4.000000000000000000e+00,1.300000000000000000e+01,5.100000000000000000e+01,4.200000000000000000e+01,1.000000000000000000e+01,6.000000000000000000e+00,9.000000000000000000e+00,1.000000000000000000e+00,3.442382812500000000e-01,2.280273437500000000e-01,-9.071655273437500000e-01,8.123779296875000000e-02
-9.000000000000000000e+00,-2.100000000000000000e+01,-2.700000000000000000e+01,-4.000000000000000000e+01,-1.300000000000000000e+01,-7.000000000000000000e+00,-9.000000000000000000e+00,-4.000000000000000000e+00,3.442382812500000000e-01,2.280273437500000000e-01,-9.071655273437500000e-01,8.123779296875000000e-02
0.000000000000000000e+00,-1.000000000000000000e+00,1.500000000000000000e+01,-7.000000000000000000e+00,-6.000000000000000000e+00,-4.000000000000000000e+00,-7.000000000000000000e+00,0.000000000000000000e+00,3.444213867187500000e-01,2.275390625000000000e-01,-9.072265625000000000e-01,8.111572265625000000e-02
0.000000000000000000e+00,-1.000000000000000000e+00,6.000000000000000000e+00,-8.000000000000000000e+00,-6.000000000000000000e+00,-4.000000000000000000e+00,-7.000000000000000000e+00,-2.000000000000000000e+00,3.444213867187500000e-01,2.275390625000000000e-01,-9.072265625000000000e-01,8.111572265625000000e-02
-4.000000000000000000e+00,-1.000000000000000000e+00,-2.000000000000000000e+01,-1.500000000000000000e+01,-6.000000000000000000e+00,1.000000000000000000e+00,5.000000000000000000e+00,-2.000000000000000000e+00,3.444213867187500000e-01,2.275390625000000000e-01,-9.072265625000000000e-01,8.111572265625000000e-02
1.000000000000000000e+00,4.000000000000000000e+00,1.900000000000000000e+01,3.200000000000000000e+01,7.000000000000000000e+00,1.000000000000000000e+00,-3.000000000000000000e+00,1.000000000000000000e+00,3.444213867187500000e-01,2.275390625000000000e-01,-9.072265625000000000e-01,8.111572265625000000e-02
1.000000000000000000e+00,-1.000000000000000000e+00,-1.700000000000000000e+01,-6.000000000000000000e+00,2.000000000000000000e+00,2.000000000000000000e+00,-1.000000000000000000e+00,0.000000000000000000e+00,3.447265625000000000e-01,2.271728515625000000e-01,-9.071655273437500000e-01,8.123779296875000000e-02
1.000000000000000000e+00,-2.000000000000000000e+00,-1.200000000000000000e+01,-2.100000000000000000e+01,-4.000000000000000000e+00,-3.000000000000000000e+00,-7.000000000000000000e+00,0.000000000000000000e+00,3.447265625000000000e-01,2.271728515625000000e-01,-9.071655273437500000e-01,8.123779296875000000e-02
2.000000000000000000e+00,-3.000000000000000000e+00,4.000000000000000000e+00,1.600000000000000000e+01,3.000000000000000000e+00,-1.000000000000000000e+00,-2.000000000000000000e+00,-2.000000000000000000e+00,3.447265625000000000e-01,2.271728515625000000e-01,-9.071655273437500000e-01,8.123779296875000000e-02
-1.000000000000000000e+00,-2.000000000000000000e+00,1.700000000000000000e+01,1.000000000000000000e+01,1.000000000000000000e+00,3.000000000000000000e+00,6.000000000000000000e+00,0.000000000000000000e+00,3.447265625000000000e-01,2.271728515625000000e-01,-9.071655273437500000e-01,8.123779296875000000e-02
-2.000000000000000000e+00,-3.000000000000000000e+00,-1.700000000000000000e+01,-1.500000000000000000e+01,-1.000000000000000000e+00,3.000000000000000000e+00,4.200000000000000000e+01,1.000000000000000000e+00,3.447875976562500000e-01,2.263793945312500000e-01,-9.073486328125000000e-01,8.154296875000000000e-02
1.000000000000000000e+00,5.000000000000000000e+00,1.900000000000000000e+01,3.000000000000000000e+00,-2.000000000000000000e+00,-3.000000000000000000e+00,-3.000000000000000000e+00,-1.000000000000000000e+00,3.447875976562500000e-01,2.263793945312500000e-01,-9.073486328125000000e-01,8.154296875000000000e-02
-1.000000000000000000e+00,0.000000000000000000e+00,8.000000000000000000e+00,-2.300000000000000000e+01,-3.000000000000000000e+00,-5.000000000000000000e+00,1.000000000000000000e+00,-1.000000000000000000e+00,3.447875976562500000e-01,2.263793945312500000e-01,-9.073486328125000000e-01,8.154296875000000000e-02
2.000000000000000000e+00,5.000000000000000000e+00,1.300000000000000000e+01,1.800000000000000000e+01,0.000000000000000000e+00,0.000000000000000000e+00,-2.000000000000000000e+00,3.000000000000000000e+00,3.447875976562500000e-01,2.263793945312500000e-01,-9.073486328125000000e-01,8.154296875000000000e-02
0.000000000000000000e+00,2.000000000000000000e+00,3.600000000000000000e+01,1.300000000000000000e+01,2.000000000000000000e+00,2.000000000000000000e+00,-1.100000000000000000e+01,0.000000000000000000e+00,3.447265625000000000e-01,2.269287109375000000e-01,-9.071655273437500000e-01,8.203125000000000000e-02
0.000000000000000000e+00,-3.000000000000000000e+00,3.000000000000000000e+00,-7.000000000000000000e+00,-2.000000000000000000e+00,-1.000000000000000000e+00,-1.100000000000000000e+01,-3.000000000000000000e+00,3.447265625000000000e-01,2.269287109375000000e-01,-9.071655273437500000e-01,8.203125000000000000e-02
-5.000000000000000000e+00,0.000000000000000000e+00,-2.000000000000000000e+00,7.000000000000000000e+00,7.000000000000000000e+00,3.000000000000000000e+00,1.100000000000000000e+01,-2.000000000000000000e+00,3.447265625000000000e-01,2.269287109375000000e-01,-9.071655273437500000e-01,8.203125000000000000e-02
-5.000000000000000000e+00,-9.000000000000000000e+00,-7.400000000000000000e+01,-2.200000000000000000e+01,-9.000000000000000000e+00,-3.000000000000000000e+00,4.000000000000000000e+00,-4.000000000000000000e+00,3.447265625000000000e-01,2.269287109375000000e-01,-9.071655273437500000e-01,8.203125000000000000e-02
-2.000000000000000000e+00,2.000000000000000000e+00,3.200000000000000000e+01,1.100000000000000000e+01,1.000000000000000000e+00,-2.000000000000000000e+00,-5.000000000000000000e+00,2.000000000000000000e+00,3.443603515625000000e-01,2.272338867187500000e-01,-9.071655273437500000e-01,8.239746093750000000e-02
-4.000000000000000000e+00,-5.000000000000000000e+00,3.000000000000000000e+01,-1.000000000000000000e+01,-8.000000000000000000e+00,-6.000000000000000000e+00,-1.500000000000000000e+01,-4.000000000000000000e+00,3.443603515625000000e-01,2.272338867187500000e-01,-9.071655273437500000e-01,8.239746093750000000e-02
0.000000000000000000e+00,0.000000000000000000e+00,1.200000000000000000e+01,1.800000000000000000e+01,-3.000000000000000000e+00,0.000000000000000000e+00,-8.000000000000000000e+00,-1.000000000000000000e+00,3.443603515625000000e-01,2.272338867187500000e-01,-9.071655273437500000e-01,8.239746093750000000e-02
5.000000000000000000e+00,9.000000000000000000e+00,2.500000000000000000e+01,-9.000000000000000000e+00,2.000000000000000000e+00,4.000000000000000000e+00,0.000000000000000000e+00,0.000000000000000000e+00,3.443603515625000000e-01,2.272338867187500000e-01,-9.071655273437500000e-01,8.239746093750000000e-02
2.000000000000000000e+00,5.000000000000000000e+00,-2.000000000000000000e+01,-2.000000000000000000e+00,2.000000000000000000e+00,1.000000000000000000e+00,-1.000000000000000000e+01,-1.000000000000000000e+00,3.440551757812500000e-01,2.279052734375000000e-01,-9.071044921875000000e-01,8.264160156250000000e-02
-2.000000000000000000e+00,1.000000000000000000e+00,-5.000000000000000000e+00,3.100000000000000000e+01,0.000000000000000000e+00,-2.000000000000000000e+00,6.000000000000000000e+00,-1.000000000000000000e+00,3.440551757812500000e-01,2.279052734375000000e-01,-9.071044921875000000e-01,8.264160156250000000e-02
-8.000000000000000000e+00,-1.200000000000000000e+01,2.800000000000000000e+01,-3.400000000000000000e+01,-1.000000000000000000e+01,-5.000000000000000000e+00,-8.000000000000000000e+00,-6.000000000000000000e+00,3.440551757812500000e-01,2.279052734375000000e-01,-9.071044921875000000e-01,8.264160156250000000e-02
0.000000000000000000e+00,-2.000000000000000000e+00,-6.000000000000000000e+00,8.000000000000000000e+00,7.000000000000000000e+00,1.000000000000000000e+00,-1.000000000000000000e+00,-1.000000000000000000e+00,3.440551757812500000e-01,2.279052734375000000e-01,-9.071044921875000000e-01,8.264160156250000000e-02
-2.000000000000000000e+00,-2.000000000000000000e+00,3.000000000000000000e+00,-1.100000000000000000e+01,-5.000000000000000000e+00,-4.000000000000000000e+00,-8.000000000000000000e+00,-3.000000000000000000e+00,3.439331054687500000e-01,2.280273437500000000e-01,-9.071655273437500000e-01,8.227539062500000000e-02
-2.000000000000000000e+00,-1.000000000000000000e+00,-3.000000000000000000e+00,-2.000000000000000000e+00,2.000000000000000000e+00,0.000000000000000000e+00,-2.000000000000000000e+00,2.000000000000000000e+00,3.439331054687500000e-01,2.280273437500000000e-01,-9.071655273437500000e-01,8.227539062500000000e-02
6.000000000000000000e+00,2.000000000000000000e+00,-5.000000000000000000e+00,-1.000000000000000000e+00,4.000000000000000000e+00,4.000000000000000000e+00,5.000000000000000000e+00,3.000000000000000000e+00,3.439331054687500000e-01,2.280273437500000000e-01,-9.071655273437500000e-01,8.227539062500000000e-02
-1.000000000000000000e+00,4.000000000000000000e+00,4.100000000000000000e+01,3.200000000000000000e+01,-1.000000000000000000e+00,-7.000000000000000000e+00,-4.400000000000000000e+01,-1.000000000000000000e+00,3.439331054687500000e-01,2.280273437500000000e-01,-9.071655273437500000e-01,8.227539062500000000e-02
-7.000000000000000000e+00,-7.000000000000000000e+00,-1.800000000000000000e+01,-1.000000000000000000e+00,-4.000000000000000000e+00,-1.000000000000000000e+00,-4.000000000000000000e+00,-1.000000000000000000e+00,3.438110351562500000e-01,2.276611328125000000e-01,-9.073486328125000000e-01,8.184814453125000000e-02
2.000000000000000000e+00,1.000000000000000000e+00,-4.000000000000000000e+00,2.300000000000000000e+01,1.000000000000000000e+00,-1.000000000000000000e+00,0.000000000000000000e+00,0.000000000000000000e+00,3.438110351562500000e-01,2.276611328125000000e-01,-9.073486328125000000e-01,8.184814453125000000e-02
0.000000000000000000e+00,1.000000000000000000e+00,-1.800000000000000000e+01,-3.600000000000000000e+01,-5.000000000000000000e+00,-2.000000000000000000e+00,8.000000000000000000e+00,-2.000000000000000000e+00,3.437500000000000000e-01,2.272949218750000000e-01,-9.074707031250000000e-01,8.160400390625000000e-02
-1.000000000000000000e+00,-7.000000000000000000e+00,2.100000000000000000e+01,5.000000000000000000e+00,0.000000000000000000e+00,1.000000000000000000e+00,-4.000000000000000000e+00,-2.000000000000000000e+00,3.437500000000000000e-01,2.272949218750000000e-01,-9.074707031250000000e-01,8.160400390625000000e-02
1.000000000000000000e+00,4.000000000000000000e+00,1.000000000000000000e+01,1.600000000000000000e+01,4.000000000000000000e+00,-1.000000000000000000e+00,-5.000000000000000000e+00,-2.000000000000000000e+00,3.437500000000000000e-01,2.272949218750000000e-01,-9.074707031250000000e-01,8.160400390625000000e-02
-2.000000000000000000e+00,-3.000000000000000000e+00,-1.100000000000000000e+01,-1.900000000000000000e+01,1.000000000000000000e+00,6.000000000000000000e+00,1.000000000000000000e+01,-3.000000000000000000e+00,3.437500000000000000e-01,2.272949218750000000e-01,-9.074707031250000000e-01,8.160400390625000000e-02
0.000000000000000000e+00,-2.000000000000000000e+00,2.900000000000000000e+01,2.200000000000000000e+01,-9.000000000000000000e+00,-1.000000000000000000e+01,-1.800000000000000000e+01,-3.000000000000000000e+00,3.436889648437500000e-01,2.271728515625000000e-01,-9.075317382812500000e-01,8.160400390625000000e-02
-1.000000000000000000e+00,1.000000000000000000e+00,5.300000000000000000e+01,-4.000000000000000000e+00,-6.000000000000000000e+00,1.000000000000000000e+00,2.000000000000000000e+01,0.000000000000000000e+00,3.436889648437500000e-01,2.271728515625000000e-01,-9.075317382812500000e-01,8.160400390625000000e-02
-2.000000000000000000e+00,-7.000000000000000000e+00,-5.000000000000000000e+01,-1.500000000000000000e+01,-1.000000000000000000e+00,-1.000000000000000000e+00,-3.000000000000000000e+00,-1.000000000000000000e+00,3.436889648437500000e-01,2.271728515625000000e-01,-9.075317382812500000e-01,8.160400390625000000e-02
-6.000000000000000000e+00,-5.000000000000000000e+00,5.000000000000000000e+00,-1.500000000000000000e+01,0.000000000000000000e+00,0.000000000000000000e+00,-2.000000000000000000e+00,0.000000000000000000e+00,3.436889648437500000e-01,2.271728515625000000e-01,-9.075317382812500000e-01,8.160400390625000000e-02
-1.000000000000000000e+00,2.000000000000000000e+00,-1.400000000000000000e+01,1.000000000000000000e+00,7.000000000000000000e+00,4.000000000000000000e+00,3.000000000000000000e+00,0.000000000000000000e+00,3.436889648437500000e-01,2.272338867187500000e-01,-9.075317382812500000e-01,8.160400390625000000e-02
4.000000000000000000e+00,4.000000000000000000e+00,-4.000000000000000000e+00,5.000000000000000000e+00,0.000000000000000000e+00,-3.000000000000000000e+00,5.000000000000000000e+00,-1.000000000000000000e+00,3.436889648437500000e-01,2.272338867187500000e-01,-9.075317382812500000e-01,8.160400390625000000e-02
0.000000000000000000e+00,-1.000000000000000000e+00,-1.000000000000000000e+00,4.000000000000000000e+00,-5.000000000000000000e+00,-5.000000000000000000e+00,0.000000000000000000e+00,-2.000000000000000000e+00,3.436889648437500000e-01,2.272338867187500000e-01,-9.075317382812500000e-01,8.160400390625000000e-02
9.000000000000000000e+00,1.200000000000000000e+01,-5.000000000000000000e+00,-1.400000000000000000e+01,1.000000000000000000e+00,3.000000000000000000e+00,-6.000000000000000000e+00,1.000000000000000000e+00,3.436889648437500000e-01,2.272338867187500000e-01,-9.075317382812500000e-01,8.160400390625000000e-02
-1.300000000000000000e+01,-2.400000000000000000e+01,-5.800000000000000000e+01,-1.600000000000000000e+01,-1.300000000000000000e+01,-1.100000000000000000e+01,-6.000000000000000000e+00,-7.000000000000000000e+00,3.436889648437500000e-01,2.272338867187500000e-01,-9.075317382812500000e-01,8.160400390625000000e-02
-1.000000000000000000e+00,-4.000000000000000000e+00,-5.000000000000000000e+00,1.900000000000000000e+01,3.000000000000000000e+00,1.000000000000000000e+00,1.000000000000000000e+00,1.000000000000000000e+00,3.436889648437500000e-01,2.272338867187500000e-01,-9.075317382812500000e-01,8.160400390625000000e-02
-1.000000000000000000e+00,4.000000000000000000e+00,-1.900000000000000000e+01,-5.000000000000000000e+00,5.000000000000000000e+00,3.000000000000000000e+00,-4.000000000000000000e+00,0.000000000000000000e+00,3.436889648437500000e-01,2.272338867187500000e-01,-9.075317382812500000e-01,8.160400390625000000e-02
-1.000000000000000000e+00,-1.000000000000000000e+00,-1.900000000000000000e+01,-2.000000000000000000e+00,-1.000000000000000000e+00,0.000000000000000000e+00,-3.000000000000000000e+00,0.000000000000000000e+00,3.436889648437500000e-01,2.272338867187500000e-01,-9.075317382812500000e-01,8.160400390625000000e-02
3.000000000000000000e+00,8.000000000000000000e+00,3.700000000000000000e+01,8.000000000000000000e+00,5.000000000000000000e+00,3.000000000000000000e+00,3.000000000000000000e+00,2.000000000000000000e+00,3.435668945312500000e-01,2.272949218750000000e-01,-9.075927734375000000e-01,8.135986328125000000e-02
3.000000000000000000e+00,5.000000000000000000e+00,-1.700000000000000000e+01,5.000000000000000000e+00,3.000000000000000000e+00,-1.000000000000000000e+00,-9.000000000000000000e+00,-2.000000000000000000e+00,3.435668945312500000e-01,2.272949218750000000e-01,-9.075927734375000000e-01,8.135986328125000000e-02
-7.000000000000000000e+00,-1.000000000000000000e+01,3.200000000000000000e+01,0.000000000000000000e+00,-9.000000000000000000e+00,-7.000000000000000000e+00,1.000000000000000000e+00,-3.000000000000000000e+00,3.435668945312500000e-01,2.272949218750000000e-01,-9.075927734375000000e-01,8.135986328125000000e-02
-2.000000000000000000e+00,-1.000000000000000000e+00,4.700000000000000000e+01,-2.800000000000000000e+01,1.000000000000000000e+00,3.000000000000000000e+00,2.800000000000000000e+01,-2.000000000000000000e+00,3.435668945312500000e-01,2.272949218750000000e-01,-9.075927734375000000e-01,8.135986328125000000e-02
-1.000000000000000000e+00,2.000000000000000000e+00,2.000000000000000000e+00,2.400000000000000000e+01,1.000000000000000000e+00,-4.000000000000000000e+00,-4.000000000000000000e+00,-3.000000000000000000e+00,3.436889648437500000e-01,2.276000976562500000e-01,-9.074707031250000000e-01,8.105468750000000000e-02
-1.000000000000000000e+00,-3.000000000000000000e+00,-4.600000000000000000e+01,-2.000000000000000000e+01,-2.000000000000000000e+00,-4.000000000000000000e+00,-3.000000000000000000e+00,-1.000000000000000000e+00,3.436889648437500000e-01,2.276000976562500000e-01,-9.074707031250000000e-01,8.105468750000000000e-02
2.000000000000000000e+00,4.000000000000000000e+00,4.000000000000000000e+00,3.000000000000000000e+00,2.000000000000000000e+00,6.000000000000000000e+00,9.000000000000000000e+00,4.000000000000000000e+00,3.436889648437500000e-01,2.276000976562500000e-01,-9.074707031250000000e-01,8.105468750000000000e-02
-1.000000000000000000e+00,-2.000000000000000000e+00,-1.000000000000000000e+00,1.300000000000000000e+01,-8.000000000000000000e+00,-9.000000000000000000e+00,-1.500000000000000000e+01,-1.000000000000000000e+00,3.436889648437500000e-01,2.276000976562500000e-01,-9.074707031250000000e-01,8.105468750000000000e-02
-1.000000000000000000e+00,-3.000000000000000000e+00,1.400000000000000000e+01,-2.000000000000000000e+00,-5.000000000000000000e+00,-6.000000000000000000e+00,-8.000000000000000000e+00,2.000000000000000000e+00,3.438110351562500000e-01,2.275390625000000000e-01,-9.074707031250000000e-01,8.081054687500000000e-02
-3.000000000000000000e+00,-4.000000000000000000e+00,-1.070000000000000000e+02,-2.200000000000000000e+01,0.000000000000000000e+00,2.000000000000000000e+00,-1.000000000000000000e+01,1.000000000000000000e+00,3.438110351562500000e-01,2.275390625000000000e-01,-9.074707031250000000e-01,8.081054687500000000e-02
1.000000000000000000e+00,-1.000000000000000000e+00,6.100000000000000000e+01,1.000000000000000000e+01,-1.000000000000000000e+00,-6.000000000000000000e+00,-7.000000000000000000e+00,-4.000000000000000000e+00,3.438110351562500000e-01,2.275390625000000000e-01,-9.074707031250000000e-01,8.081054687500000000e-02
-7.000000000000000000e+00,-5.000000000000000000e+00,-1.600000000000000000e+01,6.000000000000000000e+00,3.000000000000000000e+00,1.000000000000000000e+00,3.000000000000000000e+00,-1.000000000000000000e+00,3.438110351562500000e-01,2.275390625000000000e-01,-9.074707031250000000e-01,8.081054687500000000e-02
3.000000000000000000e+00,3.000000000000000000e+00,-7.000000000000000000e+00,-2.000000000000000000e+00,1.000000000000000000e+00,-1.000000000000000000e+00,-1.000000000000000000e+00,0.000000000000000000e+00,3.437500000000000000e-01,2.275390625000000000e-01,-9.074707031250000000e-01,8.081054687500000000e-02
0.000000000000000000e+00,6.000000000000000000e+00,1.600000000000000000e+01,8.000000000000000000e+00,2.000000000000000000e+00,0.000000000000000000e+00,-7.000000000000000000e+00,0.000000000000000000e+00,3.437500000000000000e-01,2.275390625000000000e-01,-9.074707031250000000e-01,8.081054687500000000e-02
5.000000000000000000e+00,3.000000000000000000e+00,-2.700000000000000000e+01,-2.000000000000000000e+00,2.000000000000000000e+00,6.000000000000000000e+00,2.300000000000000000e+01,3.000000000000000000e+00,3.437500000000000000e-01,2.275390625000000000e-01,-9.074707031250000000e-01,8.081054687500000000e-02
-8.000000000000000000e+00,-8.000000000000000000e+00,2.300000000000000000e+01,-1.400000000000000000e+01,-1.400000000000000000e+01,-6.000000000000000000e+00,-2.300000000000000000e+01,-7.000000000000000000e+00,3.437500000000000000e-01,2.275390625000000000e-01,-9.074707031250000000e-01,8.081054687500000000e-02
0.000000000000000000e+00,-7.000000000000000000e+00,1.500000000000000000e+01,-3.000000000000000000e+00,-2.000000000000000000e+00,-9.000000000000000000e+00,2.000000000000000000e+00,-2.000000000000000000e+00,3.438720703125000000e-01,2.279052734375000000e-01,-9.073486328125000000e-01,8.081054687500000000e-02
-3.000000000000000000e+00,-3.000000000000000000e+00,1.800000000000000000e+01,-2.000000000000000000e+00,-1.000000000000000000e+00,-1.000000000000000000e+00,4.000000000000000000e+00,-2.000000000000000000e+00,3.438720703125000000e-01,2.279052734375000000e-01,-9.073486328125000000e-01,8.081054687500000000e-02
-2.000000000000000000e+00,-5.000000000000000000e+00,-4.400000000000000000e+01,-6.000000000000000000e+00,1.000000000000000000e+00,-1.000000000000000000e+00,1.000000000000000000e+00,3.000000000000000000e+00,3.438720703125000000e-01,2.279052734375000000e-01,-9.073486328125000000e-01,8.081054687500000000e-02
3.000000000000000000e+00,1.000000000000000000e+00,3.100000000000000000e+01,1.700000000000000000e+01,4.000000000000000000e+00,3.000000000000000000e+00,-3.000000000000000000e+00,0.000000000000000000e+00,3.438720703125000000e-01,2.279052734375000000e-01,-9.073486328125000000e-01,8.081054687500000000e-02
-1.000000000000000000e+00,1.000000000000000000e+01,-3.200000000000000000e+01,5.000000000000000000e+00,2.000000000000000000e+00,7.000000000000000000e+00,-7.000000000000000000e+00,2.000000000000000000e+00,3.438720703125000000e-01,2.279052734375000000e-01,-9.073486328125000000e-01,8.081054687500000000e-02
-5.000000000000000000e+00,-6.000000000000000000e+00,5.100000000000000000e+01,-4.300000000000000000e+01,-1.400000000000000000e+01,-1.100000000000000000e+01,4.000000000000000000e+00,-4.000000000000000000e+00,3.438720703125000000e-01,2.279052734375000000e-01,-9.073486328125000000e-01,8.081054687500000000e-02
-3.000000000000000000e+00,-6.000000000000000000e+00,-2.300000000000000000e+01,-5.000000000000000000e+00,-3.000000000000000000e+00,1.000000000000000000e+00,0.000000000000000000e+00,-4.000000000000000000e+00,3.438720703125000000e-01,2.279052734375000000e-01,-9.073486328125000000e-01,8.081054687500000000e-02
-2.000000000000000000e+00,-2.000000000000000000e+00,-3.600000000000000000e+01,1.200000000000000000e+01,2.000000000000000000e+00,-7.000000000000000000e+00,-5.000000000000000000e+00,2.000000000000000000e+00,3.438720703125000000e-01,2.279052734375000000e-01,-9.073486328125000000e-01,8.081054687500000000e-02
-1.000000000000000000e+00,1.000000000000000000e+00,9.000000000000000000e+00,-2.000000000000000000e+00,-1.000000000000000000e+00,-1.000000000000000000e+00,-3.400000000000000000e+01,-1.000000000000000000e+00,3.439331054687500000e-01,2.280273437500000000e-01,-9.072875976562500000e-01,8.093261718750000000e-02
4.000000000000000000e+00,7.000000000000000000e+00,-8.000000000000000000e+00,1.600000000000000000e+01,6.000000000000000000e+00,5.000000000000000000e+00,3.100000000000000000e+01,3.000000000000000000e+00,3.439331054687500000e-01,2.280273437500000000e-01,-9.072875976562500000e-01,8.093261718750000000e-02
0.000000000000000000e+00,3.000000000000000000e+00,-3.800000000000000000e+01,-1.000000000000000000e+00,0.000000000000000000e+00,-2.000000000000000000e+00,-9.000000000000000000e+00,-1.000000000000000000e+00,3.439331054687500000e-01,2.280273437500000000e-01,-9.072875976562500000e-01,8.093261718750000000e-02
-4.000000000000000000e+00,-1.200000000000000000e+01,2.800000000000000000e+01,-8.000000000000000000e+00,-7.000000000000000000e+00,-4.000000000000000000e+00,2.000000000000000000e+00,-3.000000000000000000e+00,3.439331054687500000e-01,2.280273437500000000e-01,-9.072875976562500000e-01,8.093261718750000000e-02
3.000000000000000000e+00,0.000000000000000000e+00,-4.900000000000000000e+01,-2.600000000000000000e+01,-5.000000000000000000e+00,-1.000000000000000000e+00,1.000000000000000000e+00,-2.000000000000000000e+00,3.440551757812500000e-01,2.280273437500000000e-01,-9.072875976562500000e-01,8.068847656250000000e-02
0.000000000000000000e+00,4.000000000000000000e+00,4.400000000000000000e+01,2.500000000000000000e+01,2.000000000000000000e+00,-4.000000000000000000e+00,-3.000000000000000000e+00,-1.000000000000000000e+00,3.440551757812500000e-01,2.280273437500000000e-01,-9.072875976562500000e-01,8.068847656250000000e-02
-3.000000000000000000e+00,-1.000000000000000000e+00,-4.100000000000000000e+01,-2.500000000000000000e+01,3.000000000000000000e+00,5.000000000000000000e+00,-8.000000000000000000e+00,0.000000000000000000e+00,3.440551757812500000e-01,2.280273437500000000e-01,-9.072875976562500000e-01,8.068847656250000000e-02
3.000000000000000000e+00,2.000000000000000000e+00,-9.000000000000000000e+00,1.600000000000000000e+01,4.000000000000000000e+00,1.000000000000000000e+00,9.000000000000000000e+00,1.000000000000000000e+00,3.440551757812500000e-01,2.280273437500000000e-01,-9.072875976562500000e-01,8.068847656250000000e-02
-2.000000000000000000e+00,-5.000000000000000000e+00,6.000000000000000000e+00,-6.000000000000000000e+00,-3.000000000000000000e+00,-1.000000000000000000e+00,1.000000000000000000e+01,-2.000000000000000000e+00,3.439941406250000000e-01,2.277832031250000000e-01,-9.073486328125000000e-01,8.044433593750000000e-02
-2.000000000000000000e+00,1.000000000000000000e+00,2.000000000000000000e+01,2.600000000000000000e+01,1.000000000000000000e+00,1.000000000000000000e+00,-1.100000000000000000e+01,-1.000000000000000000e+00,3.439941406250000000e-01,2.277832031250000000e-01,-9.073486328125000000e-01,8.044433593750000000e-02
-9.000000000000000000e+00,-1.000000000000000000e+01,1.700000000000000000e+01,-2.700000000000000000e+01,-1.100000000000000000e+01,-9.000000000000000000e+00,-1.000000000000000000e+01,-3.000000000000000000e+00,3.439941406250000000e-01,2.277832031250000000e-01,-9.073486328125000000e-01,8.044433593750000000e-02
3.000000000000000000e+00,3.000000000000000000e+00,-1.100000000000000000e+01,-6.000000000000000000e+00,0.000000000000000000e+00,-3.000000000000000000e+00,2.000000000000000000e+00,1.000000000000000000e+00,3.439941406250000000e-01,2.277832031250000000e-01,-9.073486328125000000e-01,8.044433593750000000e-02
0.000000000000000000e+00,0.000000000000000000e+00,7.000000000000000000e+00,1.000000000000000000e+01,-1.000000000000000000e+00,4.000000000000000000e+00,1.200000000000000000e+01,1.000000000000000000e+00,3.439941406250000000e-01,2.272949218750000000e-01,-9.074707031250000000e-01,8.074951171875000000e-02
2.000000000000000000e+00,1.000000000000000000e+00,1.300000000000000000e+01,-8.000000000000000000e+00,6.000000000000000000e+00,2.000000000000000000e+00,-3.000000000000000000e+00,0.000000000000000000e+00,3.439941406250000000e-01,2.272949218750000000e-01,-9.074707031250000000e-01,8.074951171875000000e-02
0.000000000000000000e+00,5.000000000000000000e+00,2.900000000000000000e+01,5.100000000000000000e+01,7.000000000000000000e+00,0.000000000000000000e+00,-4.000000000000000000e+00,0.000000000000000000e+00,3.439941406250000000e-01,2.272949218750000000e-01,-9.074707031250000000e-01,8.074951171875000000e-02
-1.000000000000000000e+00,1.000000000000000000e+00,2.100000000000000000e+01,-1.300000000000000000e+01,-9.000000000000000000e+00,-2.000000000000000000e+00,1.000000000000000000e+00,0.000000000000000000e+00,3.439941406250000000e-01,2.272949218750000000e-01,-9.074707031250000000e-01,8.074951171875000000e-02
-5.000000000000000000e+00,-5.000000000000000000e+00,-6.400000000000000000e+01,-1.500000000000000000e+01,-4.000000000000000000e+00,-3.000000000000000000e+00,-9.000000000000000000e+00,-4.000000000000000000e+00,3.436889648437500000e-01,2.277221679687500000e-01,-9.074096679687500000e-01,8.123779296875000000e-02
-3.000000000000000000e+00,-6.000000000000000000e+00,-3.400000000000000000e+01,-9.000000000000000000e+00,-6.000000000000000000e+00,-1.000000000000000000e+00,6.000000000000000000e+00,-1.000000000000000000e+00,3.436889648437500000e-01,2.277221679687500000e-01,-9.074096679687500000e-01,8.123779296875000000e-02
2.000000000000000000e+00,1.000000000000000000e+00,2.200000000000000000e+01,1.700000000000000000e+01,0.000000000000000000e+00,-7.000000000000000000e+00,-5.000000000000000000e+00,3.000000000000000000e+00,3.436889648437500000e-01,2.277221679687500000e-01,-9.074096679687500000e-01,8.123779296875000000e-02
1.000000000000000000e+00,-1.000000000000000000e+00,-2.900000000000000000e+01,-1.000000000000000000e+00,5.000000000000000000e+00,-2.000000000000000000e+00,-2.500000000000000000e+01,-1.000000000000000000e+00,3.436889648437500000e-01,2.277221679687500000e-01,-9.074096679687500000e-01,8.123779296875000000e-02
2.000000000000000000e+00,3.000000000000000000e+00,2.500000000000000000e+01,1.500000000000000000e+01,3.000000000000000000e+00,1.000000000000000000e+01,5.900000000000000000e+01,4.000000000000000000e+00,3.432006835937500000e-01,2.282104492187500000e-01,-9.074707031250000000e-01,8.129882812500000000e-02
3.000000000000000000e+00,2.000000000000000000e+00,-1.000000000000000000e+01,-1.100000000000000000e+01,0.000000000000000000e+00,1.000000000000000000e+00,1.000000000000000000e+00,1.000000000000000000e+00,3.432006835937500000e-01,2.282104492187500000e-01,-9.074707031250000000e-01,8.129882812500000000e-02
2.000000000000000000e+00,7.000000000000000000e+00,4.900000000000000000e+01,2.500000000000000000e+01,-7.000000000000000000e+00,-9.000000000000000000e+00,-1.700000000000000000e+01,-2.000000000000000000e+00,3.432006835937500000e-01,2.282104492187500000e-01,-9.074707031250000000e-01,8.129882812500000000e-02
-1.000000000000000000e+01,-1.300000000000000000e+01,-5.900000000000000000e+01,-7.200000000000000000e+01,-1.500000000000000000e+01,-1.000000000000000000e+01,1.000000000000000000e+00,-6.000000000000000000e+00,3.432006835937500000e-01,2.282104492187500000e-01,-9.074707031250000000e-01,8.129882812500000000e-02
1.000000000000000000e+00,1.000000000000000000e+00,4.100000000000000000e+01,8.000000000000000000e+00,4.000000000000000000e+00,4.000000000000000000e+00,-9.000000000000000000e+00,1.000000000000000000e+00,3.430175781250000000e-01,2.279052734375000000e-01,-9.076538085937500000e-01,8.087158203125000000e-02
-3.000000000000000000e+00,-1.000000000000000000e+00,-1.000000000000000000e+00,5.000000000000000000e+00,4.000000000000000000e+00,0.000000000000000000e+00,-1.000000000000000000e+00,-1.000000000000000000e+00,3.430175781250000000e-01,2.279052734375000000e-01,-9.076538085937500000e-01,8.087158203125000000e-02
2.000000000000000000e+00,2.000000000000000000e+00,8.000000000000000000e+00,-5.000000000000000000e+00,-1.000000000000000000e+00,1.000000000000000000e+00,8.000000000000000000e+00,0.000000000000000000e+00,3.430175781250000000e-01,2.279052734375000000e-01,-9.076538085937500000e-01,8.087158203125000000e-02
4.000000000000000000e+00,7.000000000000000000e+00,-2.700000000000000000e+01,2.200000000000000000e+01,5.000000000000000000e+00,3.000000000000000000e+00,1.000000000000000000e+00,0.000000000000000000e+00,3.430175781250000000e-01,2.279052734375000000e-01,-9.076538085937500000e-01,8.087158203125000000e-02
-3.000000000000000000e+00,-7.000000000000000000e+00,4.300000000000000000e+01,1.000000000000000000e+00,-9.000000000000000000e+00,-8.000000000000000000e+00,-6.000000000000000000e+00,-3.000000000000000000e+00,3.430175781250000000e-01,2.271728515625000000e-01,-9.078979492187500000e-01,8.062744140625000000e-02
-1.000000000000000000e+00,-1.000000000000000000e+00,5.000000000000000000e+01,1.000000000000000000e+01,-2.000000000000000000e+00,-1.000000000000000000e+00,-2.000000000000000000e+00,-2.000000000000000000e+00,3.430175781250000000e-01,2.271728515625000000e-01,-9.078979492187500000e-01,8.062744140625000000e-02
0.000000000000000000e+00,1.000000000000000000e+00,1.200000000000000000e+01,-6.000000000000000000e+00,6.000000000000000000e+00,7.000000000000000000e+00,0.000000000000000000e+00,0.000000000000000000e+00,3.430175781250000000e-01,2.271728515625000000e-01,-9.078979492187500000e-01,8.062744140625000000e-02
-1.000000000000000000e+00,0.000000000000000000e+00,-2.800000000000000000e+01,2.100000000000000000e+01,2.000000000000000000e+00,-6.000000000000000000e+00,-1.000000000000000000e+00,-2.000000000000000000e+00,3.430175781250000000e-01,2.271728515625000000e-01,-9.078979492187500000e-01,8.062744140625000000e-02
-1.000000000000000000e+00,-7.000000000000000000e+00,-1.100000000000000000e+01,-3.800000000000000000e+01,-4.000000000000000000e+00,-1.000000000000000000e+00,-5.000000000000000000e+00,-1.000000000000000000e+00,3.430175781250000000e-01,2.271728515625000000e-01,-9.078979492187500000e-01,8.062744140625000000e-02
-1.000000000000000000e+00,2.000000000000000000e+00,-2.000000000000000000e+00,2.000000000000000000e+01,-1.000000000000000000e+00,0.000000000000000000e+00,-6.000000000000000000e+00,1.000000000000000000e+00,3.430175781250000000e-01,2.271728515625000000e-01,-9.078979492187500000e-01,8.062744140625000000e-02
0.000000000000000000e+00,1.000000000000000000e+00,4.800000000000000000e+01,-1.100000000000000000e+01,-8.000000000000000000e+00,-3.000000000000000000e+00,0.000000000000000000e+00,-6.000000000000000000e+00,3.430175781250000000e-01,2.271728515625000000e-01,-9.078979492187500000e-01,8.062744140625000000e-02
-2.000000000000000000e+00,-2.000000000000000000e+00,-5.900000000000000000e+01,-1.600000000000000000e+01,4.000000000000000000e+00,5.000000000000000000e+00,2.000000000000000000e+00,1.000000000000000000e+00,3.430175781250000000e-01,2.271728515625000000e-01,-9.078979492187500000e-01,8.062744140625000000e-02
1.000000000000000000e+00,6.000000000000000000e+00,2.300000000000000000e+01,1.000000000000000000e+01,-3.000000000000000000e+00,0.000000000000000000e+00,1.300000000000000000e+01,0.000000000000000000e+00,3.428344726562500000e-01,2.277832031250000000e-01,-9.077758789062500000e-01,8.081054687500000000e-02
-1.000000000000000000e+00,-1.000000000000000000e+00,-4.000000000000000000e+00,-5.000000000000000000e+00,5.000000000000000000e+00,-2.000000000000000000e+00,-1.200000000000000000e+01,-5.000000000000000000e+00,3.428344726562500000e-01,2.277832031250000000e-01,-9.077758789062500000e-01,8.081054687500000000e-02
3.000000000000000000e+00,2.000000000000000000e+00,-3.000000000000000000e+01,1.000000000000000000e+01,7.000000000000000000e+00,3.000000000000000000e+00,2.000000000000000000e+00,3.000000000000000000e+00,3.428344726562500000e-01,2.277832031250000000e-01,-9.077758789062500000e-01,8.081054687500000000e-02
-3.000000000000000000e+00,0.000000000000000000e+00,5.800000000000000000e+01,1.000000000000000000e+00,-1.100000000000000000e+01,-8.000000000000000000e+00,-1.600000000000000000e+01,-3.000000000000000000e+00,3.428344726562500000e-01,2.277832031250000000e-01,-9.077758789062500000e-01,8.081054687500000000e-02
-1.000000000000000000e+00,-4.000000000000000000e+00,-1.300000000000000000e+01,1.100000000000000000e+01,-1.000000000000000000e+00,0.000000000000000000e+00,2.100000000000000000e+01,-1.000000000000000000e+00,3.428344726562500000e-01,2.278442382812500000e-01,-9.077758789062500000e-01,8.081054687500000000e-02
-1.000000000000000000e+00,-1.000000000000000000e+00,-2.500000000000000000e+01,-3.100000000000000000e+01,-3.000000000000000000e+00,-2.000000000000000000e+00,-1.400000000000000000e+01,-1.000000000000000000e+00,3.428344726562500000e-01,2.278442382812500000e-01,-9.077758789062500000e-01,8.081054687500000000e-02
-1.000000000000000000e+00,-1.000000000000000000e+00,1.400000000000000000e+01,1.100000000000000000e+01,0.000000000000000000e+00,0.000000000000000000e+00,-2.900000000000000000e+01,-3.000000000000000000e+00,3.428344726562500000e-01,2.278442382812500000e-01,-9.077758789062500000e-01,8.081054687500000000e-02
3.000000000000000000e+00,1.000000000000000000e+00,1.400000000000000000e+01,7.000000000000000000e+00,2.000000000000000000e+00,-2.000000000000000000e+00,-1.000000000000000000e+00,2.000000000000000000e+00,3.428344726562500000e-01,2.278442382812500000e-01,-9.077758789062500000e-01,8.081054687500000000e-02
4.000000000000000000e+00,1.200000000000000000e+01,-2.000000000000000000e+00,3.000000000000000000e+01,9.000000000000000000e+00,8.000000000000000000e+00,7.000000000000000000e+00,3.000000000000000000e+00,3.428955078125000000e-01,2.275390625000000000e-01,-9.078369140625000000e-01,8.038330078125000000e-02
-6.000000000000000000e+00,-1.300000000000000000e+01,-1.500000000000000000e+01,-4.200000000000000000e+01,-1.800000000000000000e+01,-1.000000000000000000e+01,3.000000000000000000e+00,-5.000000000000000000e+00,3.428955078125000000e-01,2.275390625000000000e-01,-9.078369140625000000e-01,8.038330078125000000e-02
-4.000000000000000000e+00,-3.000000000000000000e+00,-4.000000000000000000e+00,8.000000000000000000e+00,3.000000000000000000e+00,1.000000000000000000e+00,-2.000000000000000000e+00,-4.000000000000000000e+00,3.428955078125000000e-01,2.275390625000000000e-01,-9.078369140625000000e-01,8.038330078125000000e-02
0.000000000000000000e+00,1.000000000000000000e+00,1.200000000000000000e+01,5.000000000000000000e+00,7.000000000000000000e+00,5.000000000000000000e+00,4.000000000000000000e+00,2.000000000000000000e+00,3.428955078125000000e-01,2.275390625000000000e-01,-9.078369140625000000e-01,8.038330078125000000e-02
-3.000000000000000000e+00,-3.000000000000000000e+00,-7.000000000000000000e+00,-9.000000000000000000e+00,-1.000000000000000000e+00,0.000000000000000000e+00,-1.100000000000000000e+01,-2.000000000000000000e+00,3.430786132812500000e-01,2.271118164062500000e-01,-9.078979492187500000e-01,8.026123046875000000e-02
2.000000000000000000e+00,3.000000000000000000e+00,-7.000000000000000000e+00,1.800000000000000000e+01,-1.000000000000000000e+00,-3.000000000000000000e+00,2.000000000000000000e+00,1.000000000000000000e+00,3.430786132812500000e-01,2.271118164062500000e-01,-9.078979492187500000e-01,8.026123046875000000e-02
1.000000000000000000e+00,-3.000000000000000000e+00,-2.600000000000000000e+01,-2.300000000000000000e+01,-3.000000000000000000e+00,-2.000000000000000000e+00,-4.000000000000000000e+00,2.000000000000000000e+00,3.430786132812500000e-01,2.271118164062500000e-01,-9.078979492187500000e-01,8.026123046875000000e-02
-7.000000000000000000e+00,-9.000000000000000000e+00,2.400000000000000000e+01,-4.000000000000000000e+00,-7.000000000000000000e+00,-1.000000000000000000e+00,1.900000000000000000e+01,-3.000000000000000000e+00,3.430786132812500000e-01,2.271118164062500000e-01,-9.078979492187500000e-01,8.026123046875000000e-02
1.000000000000000000e+00,1.000000000000000000e+00,2.200000000000000000e+01,1.200000000000000000e+01,3.000000000000000000e+00,-2.000000000000000000e+00,-7.000000000000000000e+00,-2.000000000000000000e+00,3.432617187500000000e-01,2.272338867187500000e-01,-9.077758789062500000e-01,8.044433593750000000e-02
-5.000000000000000000e+00,0.000000000000000000e+00,-3.000000000000000000e+00,5.000000000000000000e+00,0.000000000000000000e+00,2.000000000000000000e+00,-2.000000000000000000e+00,-3.000000000000000000e+00,3.432617187500000000e-01,2.272338867187500000e-01,-9.077758789062500000e-01,8.044433593750000000e-02
1.000000000000000000e+00,1.000000000000000000e+00,-1.500000000000000000e+01,-1.300000000000000000e+01,-1.000000000000000000e+00,1.000000000000000000e+00,1.100000000000000000e+01,1.000000000000000000e+00,3.432617187500000000e-01,2.272338867187500000e-01,-9.077758789062500000e-01,8.044433593750000000e-02
2.000000000000000000e+00,2.000000000000000000e+00,-1.000000000000000000e+00,1.400000000000000000e+01,1.000000000000000000e+00,3.000000000000000000e+00,4.000000000000000000e+00,0.000000000000000000e+00,3.432617187500000000e-01,2.272338867187500000e-01,-9.077758789062500000e-01,8.044433593750000000e-02
0.000000000000000000e+00,-7.000000000000000000e+00,1.100000000000000000e+01,1.100000000000000000e+01,3.000000000000000000e+00,-1.000000000000000000e+00,-1.300000000000000000e+01,-1.000000000000000000e+00,3.433837890625000000e-01,2.274169921875000000e-01,-9.077148437500000000e-01,8.068847656250000000e-02
3.000000000000000000e+00,8.000000000000000000e+00,8.200000000000000000e+01,5.000000000000000000e+00,-8.000000000000000000e+00,-6.000000000000000000e+00,-8.000000000000000000e+00,0.000000000000000000e+00,3.433837890625000000e-01,2.274169921875000000e-01,-9.077148437500000000e-01,8.068847656250000000e-02
-1.000000000000000000e+00,-7.000000000000000000e+00,-3.600000000000000000e+01,-2.100000000000000000e+01,3.000000000000000000e+00,4.000000000000000000e+00,1.300000000000000000e+01,-1.000000000000000000e+00,3.433837890625000000e-01,2.274169921875000000e-01,-9.077148437500000000e-01,8.068847656250000000e-02
3.000000000000000000e+00,1.000000000000000000e+00,-1.500000000000000000e+01,-1.500000000000000000e+01,6.000000000000000000e+00,6.000000000000000000e+00,2.000000000000000000e+00,2.000000000000000000e+00,3.433837890625000000e-01,2.274169921875000000e-01,-9.077148437500000000e-01,8.068847656250000000e-02
-2.000000000000000000e+00,2.000000000000000000e+00,-8.000000000000000000e+00,1.600000000000000000e+01,-1.000000000000000000e+00,-4.000000000000000000e+00,-7.000000000000000000e+00,-3.000000000000000000e+00,3.435668945312500000e-01,2.276000976562500000e-01,-9.075317382812500000e-01,8.074951171875000000e-02
-1.000000000000000000e+00,-4.000000000000000000e+00,-2.000000000000000000e+00,-1.000000000000000000e+00,-7.000000000000000000e+00,-1.000000000000000000e+00,-4.000000000000000000e+00,-1.000000000000000000e+00,3.435668945312500000e-01,2.276000976562500000e-01,-9.075317382812500000e-01,8.074951171875000000e-02
-6.000000000000000000e+00,-2.000000000000000000e+00,8.000000000000000000e+00,7.000000000000000000e+00,1.000000000000000000e+00,-1.000000000000000000e+00,7.000000000000000000e+00,-1.000000000000000000e+00,3.435668945312500000e-01,2.276000976562500000e-01,-9.075317382812500000e-01,8.074951171875000000e-02
1.000000000000000000e+00,0.000000000000000000e+00,4.100000000000000000e+01,1.100000000000000000e+01,5.000000000000000000e+00,-2.000000000000000000e+00,-2.000000000000000000e+00,-2.000000000000000000e+00,3.435668945312500000e-01,2.276000976562500000e-01,-9.075317382812500000e-01,8.074951171875000000e-02
0.000000000000000000e+00,-3.000000000000000000e+00,-6.000000000000000000e+00,-1.400000000000000000e+01,-1.000000000000000000e+00,-1.000000000000000000e+00,-2.000000000000000000e+00,0.000000000000000000e+00,3.438110351562500000e-01,2.274780273437500000e-01,-9.075317382812500000e-01,8.062744140625000000e-02
-2.000000000000000000e+00,-6.000000000000000000e+00,-6.200000000000000000e+01,-1.000000000000000000e+00,2.000000000000000000e+00,-2.000000000000000000e+00,1.000000000000000000e+00,-2.000000000000000000e+00,3.438110351562500000e-01,2.274780273437500000e-01,-9.075317382812500000e-01,8.062744140625000000e-02
-4.000000000000000000e+00,-6.000000000000000000e+00,5.000000000000000000e+00,1.800000000000000000e+01,-5.000000000000000000e+00,-4.000000000000000000e+00,-1.000000000000000000e+01,-1.000000000000000000e+00,3.438110351562500000e-01,2.274780273437500000e-01,-9.075317382812500000e-01,8.062744140625000000e-02
-2.000000000000000000e+00,-1.000000000000000000e+00,-2.800000000000000000e+01,-3.500000000000000000e+01,-5.000000000000000000e+00,2.000000000000000000e+00,1.900000000000000000e+01,-1.000000000000000000e+00,3.438110351562500000e-01,2.274780273437500000e-01,-9.075317382812500000e-01,8.062744140625000000e-02
0.000000000000000000e+00,3.000000000000000000e+00,4.100000000000000000e+01,3.000000000000000000e+01,-1.000000000000000000e+00,-6.000000000000000000e+00,-6.000000000000000000e+00,-2.000000000000000000e+00,3.437500000000000000e-01,2.274780273437500000e-01,-9.075317382812500000e-01,8.062744140625000000e-02
1.000000000000000000e+00,3.000000000000000000e+00,-3.600000000000000000e+01,-1.200000000000000000e+01,3.000000000000000000e+00,3.000000000000000000e+00,-3.000000000000000000e+00,1.000000000000000000e+00,3.437500000000000000e-01,2.274780273437500000e-01,-9.075317382812500000e-01,8.062744140625000000e-02
0.000000000000000000e+00,2.000000000000000000e+00,5.200000000000000000e+01,1.100000000000000000e+01,-1.000000000000000000e+00,-2.000000000000000000e+00,1.500000000000000000e+01,-2.000000000000000000e+00,3.437500000000000000e-01,2.274780273437500000e-01,-9.075317382812500000e-01,8.062744140625000000e-02
-1.000000000000000000e+00,-8.000000000000000000e+00,-5.400000000000000000e+01,1.500000000000000000e+01,-5.000000000000000000e+00,-5.000000000000000000e+00,-4.900000000000000000e+01,-3.000000000000000000e+00,3.437500000000000000e-01,2.274780273437500000e-01,-9.075317382812500000e-01,8.062744140625000000e-02
-5.000000000000000000e+00,-3.000000000000000000e+00,-4.000000000000000000e+00,-2.500000000000000000e+01,-5.000000000000000000e+00,-6.000000000000000000e+00,-1.000000000000000000e+00,1.000000000000000000e+00,3.438720703125000000e-01,2.272949218750000000e-01,-9.075317382812500000e-01,8.056640625000000000e-02
2.000000000000000000e+00,-4.000000000000000000e+00,-2.600000000000000000e+01,-1.200000000000000000e+01,2.000000000000000000e+00,2.000000000000000000e+00,-2.000000000000000000e+00,2.000000000000000000e+00,3.438720703125000000e-01,2.272949218750000000e-01,-9.075317382812500000e-01,8.056640625000000000e-02
-5.000000000000000000e+00,0.000000000000000000e+00,4.000000000000000000e+00,6.000000000000000000e+00,-2.000000000000000000e+00,-3.000000000000000000e+00,-4.000000000000000000e+00,-4.000000000000000000e+00,3.438720703125000000e-01,2.272949218750000000e-01,-9.075317382812500000e-01,8.056640625000000000e-02
4.000000000000000000e+00,2.000000000000000000e+00,1.600000000000000000e+01,3.300000000000000000e+01,2.000000000000000000e+00,1.000000000000000000e+00,1.000000000000000000e+00,1.000000000000000000e+00,3.438720703125000000e-01,2.272949218750000000e-01,-9.075317382812500000e-01,8.056640625000000000e-02
-4.000000000000000000e+00,-3.000000000000000000e+00,-2.900000000000000000e+01,-1.400000000000000000e+01,-6.000000000000000000e+00,-1.000000000000000000e+00,-6.000000000000000000e+00,-3.000000000000000000e+00,3.441772460937500000e-01,2.271728515625000000e-01,-9.074707031250000000e-01,8.062744140625000000e-02
1.000000000000000000e+00,-4.000000000000000000e+00,5.000000000000000000e+00,-1.400000000000000000e+01,-5.000000000000000000e+00,-2.000000000000000000e+00,5.000000000000000000e+00,-2.000000000000000000e+00,3.441772460937500000e-01,2.271728515625000000e-01,-9.074707031250000000e-01,8.062744140625000000e-02
1.000000000000000000e+00,-2.000000000000000000e+00,-3.700000000000000000e+01,-5.000000000000000000e+00,3.000000000000000000e+00,2.000000000000000000e+00,-9.000000000000000000e+00,0.000000000000000000e+00,3.441772460937500000e-01,2.271728515625000000e-01,-9.074707031250000000e-01,8.062744140625000000e-02
-1.000000000000000000e+00,3.000000000000000000e+00,1.400000000000000000e+01,2.000000000000000000e+01,0.000000000000000000e+00,-2.000000000000000000e+00,3.000000000000000000e+00,-1.000000000000000000e+00,3.441772460937500000e-01,2.271728515625000000e-01,-9.074707031250000000e-01,8.062744140625000000e-02
0.000000000000000000e+00,-3.000000000000000000e+00,-4.900000000000000000e+01,-2.700000000000000000e+01,-2.000000000000000000e+00,1.000000000000000000e+00,-1.000000000000000000e+00,-2.000000000000000000e+00,3.443603515625000000e-01,2.268066406250000000e-01,-9.074707031250000000e-01,8.068847656250000000e-02
-2.000000000000000000e+00,-1.000000000000000000e+00,6.000000000000000000e+00,2.700000000000000000e+01,6.000000000000000000e+00,4.000000000000000000e+00,1.100000000000000000e+01,2.000000000000000000e+00,3.443603515625000000e-01,2.268066406250000000e-01,-9.074707031250000000e-01,8.068847656250000000e-02
