8.000000000000000000e+00,7.000000000000000000e+00,4.000000000000000000e+00,0.000000000000000000e+00,2.000000000000000000e+00,3.000000000000000000e+00,-1.000000000000000000e+00,1.000000000000000000e+00,4.900512695312500000e-01,1.567993164062500000e-01,-8.533325195312500000e-01,8.447265625000000000e-02
-1.000000000000000000e+01,-1.000000000000000000e+00,-4.000000000000000000e+00,0.000000000000000000e+00,-4.000000000000000000e+00,-4.000000000000000000e+00,2.000000000000000000e+00,0.000000000000000000e+00,4.900512695312500000e-01,1.567993164062500000e-01,-8.533325195312500000e-01,8.447265625000000000e-02
7.000000000000000000e+00,0.000000000000000000e+00,0.000000000000000000e+00,5.000000000000000000e+00,-6.000000000000000000e+00,-4.000000000000000000e+00,-1.500000000000000000e+01,0.000000000000000000e+00,4.900512695312500000e-01,1.567993164062500000e-01,-8.533325195312500000e-01,8.447265625000000000e-02
-5.000000000000000000e+00,-5.000000000000000000e+00,-4.000000000000000000e+00,-8.000000000000000000e+00,2.000000000000000000e+00,-1.000000000000000000e+00,-8.000000000000000000e+00,-5.000000000000000000e+00,4.900512695312500000e-01,1.567993164062500000e-01,-8.533325195312500000e-01,8.447265625000000000e-02
-7.000000000000000000e+00,-1.000000000000000000e+00,1.000000000000000000e+00,3.000000000000000000e+00,-8.000000000000000000e+00,1.000000000000000000e+00,7.000000000000000000e+00,0.000000000000000000e+00,4.868164062500000000e-01,1.613159179687500000e-01,-8.546142578125000000e-01,8.148193359375000000e-02
3.000000000000000000e+00,-3.000000000000000000e+00,-5.000000000000000000e+00,-9.000000000000000000e+00,-2.000000000000000000e+00,1.000000000000000000e+00,3.000000000000000000e+00,-1.000000000000000000e+00,4.868164062500000000e-01,1.613159179687500000e-01,-8.546142578125000000e-01,8.148193359375000000e-02
1.000000000000000000e+00,4.000000000000000000e+00,-2.000000000000000000e+00,2.000000000000000000e+00,-1.000000000000000000e+00,-3.000000000000000000e+00,-2.000000000000000000e+00,2.000000000000000000e+00,4.868164062500000000e-01,1.613159179687500000e-01,-8.546142578125000000e-01,8.148193359375000000e-02
1.000000000000000000e+00,7.000000000000000000e+00,1.600000000000000000e+01,-7.000000000000000000e+00,-7.000000000000000000e+00,-6.000000000000000000e+00,-1.300000000000000000e+01,-1.000000000000000000e+00,4.868164062500000000e-01,1.613159179687500000e-01,-8.546142578125000000e-01,8.148193359375000000e-02
0.000000000000000000e+00,-1.000000000000000000e+01,-1.800000000000000000e+01,5.000000000000000000e+00,-6.000000000000000000e+00,-2.000000000000000000e+00,2.000000000000000000e+00,-1.000000000000000000e+00,4.852294921875000000e-01,1.641845703125000000e-01,-8.552246093750000000e-01,7.849121093750000000e-02
-4.000000000000000000e+00,-8.000000000000000000e+00,-1.300000000000000000e+01,-1.000000000000000000e+01,8.000000000000000000e+00,-1.000000000000000000e+00,0.000000000000000000e+00,-1.000000000000000000e+00,4.852294921875000000e-01,1.641845703125000000e-01,-8.552246093750000000e-01,7.849121093750000000e-02
-1.000000000000000000e+00,0.000000000000000000e+00,-6.000000000000000000e+00,3.000000000000000000e+00,-2.000000000000000000e+00,-1.000000000000000000e+00,-1.000000000000000000e+00,1.000000000000000000e+00,4.852294921875000000e-01,1.641845703125000000e-01,-8.552246093750000000e-01,7.849121093750000000e-02
5.000000000000000000e+00,-1.000000000000000000e+00,-1.000000000000000000e+00,4.000000000000000000e+00,-1.100000000000000000e+01,-4.000000000000000000e+00,2.000000000000000000e+00,1.000000000000000000e+00,4.852294921875000000e-01,1.641845703125000000e-01,-8.552246093750000000e-01,7.849121093750000000e-02
-7.000000000000000000e+00,-3.000000000000000000e+00,7.000000000000000000e+00,-1.000000000000000000e+00,-1.000000000000000000e+01,-1.000000000000000000e+00,3.000000000000000000e+00,-1.000000000000000000e+00,4.848632812500000000e-01,1.646728515625000000e-01,-8.556518554687500000e-01,7.543945312500000000e-02
-7.000000000000000000e+00,1.000000000000000000e+00,1.000000000000000000e+00,-1.300000000000000000e+01,2.000000000000000000e+00,0.000000000000000000e+00,-2.000000000000000000e+00,1.000000000000000000e+00,4.848632812500000000e-01,1.646728515625000000e-01,-8.556518554687500000e-01,7.543945312500000000e-02
-1.000000000000000000e+00,-2.000000000000000000e+00,5.000000000000000000e+00,0.000000000000000000e+00,1.000000000000000000e+00,1.000000000000000000e+00,-6.000000000000000000e+00,-3.000000000000000000e+00,4.848632812500000000e-01,1.646728515625000000e-01,-8.556518554687500000e-01,7.543945312500000000e-02
7.000000000000000000e+00,-1.000000000000000000e+00,-2.500000000000000000e+01,-2.500000000000000000e+01,-1.000000000000000000e+01,-1.000000000000000000e+00,5.000000000000000000e+00,1.000000000000000000e+00,4.848632812500000000e-01,1.646728515625000000e-01,-8.556518554687500000e-01,7.543945312500000000e-02
7.000000000000000000e+00,7.000000000000000000e+00,1.200000000000000000e+01,1.200000000000000000e+01,1.500000000000000000e+01,5.000000000000000000e+00,1.500000000000000000e+01,-3.000000000000000000e+00,4.851684570312500000e-01,1.642456054687500000e-01,-8.557128906250000000e-01,7.318115234375000000e-02
-9.000000000000000000e+00,-8.000000000000000000e+00,1.000000000000000000e+00,9.000000000000000000e+00,7.000000000000000000e+00,0.000000000000000000e+00,3.000000000000000000e+00,0.000000000000000000e+00,4.851684570312500000e-01,1.642456054687500000e-01,-8.557128906250000000e-01,7.318115234375000000e-02
0.000000000000000000e+00,0.000000000000000000e+00,2.000000000000000000e+00,-1.000000000000000000e+00,-4.000000000000000000e+00,-2.000000000000000000e+00,-5.000000000000000000e+00,-4.000000000000000000e+00,4.851684570312500000e-01,1.642456054687500000e-01,-8.557128906250000000e-01,7.318115234375000000e-02
-3.000000000000000000e+00,0.000000000000000000e+00,5.000000000000000000e+00,-5.000000000000000000e+00,-3.000000000000000000e+00,0.000000000000000000e+00,3.000000000000000000e+00,3.000000000000000000e+00,4.851684570312500000e-01,1.642456054687500000e-01,-8.557128906250000000e-01,7.318115234375000000e-02
7.000000000000000000e+00,1.300000000000000000e+01,8.000000000000000000e+00,-2.200000000000000000e+01,-2.200000000000000000e+01,-6.000000000000000000e+00,-2.000000000000000000e+01,-1.000000000000000000e+00,4.857788085937500000e-01,1.636352539062500000e-01,-8.555908203125000000e-01,7.220458984375000000e-02
-3.000000000000000000e+00,-1.000000000000000000e+01,-1.000000000000000000e+01,2.000000000000000000e+00,1.200000000000000000e+01,6.000000000000000000e+00,1.000000000000000000e+01,2.000000000000000000e+00,4.857788085937500000e-01,1.636352539062500000e-01,-8.555908203125000000e-01,7.220458984375000000e-02
-2.000000000000000000e+00,-8.000000000000000000e+00,-1.600000000000000000e+01,-5.000000000000000000e+00,1.000000000000000000e+01,1.000000000000000000e+00,4.000000000000000000e+00,0.000000000000000000e+00,4.857788085937500000e-01,1.636352539062500000e-01,-8.555908203125000000e-01,7.220458984375000000e-02
-3.000000000000000000e+00,-4.000000000000000000e+00,-1.200000000000000000e+01,6.000000000000000000e+00,-6.000000000000000000e+00,-2.000000000000000000e+00,-2.000000000000000000e+00,-5.000000000000000000e+00,4.857788085937500000e-01,1.636352539062500000e-01,-8.555908203125000000e-01,7.220458984375000000e-02
0.000000000000000000e+00,1.000000000000000000e+00,8.000000000000000000e+00,-1.000000000000000000e+01,3.000000000000000000e+00,-3.000000000000000000e+00,-2.000000000000000000e+00,-1.000000000000000000e+00,4.861450195312500000e-01,1.636352539062500000e-01,-8.554077148437500000e-01,7.232666015625000000e-02
5.000000000000000000e+00,7.000000000000000000e+00,2.000000000000000000e+00,8.000000000000000000e+00,-7.000000000000000000e+00,-2.000000000000000000e+00,-6.000000000000000000e+00,-2.000000000000000000e+00,4.861450195312500000e-01,1.636352539062500000e-01,-8.554077148437500000e-01,7.232666015625000000e-02
0.000000000000000000e+00,-2.000000000000000000e+00,3.000000000000000000e+00,-6.000000000000000000e+00,-7.000000000000000000e+00,-5.000000000000000000e+00,-2.700000000000000000e+01,-1.000000000000000000e+00,4.861450195312500000e-01,1.636352539062500000e-01,-8.554077148437500000e-01,7.232666015625000000e-02
-7.000000000000000000e+00,0.000000000000000000e+00,2.200000000000000000e+01,-2.000000000000000000e+00,-8.000000000000000000e+00,5.000000000000000000e+00,2.600000000000000000e+01,-1.000000000000000000e+00,4.861450195312500000e-01,1.636352539062500000e-01,-8.554077148437500000e-01,7.232666015625000000e-02
-5.000000000000000000e+00,0.000000000000000000e+00,-1.100000000000000000e+01,2.000000000000000000e+01,2.100000000000000000e+01,-3.000000000000000000e+00,-7.000000000000000000e+00,-2.000000000000000000e+00,4.863891601562500000e-01,1.643066406250000000e-01,-8.551025390625000000e-01,7.287597656250000000e-02
1.000000000000000000e+00,-3.000000000000000000e+00,0.000000000000000000e+00,-1.700000000000000000e+01,-6.000000000000000000e+00,-1.000000000000000000e+00,5.000000000000000000e+00,-1.000000000000000000e+00,4.863891601562500000e-01,1.643066406250000000e-01,-8.551025390625000000e-01,7.287597656250000000e-02
-1.000000000000000000e+00,-2.000000000000000000e+00,1.000000000000000000e+00,0.000000000000000000e+00,-6.000000000000000000e+00,-3.000000000000000000e+00,2.000000000000000000e+00,0.000000000000000000e+00,4.863891601562500000e-01,1.643066406250000000e-01,-8.551025390625000000e-01,7.287597656250000000e-02
2.000000000000000000e+00,1.000000000000000000e+00,-2.000000000000000000e+00,0.000000000000000000e+00,-6.000000000000000000e+00,-4.000000000000000000e+00,-1.000000000000000000e+01,-3.000000000000000000e+00,4.863891601562500000e-01,1.643066406250000000e-01,-8.551025390625000000e-01,7.287597656250000000e-02
-4.000000000000000000e+00,0.000000000000000000e+00,4.000000000000000000e+00,-7.000000000000000000e+00,-7.000000000000000000e+00,-2.000000000000000000e+00,-3.000000000000000000e+00,-1.000000000000000000e+00,4.864501953125000000e-01,1.648559570312500000e-01,-8.548583984375000000e-01,7.373046875000000000e-02
5.000000000000000000e+00,9.000000000000000000e+00,2.200000000000000000e+01,1.100000000000000000e+01,-1.100000000000000000e+01,0.000000000000000000e+00,0.000000000000000000e+00,-6.000000000000000000e+00,4.864501953125000000e-01,1.648559570312500000e-01,-8.548583984375000000e-01,7.373046875000000000e-02
5.000000000000000000e+00,-7.000000000000000000e+00,-1.700000000000000000e+01,-5.100000000000000000e+01,-7.000000000000000000e+00,-3.000000000000000000e+00,9.000000000000000000e+00,5.000000000000000000e+00,4.864501953125000000e-01,1.648559570312500000e-01,-8.548583984375000000e-01,7.373046875000000000e-02
-1.500000000000000000e+01,-4.000000000000000000e+00,-8.000000000000000000e+00,5.800000000000000000e+01,1.800000000000000000e+01,0.000000000000000000e+00,-7.000000000000000000e+00,-1.000000000000000000e+00,4.864501953125000000e-01,1.648559570312500000e-01,-8.548583984375000000e-01,7.373046875000000000e-02
-6.000000000000000000e+00,-8.000000000000000000e+00,-2.000000000000000000e+00,-1.500000000000000000e+01,-2.000000000000000000e+00,1.000000000000000000e+00,2.000000000000000000e+00,-2.000000000000000000e+00,4.868774414062500000e-01,1.647338867187500000e-01,-8.545532226562500000e-01,7.415771484375000000e-02
-3.000000000000000000e+00,-3.000000000000000000e+00,-1.100000000000000000e+01,-7.000000000000000000e+00,1.000000000000000000e+00,-4.000000000000000000e+00,-5.000000000000000000e+00,1.000000000000000000e+00,4.868774414062500000e-01,1.647338867187500000e-01,-8.545532226562500000e-01,7.415771484375000000e-02
4.000000000000000000e+00,4.000000000000000000e+00,1.000000000000000000e+01,4.000000000000000000e+00,-6.000000000000000000e+00,0.000000000000000000e+00,-3.000000000000000000e+00,-2.000000000000000000e+00,4.875488281250000000e-01,1.639404296875000000e-01,-8.543090820312500000e-01,7.440185546875000000e-02
5.000000000000000000e+00,5.000000000000000000e+00,7.000000000000000000e+00,-9.000000000000000000e+00,-5.000000000000000000e+00,0.000000000000000000e+00,5.000000000000000000e+00,0.000000000000000000e+00,4.875488281250000000e-01,1.639404296875000000e-01,-8.543090820312500000e-01,7.440185546875000000e-02
0.000000000000000000e+00,-3.000000000000000000e+00,5.000000000000000000e+00,5.000000000000000000e+00,-4.000000000000000000e+00,-3.000000000000000000e+00,-7.000000000000000000e+00,0.000000000000000000e+00,4.875488281250000000e-01,1.639404296875000000e-01,-8.543090820312500000e-01,7.440185546875000000e-02
5.000000000000000000e+00,9.000000000000000000e+00,-1.000000000000000000e+00,-1.000000000000000000e+00,-6.000000000000000000e+00,-1.000000000000000000e+00,-4.000000000000000000e+00,1.000000000000000000e+00,4.875488281250000000e-01,1.639404296875000000e-01,-8.543090820312500000e-01,7.440185546875000000e-02
-9.000000000000000000e+00,-2.000000000000000000e+00,3.000000000000000000e+01,3.300000000000000000e+01,4.000000000000000000e+00,0.000000000000000000e+00,6.000000000000000000e+00,-3.000000000000000000e+00,4.882202148437500000e-01,1.626586914062500000e-01,-8.541259765625000000e-01,7.519531250000000000e-02
-1.300000000000000000e+01,-1.200000000000000000e+01,-1.900000000000000000e+01,-1.400000000000000000e+01,5.000000000000000000e+00,-4.000000000000000000e+00,-2.000000000000000000e+01,-2.000000000000000000e+00,4.882202148437500000e-01,1.626586914062500000e-01,-8.541259765625000000e-01,7.519531250000000000e-02
4.000000000000000000e+00,-1.000000000000000000e+00,2.000000000000000000e+00,4.000000000000000000e+00,3.000000000000000000e+00,2.000000000000000000e+00,4.000000000000000000e+00,1.000000000000000000e+00,4.882202148437500000e-01,1.626586914062500000e-01,-8.541259765625000000e-01,7.519531250000000000e-02
1.000000000000000000e+00,0.000000000000000000e+00,-8.000000000000000000e+00,2.000000000000000000e+00,1.000000000000000000e+00,0.000000000000000000e+00,-3.000000000000000000e+00,-1.000000000000000000e+00,4.882202148437500000e-01,1.626586914062500000e-01,-8.541259765625000000e-01,7.519531250000000000e-02
-2.000000000000000000e+00,2.000000000000000000e+00,-7.000000000000000000e+00,0.000000000000000000e+00,-5.000000000000000000e+00,-1.000000000000000000e+00,3.000000000000000000e+00,0.000000000000000000e+00,4.888305664062500000e-01,1.619262695312500000e-01,-8.538818359375000000e-01,7.586669921875000000e-02
0.000000000000000000e+00,2.000000000000000000e+00,5.000000000000000000e+00,-6.000000000000000000e+00,1.000000000000000000e+00,-1.000000000000000000e+00,-2.000000000000000000e+00,-1.000000000000000000e+00,4.888305664062500000e-01,1.619262695312500000e-01,-8.538818359375000000e-01,7.586669921875000000e-02
-3.000000000000000000e+00,-5.000000000000000000e+00,-5.000000000000000000e+00,2.000000000000000000e+00,-3.000000000000000000e+00,-1.000000000000000000e+00,-4.000000000000000000e+00,-1.000000000000000000e+00,4.888305664062500000e-01,1.619262695312500000e-01,-8.538818359375000000e-01,7.586669921875000000e-02
2.000000000000000000e+00,0.000000000000000000e+00,7.000000000000000000e+00,1.000000000000000000e+00,-4.000000000000000000e+00,-3.000000000000000000e+00,-9.000000000000000000e+00,-1.000000000000000000e+00,4.888305664062500000e-01,1.619262695312500000e-01,-8.538818359375000000e-01,7.586669921875000000e-02
-6.000000000000000000e+00,5.000000000000000000e+00,3.000000000000000000e+00,-1.600000000000000000e+01,-5.000000000000000000e+00,3.000000000000000000e+00,1.900000000000000000e+01,-5.000000000000000000e+00,4.893188476562500000e-01,1.611328125000000000e-01,-8.536376953125000000e-01,7.653808593750000000e-02
4.000000000000000000e+00,-1.000000000000000000e+01,-1.400000000000000000e+01,2.200000000000000000e+01,-1.400000000000000000e+01,-1.000000000000000000e+00,1.200000000000000000e+01,-3.000000000000000000e+00,4.893188476562500000e-01,1.611328125000000000e-01,-8.536376953125000000e-01,7.653808593750000000e-02
-8.000000000000000000e+00,-1.000000000000000000e+00,-1.400000000000000000e+01,-2.500000000000000000e+01,1.600000000000000000e+01,2.000000000000000000e+00,0.000000000000000000e+00,1.000000000000000000e+00,4.893188476562500000e-01,1.611328125000000000e-01,-8.536376953125000000e-01,7.653808593750000000e-02
0.000000000000000000e+00,-5.000000000000000000e+00,1.000000000000000000e+00,1.300000000000000000e+01,0.000000000000000000e+00,0.000000000000000000e+00,7.000000000000000000e+00,0.000000000000000000e+00,4.893188476562500000e-01,1.611328125000000000e-01,-8.536376953125000000e-01,7.653808593750000000e-02
0.000000000000000000e+00,-1.000000000000000000e+00,-6.000000000000000000e+00,-1.000000000000000000e+01,8.000000000000000000e+00,-1.000000000000000000e+00,-1.400000000000000000e+01,-2.000000000000000000e+00,4.895019531250000000e-01,1.612548828125000000e-01,-8.535156250000000000e-01,7.684326171875000000e-02
4.000000000000000000e+00,5.000000000000000000e+00,0.000000000000000000e+00,-1.100000000000000000e+01,-9.000000000000000000e+00,-2.000000000000000000e+00,-6.000000000000000000e+00,-5.000000000000000000e+00,4.895019531250000000e-01,1.612548828125000000e-01,-8.535156250000000000e-01,7.684326171875000000e-02
-1.000000000000000000e+00,3.000000000000000000e+00,1.000000000000000000e+00,8.000000000000000000e+00,-1.000000000000000000e+01,-3.000000000000000000e+00,6.000000000000000000e+00,0.000000000000000000e+00,4.895019531250000000e-01,1.612548828125000000e-01,-8.535156250000000000e-01,7.684326171875000000e-02
-5.000000000000000000e+00,-4.000000000000000000e+00,-4.000000000000000000e+00,3.000000000000000000e+00,4.000000000000000000e+00,-3.000000000000000000e+00,-8.000000000000000000e+00,-1.000000000000000000e+00,4.895019531250000000e-01,1.612548828125000000e-01,-8.535156250000000000e-01,7.684326171875000000e-02
-1.000000000000000000e+00,-1.000000000000000000e+00,-6.000000000000000000e+00,-1.000000000000000000e+01,-9.000000000000000000e+00,-1.000000000000000000e+00,-6.000000000000000000e+00,0.000000000000000000e+00,4.895629882812500000e-01,1.617431640625000000e-01,-8.533325195312500000e-01,7.757568359375000000e-02
4.000000000000000000e+00,9.000000000000000000e+00,7.000000000000000000e+00,-3.000000000000000000e+00,-5.000000000000000000e+00,-1.000000000000000000e+00,-2.000000000000000000e+00,-1.000000000000000000e+00,4.895629882812500000e-01,1.617431640625000000e-01,-8.533325195312500000e-01,7.757568359375000000e-02
6.000000000000000000e+00,5.000000000000000000e+00,3.200000000000000000e+01,4.800000000000000000e+01,9.000000000000000000e+00,0.000000000000000000e+00,3.000000000000000000e+00,1.000000000000000000e+00,4.895629882812500000e-01,1.617431640625000000e-01,-8.533325195312500000e-01,7.757568359375000000e-02
-7.000000000000000000e+00,-2.400000000000000000e+01,-5.000000000000000000e+01,-3.100000000000000000e+01,2.000000000000000000e+00,0.000000000000000000e+00,-2.000000000000000000e+00,-1.000000000000000000e+00,4.895629882812500000e-01,1.617431640625000000e-01,-8.533325195312500000e-01,7.757568359375000000e-02
1.000000000000000000e+00,0.000000000000000000e+00,6.000000000000000000e+00,1.600000000000000000e+01,8.000000000000000000e+00,2.000000000000000000e+00,-1.000000000000000000e+00,0.000000000000000000e+00,4.895629882812500000e-01,1.619873046875000000e-01,-8.532714843750000000e-01,7.745361328125000000e-02
1.000000000000000000e+00,2.000000000000000000e+00,-2.000000000000000000e+00,-2.100000000000000000e+01,-6.000000000000000000e+00,0.000000000000000000e+00,6.000000000000000000e+00,1.000000000000000000e+00,4.895629882812500000e-01,1.619873046875000000e-01,-8.532714843750000000e-01,7.745361328125000000e-02
0.000000000000000000e+00,2.000000000000000000e+00,3.000000000000000000e+00,-5.000000000000000000e+00,-9.000000000000000000e+00,-2.000000000000000000e+00,-8.000000000000000000e+00,-1.000000000000000000e+00,4.895629882812500000e-01,1.619873046875000000e-01,-8.532714843750000000e-01,7.745361328125000000e-02
0.000000000000000000e+00,5.000000000000000000e+00,1.200000000000000000e+01,5.000000000000000000e+00,-3.000000000000000000e+00,-1.000000000000000000e+00,1.000000000000000000e+00,-1.000000000000000000e+00,4.895629882812500000e-01,1.619873046875000000e-01,-8.532714843750000000e-01,7.745361328125000000e-02
0.000000000000000000e+00,-2.000000000000000000e+00,-1.400000000000000000e+01,0.000000000000000000e+00,-3.000000000000000000e+00,-3.000000000000000000e+00,2.000000000000000000e+00,1.000000000000000000e+00,4.891357421875000000e-01,1.626586914062500000e-01,-8.533935546875000000e-01,7.720947265625000000e-02
5.000000000000000000e+00,3.000000000000000000e+00,6.000000000000000000e+00,2.000000000000000000e+00,4.000000000000000000e+00,1.000000000000000000e+00,7.000000000000000000e+00,-4.000000000000000000e+00,4.891357421875000000e-01,1.626586914062500000e-01,-8.533935546875000000e-01,7.720947265625000000e-02
-8.000000000000000000e+00,-1.200000000000000000e+01,-1.200000000000000000e+01,-2.700000000000000000e+01,-1.500000000000000000e+01,-4.000000000000000000e+00,-7.000000000000000000e+00,-7.000000000000000000e+00,4.891357421875000000e-01,1.626586914062500000e-01,-8.533935546875000000e-01,7.720947265625000000e-02
0.000000000000000000e+00,-1.000000000000000000e+00,7.000000000000000000e+00,-1.500000000000000000e+01,-1.800000000000000000e+01,-7.000000000000000000e+00,1.000000000000000000e+00,0.000000000000000000e+00,4.891357421875000000e-01,1.626586914062500000e-01,-8.533935546875000000e-01,7.720947265625000000e-02
-3.000000000000000000e+00,-6.000000000000000000e+00,-6.000000000000000000e+00,3.000000000000000000e+01,2.200000000000000000e+01,2.000000000000000000e+00,1.000000000000000000e+00,2.000000000000000000e+00,4.886474609375000000e-01,1.634521484375000000e-01,-8.536376953125000000e-01,7.653808593750000000e-02
1.000000000000000000e+00,3.000000000000000000e+00,9.000000000000000000e+00,0.000000000000000000e+00,1.200000000000000000e+01,3.000000000000000000e+00,-3.000000000000000000e+00,3.000000000000000000e+00,4.886474609375000000e-01,1.634521484375000000e-01,-8.536376953125000000e-01,7.653808593750000000e-02
0.000000000000000000e+00,1.000000000000000000e+00,-6.000000000000000000e+00,-3.000000000000000000e+00,3.000000000000000000e+00,2.000000000000000000e+00,-5.000000000000000000e+00,-2.000000000000000000e+00,4.886474609375000000e-01,1.634521484375000000e-01,-8.536376953125000000e-01,7.653808593750000000e-02
-7.000000000000000000e+00,1.000000000000000000e+00,2.000000000000000000e+00,-5.000000000000000000e+00,-7.000000000000000000e+00,-1.000000000000000000e+00,-5.000000000000000000e+00,-2.000000000000000000e+00,4.886474609375000000e-01,1.634521484375000000e-01,-8.536376953125000000e-01,7.653808593750000000e-02
8.000000000000000000e+00,2.000000000000000000e+00,4.000000000000000000e+00,-1.200000000000000000e+01,-9.000000000000000000e+00,-4.000000000000000000e+00,-4.000000000000000000e+00,-2.000000000000000000e+00,4.875488281250000000e-01,1.650390625000000000e-01,-8.540039062500000000e-01,7.550048828125000000e-02
-4.000000000000000000e+00,-2.000000000000000000e+00,-4.000000000000000000e+00,7.000000000000000000e+00,3.000000000000000000e+00,-2.000000000000000000e+00,-9.000000000000000000e+00,-3.000000000000000000e+00,4.875488281250000000e-01,1.650390625000000000e-01,-8.540039062500000000e-01,7.550048828125000000e-02
0.000000000000000000e+00,-9.000000000000000000e+00,-7.000000000000000000e+00,-3.000000000000000000e+00,-1.800000000000000000e+01,-6.000000000000000000e+00,5.000000000000000000e+00,0.000000000000000000e+00,4.875488281250000000e-01,1.650390625000000000e-01,-8.540039062500000000e-01,7.550048828125000000e-02
2.000000000000000000e+00,-1.000000000000000000e+00,-1.400000000000000000e+01,-3.000000000000000000e+00,1.400000000000000000e+01,4.000000000000000000e+00,-5.000000000000000000e+00,-1.000000000000000000e+00,4.875488281250000000e-01,1.650390625000000000e-01,-8.540039062500000000e-01,7.550048828125000000e-02
-2.000000000000000000e+00,1.000000000000000000e+00,6.000000000000000000e+00,2.000000000000000000e+00,-2.000000000000000000e+00,-1.000000000000000000e+00,0.000000000000000000e+00,-1.000000000000000000e+00,4.864501953125000000e-01,1.673583984375000000e-01,-8.543090820312500000e-01,7.476806640625000000e-02
-1.000000000000000000e+00,0.000000000000000000e+00,-6.000000000000000000e+00,2.000000000000000000e+00,1.200000000000000000e+01,2.000000000000000000e+00,-2.000000000000000000e+00,0.000000000000000000e+00,4.864501953125000000e-01,1.673583984375000000e-01,-8.543090820312500000e-01,7.476806640625000000e-02
-1.000000000000000000e+00,5.000000000000000000e+00,5.000000000000000000e+00,-4.000000000000000000e+00,-3.000000000000000000e+00,0.000000000000000000e+00,-6.000000000000000000e+00,0.000000000000000000e+00,4.864501953125000000e-01,1.673583984375000000e-01,-8.543090820312500000e-01,7.476806640625000000e-02
2.000000000000000000e+00,-3.000000000000000000e+00,2.000000000000000000e+01,6.000000000000000000e+00,-2.000000000000000000e+00,-3.000000000000000000e+00,6.000000000000000000e+00,-1.000000000000000000e+00,4.864501953125000000e-01,1.673583984375000000e-01,-8.543090820312500000e-01,7.476806640625000000e-02
-1.200000000000000000e+01,3.000000000000000000e+00,-1.900000000000000000e+01,-9.000000000000000000e+00,-4.000000000000000000e+00,-2.000000000000000000e+00,-3.000000000000000000e+00,-1.000000000000000000e+00,4.853515625000000000e-01,1.694335937500000000e-01,-8.545532226562500000e-01,7.379150390625000000e-02
-7.000000000000000000e+00,-1.900000000000000000e+01,-1.400000000000000000e+01,-1.700000000000000000e+01,-1.200000000000000000e+01,-5.000000000000000000e+00,1.000000000000000000e+00,-2.000000000000000000e+00,4.853515625000000000e-01,1.694335937500000000e-01,-8.545532226562500000e-01,7.379150390625000000e-02
1.000000000000000000e+00,0.000000000000000000e+00,1.000000000000000000e+00,1.000000000000000000e+01,5.000000000000000000e+00,-1.000000000000000000e+00,-3.000000000000000000e+00,0.000000000000000000e+00,4.853515625000000000e-01,1.694335937500000000e-01,-8.545532226562500000e-01,7.379150390625000000e-02
2.000000000000000000e+00,5.000000000000000000e+00,9.000000000000000000e+00,9.000000000000000000e+00,6.000000000000000000e+00,2.000000000000000000e+00,1.000000000000000000e+00,1.000000000000000000e+00,4.853515625000000000e-01,1.694335937500000000e-01,-8.545532226562500000e-01,7.379150390625000000e-02
3.000000000000000000e+00,1.000000000000000000e+00,2.000000000000000000e+00,1.000000000000000000e+00,-2.000000000000000000e+00,0.000000000000000000e+00,0.000000000000000000e+00,1.000000000000000000e+00,4.844360351562500000e-01,1.710205078125000000e-01,-8.548583984375000000e-01,7.250976562500000000e-02
1.000000000000000000e+00,7.000000000000000000e+00,9.000000000000000000e+00,-2.800000000000000000e+01,-1.500000000000000000e+01,2.000000000000000000e+00,1.300000000000000000e+01,-2.000000000000000000e+00,4.844360351562500000e-01,1.710205078125000000e-01,-8.548583984375000000e-01,7.250976562500000000e-02
1.000000000000000000e+00,7.000000000000000000e+00,4.000000000000000000e+00,3.200000000000000000e+01,-4.000000000000000000e+00,-3.000000000000000000e+00,-1.000000000000000000e+00,1.000000000000000000e+00,4.844360351562500000e-01,1.710205078125000000e-01,-8.548583984375000000e-01,7.250976562500000000e-02
0.000000000000000000e+00,-1.000000000000000000e+01,-2.500000000000000000e+01,-7.000000000000000000e+00,1.900000000000000000e+01,2.000000000000000000e+00,-7.000000000000000000e+00,-1.000000000000000000e+00,4.844360351562500000e-01,1.710205078125000000e-01,-8.548583984375000000e-01,7.250976562500000000e-02
-7.000000000000000000e+00,-8.000000000000000000e+00,1.800000000000000000e+01,-9.000000000000000000e+00,5.000000000000000000e+00,2.000000000000000000e+00,1.000000000000000000e+01,-1.000000000000000000e+00,4.835205078125000000e-01,1.723022460937500000e-01,-8.552246093750000000e-01,7.171630859375000000e-02
3.000000000000000000e+00,-7.000000000000000000e+00,-2.000000000000000000e+00,-1.000000000000000000e+00,5.000000000000000000e+00,0.000000000000000000e+00,-6.000000000000000000e+00,2.000000000000000000e+00,4.835205078125000000e-01,1.723022460937500000e-01,-8.552246093750000000e-01,7.171630859375000000e-02
0.000000000000000000e+00,-3.000000000000000000e+00,-1.000000000000000000e+00,-1.300000000000000000e+01,-4.000000000000000000e+00,-1.000000000000000000e+00,0.000000000000000000e+00,-2.000000000000000000e+00,4.835205078125000000e-01,1.723022460937500000e-01,-8.552246093750000000e-01,7.171630859375000000e-02
1.000000000000000000e+00,7.000000000000000000e+00,6.000000000000000000e+00,4.000000000000000000e+00,-9.000000000000000000e+00,0.000000000000000000e+00,5.000000000000000000e+00,-1.000000000000000000e+00,4.835205078125000000e-01,1.723022460937500000e-01,-8.552246093750000000e-01,7.171630859375000000e-02
-1.000000000000000000e+00,2.000000000000000000e+00,-3.000000000000000000e+00,3.000000000000000000e+00,-2.000000000000000000e+00,-2.000000000000000000e+00,-9.000000000000000000e+00,-3.000000000000000000e+00,4.824829101562500000e-01,1.738891601562500000e-01,-8.554687500000000000e-01,7.165527343750000000e-02
-2.000000000000000000e+00,0.000000000000000000e+00,-3.000000000000000000e+00,0.000000000000000000e+00,1.000000000000000000e+00,-2.000000000000000000e+00,-5.000000000000000000e+00,-1.000000000000000000e+00,4.824829101562500000e-01,1.738891601562500000e-01,-8.554687500000000000e-01,7.165527343750000000e-02
1.000000000000000000e+00,-1.000000000000000000e+00,0.000000000000000000e+00,-2.000000000000000000e+00,-3.000000000000000000e+00,-1.000000000000000000e+00,2.000000000000000000e+00,-1.000000000000000000e+00,4.824829101562500000e-01,1.738891601562500000e-01,-8.554687500000000000e-01,7.165527343750000000e-02
-4.000000000000000000e+00,5.000000000000000000e+00,6.000000000000000000e+00,-1.000000000000000000e+00,-3.000000000000000000e+00,-3.000000000000000000e+00,-8.000000000000000000e+00,-1.000000000000000000e+00,4.824829101562500000e-01,1.738891601562500000e-01,-8.554687500000000000e-01,7.165527343750000000e-02
2.000000000000000000e+00,-8.000000000000000000e+00,-9.000000000000000000e+00,0.000000000000000000e+00,2.000000000000000000e+00,-2.000000000000000000e+00,-2.000000000000000000e+00,-1.000000000000000000e+00,4.816284179687500000e-01,1.750488281250000000e-01,-8.556518554687500000e-01,7.208251953125000000e-02
-2.000000000000000000e+00,2.000000000000000000e+00,-2.000000000000000000e+00,6.000000000000000000e+00,-1.000000000000000000e+00,2.000000000000000000e+00,9.000000000000000000e+00,0.000000000000000000e+00,4.816284179687500000e-01,1.750488281250000000e-01,-8.556518554687500000e-01,7.208251953125000000e-02
-3.000000000000000000e+00,-7.000000000000000000e+00,-1.300000000000000000e+01,-6.000000000000000000e+00,3.000000000000000000e+00,-1.000000000000000000e+00,0.000000000000000000e+00,-4.000000000000000000e+00,4.816284179687500000e-01,1.750488281250000000e-01,-8.556518554687500000e-01,7.208251953125000000e-02
-5.000000000000000000e+00,1.000000000000000000e+00,2.000000000000000000e+00,1.000000000000000000e+00,-1.000000000000000000e+00,1.000000000000000000e+00,3.000000000000000000e+00,-3.000000000000000000e+00,4.816284179687500000e-01,1.750488281250000000e-01,-8.556518554687500000e-01,7.208251953125000000e-02
3.000000000000000000e+00,0.000000000000000000e+00,0.000000000000000000e+00,0.000000000000000000e+00,-5.000000000000000000e+00,-4.000000000000000000e+00,-4.000000000000000000e+00,-2.000000000000000000e+00,4.813842773437500000e-01,1.755371093750000000e-01,-8.557128906250000000e-01,7.244873046875000000e-02
2.000000000000000000e+00,1.000000000000000000e+00,2.000000000000000000e+00,-1.000000000000000000e+00,-1.000000000000000000e+00,-1.000000000000000000e+00,-3.000000000000000000e+00,1.000000000000000000e+00,4.813842773437500000e-01,1.755371093750000000e-01,-8.557128906250000000e-01,7.244873046875000000e-02
0.000000000000000000e+00,1.000000000000000000e+00,-1.000000000000000000e+00,-1.900000000000000000e+01,-4.000000000000000000e+00,-4.000000000000000000e+00,-8.000000000000000000e+00,0.000000000000000000e+00,4.813842773437500000e-01,1.755371093750000000e-01,-8.557128906250000000e-01,7.244873046875000000e-02
4.000000000000000000e+00,1.000000000000000000e+01,1.900000000000000000e+01,1.900000000000000000e+01,2.000000000000000000e+00,3.000000000000000000e+00,2.100000000000000000e+01,0.000000000000000000e+00,4.813842773437500000e-01,1.755371093750000000e-01,-8.557128906250000000e-01,7.244873046875000000e-02
-5.000000000000000000e+00,-1.300000000000000000e+01,-1.800000000000000000e+01,-2.000000000000000000e+01,-2.000000000000000000e+00,-3.000000000000000000e+00,-4.000000000000000000e+00,-6.000000000000000000e+00,4.815673828125000000e-01,1.752319335937500000e-01,-8.555908203125000000e-01,7.287597656250000000e-02
-7.000000000000000000e+00,-7.000000000000000000e+00,6.000000000000000000e+00,3.000000000000000000e+01,3.000000000000000000e+00,-1.000000000000000000e+00,-5.000000000000000000e+00,-4.000000000000000000e+00,4.815673828125000000e-01,1.752319335937500000e-01,-8.555908203125000000e-01,7.287597656250000000e-02
-6.000000000000000000e+00,-1.200000000000000000e+01,-6.000000000000000000e+00,-2.900000000000000000e+01,1.000000000000000000e+01,5.000000000000000000e+00,6.000000000000000000e+00,1.000000000000000000e+00,4.815673828125000000e-01,1.752319335937500000e-01,-8.555908203125000000e-01,7.287597656250000000e-02
2.000000000000000000e+00,3.000000000000000000e+00,2.000000000000000000e+00,-3.000000000000000000e+00,-8.000000000000000000e+00,-5.000000000000000000e+00,-9.000000000000000000e+00,-1.000000000000000000e+00,4.815673828125000000e-01,1.752319335937500000e-01,-8.555908203125000000e-01,7.287597656250000000e-02
2.000000000000000000e+00,6.000000000000000000e+00,1.000000000000000000e+00,1.000000000000000000e+00,-9.000000000000000000e+00,-2.000000000000000000e+00,-1.000000000000000000e+00,1.000000000000000000e+00,4.818725585937500000e-01,1.749877929687500000e-01,-8.554687500000000000e-01,7.336425781250000000e-02
5.000000000000000000e+00,7.000000000000000000e+00,-2.000000000000000000e+00,-6.000000000000000000e+00,-3.000000000000000000e+00,-1.000000000000000000e+00,-1.000000000000000000e+00,-2.000000000000000000e+00,4.818725585937500000e-01,1.749877929687500000e-01,-8.554687500000000000e-01,7.336425781250000000e-02
5.000000000000000000e+00,4.000000000000000000e+00,-2.000000000000000000e+00,5.000000000000000000e+00,-2.000000000000000000e+00,-3.000000000000000000e+00,-3.000000000000000000e+00,-3.000000000000000000e+00,4.818725585937500000e-01,1.749877929687500000e-01,-8.554687500000000000e-01,7.336425781250000000e-02
0.000000000000000000e+00,-7.000000000000000000e+00,-3.000000000000000000e+00,5.000000000000000000e+00,3.000000000000000000e+00,-1.000000000000000000e+00,0.000000000000000000e+00,0.000000000000000000e+00,4.818725585937500000e-01,1.749877929687500000e-01,-8.554687500000000000e-01,7.336425781250000000e-02
-8.000000000000000000e+00,1.000000000000000000e+00,3.000000000000000000e+00,1.000000000000000000e+01,3.000000000000000000e+00,-1.000000000000000000e+00,2.000000000000000000e+00,-3.000000000000000000e+00,4.822387695312500000e-01,1.743164062500000000e-01,-8.553466796875000000e-01,7.373046875000000000e-02
-5.000000000000000000e+00,-7.000000000000000000e+00,-7.000000000000000000e+00,-8.000000000000000000e+00,4.000000000000000000e+00,-1.000000000000000000e+00,-1.000000000000000000e+01,-1.000000000000000000e+00,4.822387695312500000e-01,1.743164062500000000e-01,-8.553466796875000000e-01,7.373046875000000000e-02
2.000000000000000000e+00,1.000000000000000000e+00,1.000000000000000000e+00,9.000000000000000000e+00,0.000000000000000000e+00,-2.000000000000000000e+00,1.000000000000000000e+00,0.000000000000000000e+00,4.822387695312500000e-01,1.743164062500000000e-01,-8.553466796875000000e-01,7.373046875000000000e-02
0.000000000000000000e+00,-1.000000000000000000e+00,-1.000000000000000000e+00,-1.100000000000000000e+01,-4.000000000000000000e+00,0.000000000000000000e+00,-5.000000000000000000e+00,3.000000000000000000e+00,4.822387695312500000e-01,1.743164062500000000e-01,-8.553466796875000000e-01,7.373046875000000000e-02
1.000000000000000000e+00,4.000000000000000000e+00,3.000000000000000000e+00,-6.000000000000000000e+00,-3.000000000000000000e+00,1.000000000000000000e+00,-1.000000000000000000e+00,-1.000000000000000000e+00,4.830322265625000000e-01,1.734619140625000000e-01,-8.550415039062500000e-01,7.391357421875000000e-02
2.000000000000000000e+00,2.000000000000000000e+00,-2.000000000000000000e+00,3.000000000000000000e+00,-5.000000000000000000e+00,-4.000000000000000000e+00,-5.000000000000000000e+00,-1.000000000000000000e+00,4.830322265625000000e-01,1.734619140625000000e-01,-8.550415039062500000e-01,7.391357421875000000e-02
-8.000000000000000000e+00,1.000000000000000000e+00,3.000000000000000000e+00,-7.000000000000000000e+00,-3.000000000000000000e+00,-3.000000000000000000e+00,-2.000000000000000000e+00,0.000000000000000000e+00,4.830322265625000000e-01,1.734619140625000000e-01,-8.550415039062500000e-01,7.391357421875000000e-02
1.000000000000000000e+00,-7.000000000000000000e+00,-2.400000000000000000e+01,1.800000000000000000e+01,9.000000000000000000e+00,-1.000000000000000000e+00,-1.700000000000000000e+01,-2.000000000000000000e+00,4.830322265625000000e-01,1.734619140625000000e-01,-8.550415039062500000e-01,7.391357421875000000e-02
6.000000000000000000e+00,-4.000000000000000000e+00,8.000000000000000000e+00,-1.000000000000000000e+00,2.000000000000000000e+00,4.000000000000000000e+00,4.000000000000000000e+00,1.000000000000000000e+00,4.834594726562500000e-01,1.732788085937500000e-01,-8.548583984375000000e-01,7.385253906250000000e-02
-1.600000000000000000e+01,1.000000000000000000e+00,-1.000000000000000000e+00,-1.700000000000000000e+01,-1.000000000000000000e+01,-2.000000000000000000e+00,1.000000000000000000e+00,-1.000000000000000000e+00,4.834594726562500000e-01,1.732788085937500000e-01,-8.548583984375000000e-01,7.385253906250000000e-02
1.000000000000000000e+00,2.000000000000000000e+00,-1.000000000000000000e+00,9.000000000000000000e+00,2.000000000000000000e+00,-1.000000000000000000e+00,-8.000000000000000000e+00,-5.000000000000000000e+00,4.834594726562500000e-01,1.732788085937500000e-01,-8.548583984375000000e-01,7.385253906250000000e-02
-5.000000000000000000e+00,-2.000000000000000000e+00,1.500000000000000000e+01,-5.000000000000000000e+00,-7.000000000000000000e+00,-3.000000000000000000e+00,-2.000000000000000000e+00,3.000000000000000000e+00,4.834594726562500000e-01,1.732788085937500000e-01,-8.548583984375000000e-01,7.385253906250000000e-02
2.000000000000000000e+00,-1.000000000000000000e+00,-1.000000000000000000e+01,9.000000000000000000e+00,-2.000000000000000000e+00,-3.000000000000000000e+00,-7.000000000000000000e+00,2.000000000000000000e+00,4.835205078125000000e-01,1.741333007812500000e-01,-8.546752929687500000e-01,7.391357421875000000e-02
1.100000000000000000e+01,-2.000000000000000000e+00,-2.000000000000000000e+00,-1.000000000000000000e+01,-2.000000000000000000e+00,0.000000000000000000e+00,4.000000000000000000e+00,-1.000000000000000000e+00,4.835205078125000000e-01,1.741333007812500000e-01,-8.546752929687500000e-01,7.391357421875000000e-02
-6.000000000000000000e+00,-3.000000000000000000e+00,-7.000000000000000000e+00,-7.000000000000000000e+00,4.000000000000000000e+00,1.000000000000000000e+00,-1.000000000000000000e+00,1.000000000000000000e+00,4.835205078125000000e-01,1.741333007812500000e-01,-8.546752929687500000e-01,7.391357421875000000e-02
2.000000000000000000e+00,2.000000000000000000e+00,1.200000000000000000e+01,-9.000000000000000000e+00,-9.000000000000000000e+00,-4.000000000000000000e+00,1.000000000000000000e+00,-3.000000000000000000e+00,4.835205078125000000e-01,1.741333007812500000e-01,-8.546752929687500000e-01,7.391357421875000000e-02
4.000000000000000000e+00,1.000000000000000000e+00,-1.300000000000000000e+01,7.000000000000000000e+00,-1.000000000000000000e+00,-3.000000000000000000e+00,-2.000000000000000000e+00,1.000000000000000000e+00,4.834594726562500000e-01,1.749877929687500000e-01,-8.545532226562500000e-01,7.366943359375000000e-02
-1.500000000000000000e+01,-4.000000000000000000e+00,4.000000000000000000e+00,3.000000000000000000e+00,7.000000000000000000e+00,2.000000000000000000e+00,-1.000000000000000000e+00,-2.000000000000000000e+00,4.834594726562500000e-01,1.749877929687500000e-01,-8.545532226562500000e-01,7.366943359375000000e-02
-5.000000000000000000e+00,-1.000000000000000000e+00,-8.000000000000000000e+00,-1.000000000000000000e+00,-1.600000000000000000e+01,-4.000000000000000000e+00,-3.000000000000000000e+00,-3.000000000000000000e+00,4.834594726562500000e-01,1.749877929687500000e-01,-8.545532226562500000e-01,7.366943359375000000e-02
-4.000000000000000000e+00,-2.000000000000000000e+00,-5.000000000000000000e+00,7.000000000000000000e+00,1.900000000000000000e+01,3.000000000000000000e+00,7.000000000000000000e+00,-4.000000000000000000e+00,4.834594726562500000e-01,1.749877929687500000e-01,-8.545532226562500000e-01,7.366943359375000000e-02
2.000000000000000000e+00,0.000000000000000000e+00,-3.000000000000000000e+00,-9.000000000000000000e+00,7.000000000000000000e+00,-1.000000000000000000e+00,-1.000000000000000000e+00,-1.000000000000000000e+00,4.833374023437500000e-01,1.755371093750000000e-01,-8.545532226562500000e-01,7.324218750000000000e-02
-2.000000000000000000e+00,-1.000000000000000000e+00,8.000000000000000000e+00,1.000000000000000000e+01,7.000000000000000000e+00,0.000000000000000000e+00,-6.000000000000000000e+00,2.000000000000000000e+00,4.833374023437500000e-01,1.755371093750000000e-01,-8.545532226562500000e-01,7.324218750000000000e-02
9.000000000000000000e+00,1.000000000000000000e+00,5.000000000000000000e+00,1.000000000000000000e+01,5.000000000000000000e+00,3.000000000000000000e+00,4.000000000000000000e+00,0.000000000000000000e+00,4.833374023437500000e-01,1.755371093750000000e-01,-8.545532226562500000e-01,7.324218750000000000e-02
7.000000000000000000e+00,1.000000000000000000e+00,0.000000000000000000e+00,-1.000000000000000000e+01,-9.000000000000000000e+00,-3.000000000000000000e+00,-1.300000000000000000e+01,0.000000000000000000e+00,4.833374023437500000e-01,1.755371093750000000e-01,-8.545532226562500000e-01,7.324218750000000000e-02
-6.000000000000000000e+00,-4.000000000000000000e+00,-2.700000000000000000e+01,-1.300000000000000000e+01,-1.500000000000000000e+01,-1.000000000000000000e+00,7.000000000000000000e+00,3.000000000000000000e+00,4.830322265625000000e-01,1.758422851562500000e-01,-8.546752929687500000e-01,7.275390625000000000e-02
-2.000000000000000000e+00,-6.000000000000000000e+00,-1.100000000000000000e+01,8.000000000000000000e+00,3.000000000000000000e+00,-1.000000000000000000e+00,-1.000000000000000000e+00,-2.000000000000000000e+00,4.830322265625000000e-01,1.758422851562500000e-01,-8.546752929687500000e-01,7.275390625000000000e-02
0.000000000000000000e+00,1.000000000000000000e+00,-6.000000000000000000e+00,-3.000000000000000000e+00,3.000000000000000000e+00,-3.000000000000000000e+00,0.000000000000000000e+00,-1.000000000000000000e+00,4.830322265625000000e-01,1.758422851562500000e-01,-8.546752929687500000e-01,7.275390625000000000e-02
0.000000000000000000e+00,-1.000000000000000000e+00,1.300000000000000000e+01,0.000000000000000000e+00,-2.000000000000000000e+00,0.000000000000000000e+00,3.000000000000000000e+00,-1.000000000000000000e+00,4.830322265625000000e-01,1.758422851562500000e-01,-8.546752929687500000e-01,7.275390625000000000e-02
-3.000000000000000000e+00,-1.000000000000000000e+00,1.200000000000000000e+01,4.000000000000000000e+00,-1.000000000000000000e+00,0.000000000000000000e+00,-4.000000000000000000e+00,-2.000000000000000000e+00,4.828491210937500000e-01,1.761474609375000000e-01,-8.547973632812500000e-01,7.226562500000000000e-02
3.000000000000000000e+00,2.000000000000000000e+00,-9.000000000000000000e+00,-9.000000000000000000e+00,-5.000000000000000000e+00,-4.000000000000000000e+00,-4.000000000000000000e+00,0.000000000000000000e+00,4.828491210937500000e-01,1.761474609375000000e-01,-8.547973632812500000e-01,7.226562500000000000e-02
2.000000000000000000e+00,4.000000000000000000e+00,6.000000000000000000e+00,-8.000000000000000000e+00,-4.000000000000000000e+00,0.000000000000000000e+00,0.000000000000000000e+00,-2.000000000000000000e+00,4.828491210937500000e-01,1.761474609375000000e-01,-8.547973632812500000e-01,7.226562500000000000e-02
-1.500000000000000000e+01,-8.000000000000000000e+00,-1.900000000000000000e+01,9.000000000000000000e+00,-4.000000000000000000e+00,-2.000000000000000000e+00,0.000000000000000000e+00,4.000000000000000000e+00,4.828491210937500000e-01,1.761474609375000000e-01,-8.547973632812500000e-01,7.226562500000000000e-02
-4.000000000000000000e+00,-3.000000000000000000e+00,2.000000000000000000e+00,5.000000000000000000e+00,7.000000000000000000e+00,0.000000000000000000e+00,1.000000000000000000e+00,-1.000000000000000000e+00,4.824829101562500000e-01,1.761474609375000000e-01,-8.550415039062500000e-01,7.183837890625000000e-02
4.000000000000000000e+00,1.000000000000000000e+00,0.000000000000000000e+00,-8.000000000000000000e+00,-2.000000000000000000e+00,-1.000000000000000000e+00,1.000000000000000000e+00,0.000000000000000000e+00,4.824829101562500000e-01,1.761474609375000000e-01,-8.550415039062500000e-01,7.183837890625000000e-02
0.000000000000000000e+00,-2.000000000000000000e+00,-4.000000000000000000e+00,-2.000000000000000000e+00,3.000000000000000000e+00,0.000000000000000000e+00,-2.000000000000000000e+00,1.000000000000000000e+00,4.824829101562500000e-01,1.761474609375000000e-01,-8.550415039062500000e-01,7.183837890625000000e-02
1.000000000000000000e+00,-1.000000000000000000e+00,-3.000000000000000000e+00,2.000000000000000000e+00,2.000000000000000000e+00,2.000000000000000000e+00,1.000000000000000000e+00,-4.000000000000000000e+00,4.824829101562500000e-01,1.761474609375000000e-01,-8.550415039062500000e-01,7.183837890625000000e-02
-1.000000000000000000e+00,-1.000000000000000000e+00,8.000000000000000000e+00,-1.000000000000000000e+00,-7.000000000000000000e+00,-1.000000000000000000e+00,-3.000000000000000000e+00,-2.000000000000000000e+00,4.821777343750000000e-01,1.759643554687500000e-01,-8.552246093750000000e-01,7.159423828125000000e-02
2.000000000000000000e+00,3.000000000000000000e+00,7.000000000000000000e+00,2.000000000000000000e+00,-2.000000000000000000e+00,-2.000000000000000000e+00,0.000000000000000000e+00,0.000000000000000000e+00,4.821777343750000000e-01,1.759643554687500000e-01,-8.552246093750000000e-01,7.159423828125000000e-02
-1.000000000000000000e+00,0.000000000000000000e+00,-5.000000000000000000e+00,3.000000000000000000e+00,-6.000000000000000000e+00,-4.000000000000000000e+00,1.000000000000000000e+00,-2.000000000000000000e+00,4.821777343750000000e-01,1.759643554687500000e-01,-8.552246093750000000e-01,7.159423828125000000e-02
-4.000000000000000000e+00,-5.000000000000000000e+00,-2.200000000000000000e+01,2.000000000000000000e+00,-4.000000000000000000e+00,2.000000000000000000e+00,5.000000000000000000e+00,-1.000000000000000000e+00,4.821777343750000000e-01,1.759643554687500000e-01,-8.552246093750000000e-01,7.159423828125000000e-02
-5.000000000000000000e+00,-1.300000000000000000e+01,5.000000000000000000e+00,-8.000000000000000000e+00,9.000000000000000000e+00,-4.000000000000000000e+00,-9.000000000000000000e+00,1.000000000000000000e+00,4.820556640625000000e-01,1.755371093750000000e-01,-8.554077148437500000e-01,7.165527343750000000e-02
5.000000000000000000e+00,-2.000000000000000000e+00,-9.000000000000000000e+00,6.000000000000000000e+00,6.000000000000000000e+00,4.000000000000000000e+00,3.000000000000000000e+00,-2.000000000000000000e+00,4.820556640625000000e-01,1.755371093750000000e-01,-8.554077148437500000e-01,7.165527343750000000e-02
-1.000000000000000000e+00,-3.000000000000000000e+00,5.000000000000000000e+00,7.000000000000000000e+00,3.000000000000000000e+00,-1.000000000000000000e+00,0.000000000000000000e+00,1.000000000000000000e+00,4.820556640625000000e-01,1.755371093750000000e-01,-8.554077148437500000e-01,7.165527343750000000e-02
-1.000000000000000000e+00,3.000000000000000000e+00,1.000000000000000000e+00,-8.000000000000000000e+00,-1.100000000000000000e+01,-3.000000000000000000e+00,1.000000000000000000e+00,-2.000000000000000000e+00,4.820556640625000000e-01,1.755371093750000000e-01,-8.554077148437500000e-01,7.165527343750000000e-02
1.000000000000000000e+00,4.000000000000000000e+00,5.000000000000000000e+00,2.000000000000000000e+00,-3.000000000000000000e+00,-3.000000000000000000e+00,-1.800000000000000000e+01,1.000000000000000000e+00,4.822998046875000000e-01,1.751098632812500000e-01,-8.553466796875000000e-01,7.183837890625000000e-02
-1.000000000000000000e+00,-1.000000000000000000e+00,4.000000000000000000e+00,0.000000000000000000e+00,-1.000000000000000000e+00,3.000000000000000000e+00,2.000000000000000000e+00,0.000000000000000000e+00,4.822998046875000000e-01,1.751098632812500000e-01,-8.553466796875000000e-01,7.183837890625000000e-02
-4.000000000000000000e+00,-5.000000000000000000e+00,-4.000000000000000000e+00,-1.000000000000000000e+00,-6.000000000000000000e+00,-1.000000000000000000e+00,2.000000000000000000e+00,0.000000000000000000e+00,4.822998046875000000e-01,1.751098632812500000e-01,-8.553466796875000000e-01,7.183837890625000000e-02
1.000000000000000000e+00,0.000000000000000000e+00,0.000000000000000000e+00,1.000000000000000000e+00,0.000000000000000000e+00,-2.000000000000000000e+00,0.000000000000000000e+00,1.000000000000000000e+00,4.822998046875000000e-01,1.751098632812500000e-01,-8.553466796875000000e-01,7.183837890625000000e-02
1.000000000000000000e+00,3.000000000000000000e+00,0.000000000000000000e+00,-1.000000000000000000e+01,-7.000000000000000000e+00,-4.000000000000000000e+00,-4.000000000000000000e+00,-4.000000000000000000e+00,4.827270507812500000e-01,1.746826171875000000e-01,-8.551635742187500000e-01,7.226562500000000000e-02
-1.000000000000000000e+00,4.000000000000000000e+00,1.000000000000000000e+00,1.000000000000000000e+00,5.000000000000000000e+00,2.000000000000000000e+00,1.000000000000000000e+00,2.000000000000000000e+00,4.827270507812500000e-01,1.746826171875000000e-01,-8.551635742187500000e-01,7.226562500000000000e-02
-5.000000000000000000e+00,-1.000000000000000000e+01,-1.000000000000000000e+00,-1.000000000000000000e+00,1.000000000000000000e+00,-1.000000000000000000e+00,1.000000000000000000e+00,-2.000000000000000000e+00,4.827270507812500000e-01,1.746826171875000000e-01,-8.551635742187500000e-01,7.226562500000000000e-02
-1.000000000000000000e+00,-4.000000000000000000e+00,-3.000000000000000000e+00,-9.000000000000000000e+00,-2.000000000000000000e+00,-1.000000000000000000e+00,0.000000000000000000e+00,0.000000000000000000e+00,4.827270507812500000e-01,1.746826171875000000e-01,-8.551635742187500000e-01,7.226562500000000000e-02
-1.000000000000000000e+00,1.000000000000000000e+00,2.000000000000000000e+00,-2.000000000000000000e+00,-4.000000000000000000e+00,-1.000000000000000000e+00,4.000000000000000000e+00,-2.000000000000000000e+00,4.832763671875000000e-01,1.741333007812500000e-01,-8.549194335937500000e-01,7.257080078125000000e-02
1.000000000000000000e+00,1.000000000000000000e+00,-6.000000000000000000e+00,-1.000000000000000000e+00,-8.000000000000000000e+00,-4.000000000000000000e+00,-4.000000000000000000e+00,-2.000000000000000000e+00,4.832763671875000000e-01,1.741333007812500000e-01,-8.549194335937500000e-01,7.257080078125000000e-02
0.000000000000000000e+00,1.000000000000000000e+00,2.000000000000000000e+00,0.000000000000000000e+00,3.000000000000000000e+00,1.000000000000000000e+00,-1.000000000000000000e+00,1.000000000000000000e+00,4.832763671875000000e-01,1.741333007812500000e-01,-8.549194335937500000e-01,7.257080078125000000e-02
-2.000000000000000000e+00,1.000000000000000000e+00,6.000000000000000000e+00,-5.000000000000000000e+00,-1.000000000000000000e+00,-4.000000000000000000e+00,-4.000000000000000000e+00,-2.000000000000000000e+00,4.832763671875000000e-01,1.741333007812500000e-01,-8.549194335937500000e-01,7.257080078125000000e-02
-1.000000000000000000e+00,-2.000000000000000000e+00,-1.000000000000000000e+00,-3.000000000000000000e+00,-8.000000000000000000e+00,1.000000000000000000e+00,6.000000000000000000e+00,1.000000000000000000e+00,4.838867187500000000e-01,1.737670898437500000e-01,-8.546142578125000000e-01,7.275390625000000000e-02
1.000000000000000000e+00,1.000000000000000000e+00,2.000000000000000000e+00,-5.000000000000000000e+00,-2.000000000000000000e+00,-1.000000000000000000e+00,1.000000000000000000e+00,-1.000000000000000000e+00,4.838867187500000000e-01,1.737670898437500000e-01,-8.546142578125000000e-01,7.275390625000000000e-02
-1.000000000000000000e+00,-1.000000000000000000e+00,-2.000000000000000000e+00,8.000000000000000000e+00,-3.000000000000000000e+00,-1.000000000000000000e+00,-6.000000000000000000e+00,-2.000000000000000000e+00,4.838867187500000000e-01,1.737670898437500000e-01,-8.546142578125000000e-01,7.275390625000000000e-02
-3.000000000000000000e+00,-2.000000000000000000e+00,0.000000000000000000e+00,-6.000000000000000000e+00,4.000000000000000000e+00,0.000000000000000000e+00,2.000000000000000000e+00,-7.000000000000000000e+00,4.838867187500000000e-01,1.737670898437500000e-01,-8.546142578125000000e-01,7.275390625000000000e-02
2.000000000000000000e+00,5.000000000000000000e+00,8.000000000000000000e+00,5.000000000000000000e+00,-5.000000000000000000e+00,-3.000000000000000000e+00,1.000000000000000000e+00,3.000000000000000000e+00,4.843139648437500000e-01,1.734008789062500000e-01,-8.544921875000000000e-01,7.250976562500000000e-02
1.000000000000000000e+00,3.000000000000000000e+00,-3.000000000000000000e+00,-9.000000000000000000e+00,-1.200000000000000000e+01,-3.000000000000000000e+00,-1.000000000000000000e+01,0.000000000000000000e+00,4.843139648437500000e-01,1.734008789062500000e-01,-8.544921875000000000e-01,7.250976562500000000e-02
0.000000000000000000e+00,-1.000000000000000000e+01,-2.300000000000000000e+01,2.000000000000000000e+00,1.400000000000000000e+01,-2.000000000000000000e+00,-2.000000000000000000e+00,-1.000000000000000000e+00,4.843139648437500000e-01,1.734008789062500000e-01,-8.544921875000000000e-01,7.250976562500000000e-02
-1.000000000000000000e+00,-2.000000000000000000e+00,-9.000000000000000000e+00,5.000000000000000000e+00,-5.000000000000000000e+00,0.000000000000000000e+00,-3.000000000000000000e+00,-3.000000000000000000e+00,4.843139648437500000e-01,1.734008789062500000e-01,-8.544921875000000000e-01,7.250976562500000000e-02
-3.000000000000000000e+00,-3.000000000000000000e+00,2.000000000000000000e+00,1.400000000000000000e+01,8.000000000000000000e+00,2.000000000000000000e+00,5.000000000000000000e+00,-3.000000000000000000e+00,4.842529296875000000e-01,1.734619140625000000e-01,-8.544921875000000000e-01,7.244873046875000000e-02
0.000000000000000000e+00,0.000000000000000000e+00,1.000000000000000000e+00,-1.700000000000000000e+01,-7.000000000000000000e+00,-4.000000000000000000e+00,-5.000000000000000000e+00,-1.000000000000000000e+00,4.842529296875000000e-01,1.734619140625000000e-01,-8.544921875000000000e-01,7.244873046875000000e-02
-2.000000000000000000e+00,3.000000000000000000e+00,5.000000000000000000e+00,4.000000000000000000e+00,-5.000000000000000000e+00,1.000000000000000000e+00,2.000000000000000000e+00,0.000000000000000000e+00,4.842529296875000000e-01,1.734619140625000000e-01,-8.544921875000000000e-01,7.244873046875000000e-02
-1.000000000000000000e+00,1.000000000000000000e+00,5.000000000000000000e+00,-3.000000000000000000e+00,-6.000000000000000000e+00,-4.000000000000000000e+00,-5.000000000000000000e+00,-1.000000000000000000e+00,4.842529296875000000e-01,1.734619140625000000e-01,-8.544921875000000000e-01,7.244873046875000000e-02
1.000000000000000000e+00,7.000000000000000000e+00,-3.000000000000000000e+00,-4.000000000000000000e+00,0.000000000000000000e+00,-2.000000000000000000e+00,-2.000000000000000000e+00,0.000000000000000000e+00,4.837036132812500000e-01,1.748657226562500000e-01,-8.545532226562500000e-01,7.196044921875000000e-02
-2.000000000000000000e+00,-6.000000000000000000e+00,1.000000000000000000e+01,2.100000000000000000e+01,1.200000000000000000e+01,2.000000000000000000e+00,0.000000000000000000e+00,0.000000000000000000e+00,4.837036132812500000e-01,1.748657226562500000e-01,-8.545532226562500000e-01,7.196044921875000000e-02
-6.000000000000000000e+00,-9.000000000000000000e+00,-1.100000000000000000e+01,-4.000000000000000000e+00,-5.000000000000000000e+00,0.000000000000000000e+00,6.000000000000000000e+00,-2.000000000000000000e+00,4.837036132812500000e-01,1.748657226562500000e-01,-8.545532226562500000e-01,7.196044921875000000e-02
-2.000000000000000000e+00,-9.000000000000000000e+00,-1.000000000000000000e+00,-1.100000000000000000e+01,4.000000000000000000e+00,0.000000000000000000e+00,0.000000000000000000e+00,-2.000000000000000000e+00,4.837036132812500000e-01,1.748657226562500000e-01,-8.545532226562500000e-01,7.196044921875000000e-02
-5.000000000000000000e+00,-5.000000000000000000e+00,3.000000000000000000e+00,-1.000000000000000000e+00,-4.000000000000000000e+00,-1.000000000000000000e+00,-1.000000000000000000e+00,-2.000000000000000000e+00,4.829711914062500000e-01,1.764526367187500000e-01,-8.546752929687500000e-01,7.153320312500000000e-02
0.000000000000000000e+00,3.000000000000000000e+00,-5.000000000000000000e+00,1.000000000000000000e+00,2.000000000000000000e+00,-2.000000000000000000e+00,0.000000000000000000e+00,1.000000000000000000e+00,4.829711914062500000e-01,1.764526367187500000e-01,-8.546752929687500000e-01,7.153320312500000000e-02
-3.000000000000000000e+00,6.000000000000000000e+00,8.000000000000000000e+00,2.000000000000000000e+00,-1.000000000000000000e+00,2.000000000000000000e+00,-2.000000000000000000e+00,-1.000000000000000000e+00,4.829711914062500000e-01,1.764526367187500000e-01,-8.546752929687500000e-01,7.153320312500000000e-02
1.000000000000000000e+00,2.000000000000000000e+00,-4.000000000000000000e+00,-1.000000000000000000e+01,-9.000000000000000000e+00,-6.000000000000000000e+00,-2.600000000000000000e+01,0.000000000000000000e+00,4.829711914062500000e-01,1.764526367187500000e-01,-8.546752929687500000e-01,7.153320312500000000e-02
2.000000000000000000e+00,0.000000000000000000e+00,1.000000000000000000e+00,5.000000000000000000e+00,2.000000000000000000e+00,3.000000000000000000e+00,1.000000000000000000e+01,-1.000000000000000000e+00,4.824218750000000000e-01,1.773681640625000000e-01,-8.548583984375000000e-01,7.092285156250000000e-02
2.000000000000000000e+00,2.000000000000000000e+00,5.000000000000000000e+00,-6.000000000000000000e+00,-3.000000000000000000e+00,-1.000000000000000000e+00,0.000000000000000000e+00,0.000000000000000000e+00,4.824218750000000000e-01,1.773681640625000000e-01,-8.548583984375000000e-01,7.092285156250000000e-02
-7.000000000000000000e+00,-8.000000000000000000e+00,-2.200000000000000000e+01,-1.000000000000000000e+00,2.000000000000000000e+00,0.000000000000000000e+00,-1.000000000000000000e+00,-1.000000000000000000e+00,4.824218750000000000e-01,1.773681640625000000e-01,-8.548583984375000000e-01,7.092285156250000000e-02
1.000000000000000000e+00,0.000000000000000000e+00,5.000000000000000000e+00,4.000000000000000000e+00,-4.000000000000000000e+00,-2.000000000000000000e+00,4.000000000000000000e+00,0.000000000000000000e+00,4.824218750000000000e-01,1.773681640625000000e-01,-8.548583984375000000e-01,7.092285156250000000e-02
-4.000000000000000000e+00,-2.000000000000000000e+00,-5.000000000000000000e+00,-5.000000000000000000e+00,0.000000000000000000e+00,1.000000000000000000e+00,-2.000000000000000000e+00,0.000000000000000000e+00,4.820556640625000000e-01,1.778564453125000000e-01,-8.550415039062500000e-01,7.037353515625000000e-02
-2.000000000000000000e+00,-1.000000000000000000e+00,0.000000000000000000e+00,-2.000000000000000000e+00,-2.000000000000000000e+00,-4.000000000000000000e+00,-3.000000000000000000e+00,-4.000000000000000000e+00,4.820556640625000000e-01,1.778564453125000000e-01,-8.550415039062500000e-01,7.037353515625000000e-02
3.000000000000000000e+00,7.000000000000000000e+00,9.000000000000000000e+00,1.000000000000000000e+00,3.000000000000000000e+00,-2.000000000000000000e+00,-1.000000000000000000e+00,1.000000000000000000e+00,4.820556640625000000e-01,1.778564453125000000e-01,-8.550415039062500000e-01,7.037353515625000000e-02
-4.000000000000000000e+00,-4.000000000000000000e+00,8.000000000000000000e+00,-1.400000000000000000e+01,-7.000000000000000000e+00,3.000000000000000000e+00,4.000000000000000000e+00,-2.000000000000000000e+00,4.820556640625000000e-01,1.778564453125000000e-01,-8.550415039062500000e-01,7.037353515625000000e-02
-2.000000000000000000e+00,-2.000000000000000000e+00,-8.000000000000000000e+00,-1.000000000000000000e+00,-1.000000000000000000e+00,-4.000000000000000000e+00,-1.000000000000000000e+00,-4.000000000000000000e+00,4.817504882812500000e-01,1.779785156250000000e-01,-8.551635742187500000e-01,7.006835937500000000e-02
-2.000000000000000000e+00,-3.000000000000000000e+00,4.000000000000000000e+00,1.000000000000000000e+00,3.000000000000000000e+00,0.000000000000000000e+00,3.000000000000000000e+00,-2.000000000000000000e+00,4.817504882812500000e-01,1.779785156250000000e-01,-8.551635742187500000e-01,7.006835937500000000e-02
3.000000000000000000e+00,-3.000000000000000000e+00,2.000000000000000000e+00,-8.000000000000000000e+00,-3.000000000000000000e+00,-1.000000000000000000e+00,-5.000000000000000000e+00,0.000000000000000000e+00,4.817504882812500000e-01,1.779785156250000000e-01,-8.551635742187500000e-01,7.006835937500000000e-02
-4.000000000000000000e+00,2.000000000000000000e+00,-4.000000000000000000e+00,1.400000000000000000e+01,1.000000000000000000e+01,0.000000000000000000e+00,3.000000000000000000e+00,0.000000000000000000e+00,4.817504882812500000e-01,1.779785156250000000e-01,-8.551635742187500000e-01,7.006835937500000000e-02
2.000000000000000000e+00,-2.000000000000000000e+00,-2.000000000000000000e+00,-3.000000000000000000e+00,2.000000000000000000e+00,1.000000000000000000e+00,-1.000000000000000000e+00,0.000000000000000000e+00,4.818115234375000000e-01,1.776123046875000000e-01,-8.552246093750000000e-01,6.994628906250000000e-02
-3.000000000000000000e+00,-1.000000000000000000e+00,-1.000000000000000000e+00,-2.000000000000000000e+00,-4.000000000000000000e+00,-1.000000000000000000e+00,-2.000000000000000000e+00,-2.000000000000000000e+00,4.818115234375000000e-01,1.776123046875000000e-01,-8.552246093750000000e-01,6.994628906250000000e-02
1.000000000000000000e+00,4.000000000000000000e+00,7.000000000000000000e+00,-1.800000000000000000e+01,-1.400000000000000000e+01,-5.000000000000000000e+00,-6.000000000000000000e+00,-1.000000000000000000e+00,4.818115234375000000e-01,1.776123046875000000e-01,-8.552246093750000000e-01,6.994628906250000000e-02
3.000000000000000000e+00,8.000000000000000000e+00,5.000000000000000000e+00,1.700000000000000000e+01,4.000000000000000000e+00,0.000000000000000000e+00,5.000000000000000000e+00,-2.000000000000000000e+00,4.818115234375000000e-01,1.776123046875000000e-01,-8.552246093750000000e-01,6.994628906250000000e-02
-3.000000000000000000e+00,-1.400000000000000000e+01,-1.900000000000000000e+01,-8.000000000000000000e+00,1.100000000000000000e+01,-1.000000000000000000e+00,-7.000000000000000000e+00,1.000000000000000000e+00,4.818725585937500000e-01,1.769409179687500000e-01,-8.553466796875000000e-01,7.012939453125000000e-02
-9.000000000000000000e+00,-8.000000000000000000e+00,-1.800000000000000000e+01,-2.000000000000000000e+00,-3.000000000000000000e+00,-1.000000000000000000e+00,-9.000000000000000000e+00,-1.000000000000000000e+00,4.818725585937500000e-01,1.769409179687500000e-01,-8.553466796875000000e-01,7.012939453125000000e-02
-1.000000000000000000e+00,1.000000000000000000e+00,2.000000000000000000e+00,-6.000000000000000000e+00,-2.000000000000000000e+00,0.000000000000000000e+00,1.000000000000000000e+00,-1.000000000000000000e+00,4.818725585937500000e-01,1.769409179687500000e-01,-8.553466796875000000e-01,7.012939453125000000e-02
-3.000000000000000000e+00,-4.000000000000000000e+00,5.000000000000000000e+00,-4.000000000000000000e+00,-5.000000000000000000e+00,-1.000000000000000000e+00,0.000000000000000000e+00,-6.000000000000000000e+00,4.818725585937500000e-01,1.769409179687500000e-01,-8.553466796875000000e-01,7.012939453125000000e-02
2.000000000000000000e+00,7.000000000000000000e+00,7.000000000000000000e+00,5.000000000000000000e+00,-3.000000000000000000e+00,-1.000000000000000000e+00,1.000000000000000000e+00,1.000000000000000000e+00,4.821166992187500000e-01,1.763916015625000000e-01,-8.552856445312500000e-01,7.043457031250000000e-02
1.000000000000000000e+00,-3.000000000000000000e+00,-2.000000000000000000e+00,5.000000000000000000e+00,-7.000000000000000000e+00,-2.000000000000000000e+00,-4.000000000000000000e+00,-1.000000000000000000e+00,4.821166992187500000e-01,1.763916015625000000e-01,-8.552856445312500000e-01,7.043457031250000000e-02
6.000000000000000000e+00,4.000000000000000000e+00,2.000000000000000000e+00,-4.000000000000000000e+00,-6.000000000000000000e+00,-2.000000000000000000e+00,-9.000000000000000000e+00,-2.000000000000000000e+00,4.821166992187500000e-01,1.763916015625000000e-01,-8.552856445312500000e-01,7.043457031250000000e-02
-3.000000000000000000e+00,5.000000000000000000e+00,-3.000000000000000000e+00,0.000000000000000000e+00,5.000000000000000000e+00,3.000000000000000000e+00,7.000000000000000000e+00,2.000000000000000000e+00,4.821166992187500000e-01,1.763916015625000000e-01,-8.552856445312500000e-01,7.043457031250000000e-02
2.000000000000000000e+00,-6.000000000000000000e+00,-1.000000000000000000e+00,4.000000000000000000e+00,3.000000000000000000e+00,-1.000000000000000000e+00,-3.000000000000000000e+00,-1.000000000000000000e+00,4.822387695312500000e-01,1.758422851562500000e-01,-8.552856445312500000e-01,7.086181640625000000e-02
2.000000000000000000e+00,-5.000000000000000000e+00,1.000000000000000000e+01,-1.000000000000000000e+01,-1.200000000000000000e+01,-4.000000000000000000e+00,2.000000000000000000e+00,-2.000000000000000000e+00,4.822387695312500000e-01,1.758422851562500000e-01,-8.552856445312500000e-01,7.086181640625000000e-02
1.000000000000000000e+00,-2.000000000000000000e+00,3.000000000000000000e+00,9.000000000000000000e+00,7.000000000000000000e+00,1.000000000000000000e+00,2.000000000000000000e+00,1.000000000000000000e+00,4.822387695312500000e-01,1.758422851562500000e-01,-8.552856445312500000e-01,7.086181640625000000e-02
-5.000000000000000000e+00,1.000000000000000000e+00,-1.000000000000000000e+01,-1.000000000000000000e+00,-2.000000000000000000e+00,-2.000000000000000000e+00,0.000000000000000000e+00,1.000000000000000000e+00,4.822387695312500000e-01,1.758422851562500000e-01,-8.552856445312500000e-01,7.086181640625000000e-02
-3.000000000000000000e+00,1.000000000000000000e+00,-1.000000000000000000e+00,-2.000000000000000000e+00,-1.000000000000000000e+00,1.000000000000000000e+00,-3.000000000000000000e+00,-3.000000000000000000e+00,4.826049804687500000e-01,1.751098632812500000e-01,-8.552246093750000000e-01,7.110595703125000000e-02
1.000000000000000000e+00,2.000000000000000000e+00,0.000000000000000000e+00,0.000000000000000000e+00,1.000000000000000000e+00,1.000000000000000000e+00,2.000000000000000000e+00,0.000000000000000000e+00,4.826049804687500000e-01,1.751098632812500000e-01,-8.552246093750000000e-01,7.110595703125000000e-02
1.000000000000000000e+00,2.000000000000000000e+00,3.000000000000000000e+00,-3.500000000000000000e+01,-1.600000000000000000e+01,-4.000000000000000000e+00,-3.000000000000000000e+00,-3.000000000000000000e+00,4.826049804687500000e-01,1.751098632812500000e-01,-8.552246093750000000e-01,7.110595703125000000e-02
4.000000000000000000e+00,-3.000000000000000000e+00,0.000000000000000000e+00,4.600000000000000000e+01,3.200000000000000000e+01,4.000000000000000000e+00,-3.000000000000000000e+00,-1.000000000000000000e+00,4.826049804687500000e-01,1.751098632812500000e-01,-8.552246093750000000e-01,7.110595703125000000e-02
5.000000000000000000e+00,6.000000000000000000e+00,-5.000000000000000000e+00,-5.000000000000000000e+00,-6.000000000000000000e+00,0.000000000000000000e+00,9.000000000000000000e+00,-1.000000000000000000e+00,4.830932617187500000e-01,1.741943359375000000e-01,-8.551025390625000000e-01,7.110595703125000000e-02
0.000000000000000000e+00,-6.000000000000000000e+00,-3.000000000000000000e+00,1.000000000000000000e+00,1.000000000000000000e+00,-2.000000000000000000e+00,-6.000000000000000000e+00,2.000000000000000000e+00,4.830932617187500000e-01,1.741943359375000000e-01,-8.551025390625000000e-01,7.110595703125000000e-02
-1.500000000000000000e+01,-8.000000000000000000e+00,-1.000000000000000000e+00,-6.000000000000000000e+00,-2.000000000000000000e+00,1.000000000000000000e+00,8.000000000000000000e+00,-2.000000000000000000e+00,4.830932617187500000e-01,1.741943359375000000e-01,-8.551025390625000000e-01,7.110595703125000000e-02
0.000000000000000000e+00,-3.000000000000000000e+00,-3.000000000000000000e+00,-1.400000000000000000e+01,-7.000000000000000000e+00,0.000000000000000000e+00,2.000000000000000000e+00,1.000000000000000000e+00,4.830932617187500000e-01,1.741943359375000000e-01,-8.551025390625000000e-01,7.110595703125000000e-02
-4.000000000000000000e+00,1.000000000000000000e+00,9.000000000000000000e+00,3.000000000000000000e+00,-4.000000000000000000e+00,-2.000000000000000000e+00,-8.000000000000000000e+00,-1.000000000000000000e+00,4.836425781250000000e-01,1.735229492187500000e-01,-8.549194335937500000e-01,7.092285156250000000e-02
4.000000000000000000e+00,3.000000000000000000e+00,-5.000000000000000000e+00,2.000000000000000000e+00,3.000000000000000000e+00,-2.000000000000000000e+00,-3.000000000000000000e+00,-1.000000000000000000e+00,4.836425781250000000e-01,1.735229492187500000e-01,-8.549194335937500000e-01,7.092285156250000000e-02
-1.000000000000000000e+00,-1.000000000000000000e+00,-1.000000000000000000e+00,1.000000000000000000e+01,-3.000000000000000000e+00,-2.000000000000000000e+00,-1.000000000000000000e+00,0.000000000000000000e+00,4.836425781250000000e-01,1.735229492187500000e-01,-8.549194335937500000e-01,7.092285156250000000e-02
1.000000000000000000e+00,-1.000000000000000000e+00,5.000000000000000000e+00,-1.000000000000000000e+01,-1.200000000000000000e+01,-1.000000000000000000e+00,-2.000000000000000000e+00,1.000000000000000000e+00,4.836425781250000000e-01,1.735229492187500000e-01,-8.549194335937500000e-01,7.092285156250000000e-02
1.000000000000000000e+00,-1.000000000000000000e+00,-9.000000000000000000e+00,1.100000000000000000e+01,1.600000000000000000e+01,4.000000000000000000e+00,2.000000000000000000e+00,-1.000000000000000000e+00,4.840087890625000000e-01,1.735229492187500000e-01,-8.547973632812500000e-01,7.061767578125000000e-02
-6.000000000000000000e+00,0.000000000000000000e+00,-1.000000000000000000e+01,-7.000000000000000000e+00,2.000000000000000000e+00,0.000000000000000000e+00,1.000000000000000000e+00,-8.000000000000000000e+00,4.840087890625000000e-01,1.735229492187500000e-01,-8.547973632812500000e-01,7.061767578125000000e-02
1.000000000000000000e+00,-9.000000000000000000e+00,-1.100000000000000000e+01,-6.000000000000000000e+00,1.200000000000000000e+01,1.000000000000000000e+00,4.000000000000000000e+00,6.000000000000000000e+00,4.840087890625000000e-01,1.735229492187500000e-01,-8.547973632812500000e-01,7.061767578125000000e-02
1.000000000000000000e+00,-4.000000000000000000e+00,-4.000000000000000000e+00,-1.000000000000000000e+00,-7.000000000000000000e+00,-3.000000000000000000e+00,-2.000000000000000000e+00,-2.000000000000000000e+00,4.840087890625000000e-01,1.735229492187500000e-01,-8.547973632812500000e-01,7.061767578125000000e-02
-1.000000000000000000e+00,-4.000000000000000000e+00,2.000000000000000000e+00,-7.000000000000000000e+00,-8.000000000000000000e+00,-4.000000000000000000e+00,-3.000000000000000000e+00,-1.000000000000000000e+00,4.838867187500000000e-01,1.743164062500000000e-01,-8.547363281250000000e-01,7.019042968750000000e-02
-1.400000000000000000e+01,-1.000000000000000000e+00,-1.000000000000000000e+00,-1.400000000000000000e+01,-9.000000000000000000e+00,-5.000000000000000000e+00,-1.000000000000000000e+00,-2.000000000000000000e+00,4.838867187500000000e-01,1.743164062500000000e-01,-8.547363281250000000e-01,7.019042968750000000e-02
-2.000000000000000000e+00,4.000000000000000000e+00,3.000000000000000000e+00,2.700000000000000000e+01,6.000000000000000000e+00,-1.000000000000000000e+00,-1.000000000000000000e+00,-2.000000000000000000e+00,4.838867187500000000e-01,1.743164062500000000e-01,-8.547363281250000000e-01,7.019042968750000000e-02
5.000000000000000000e+00,0.000000000000000000e+00,-3.000000000000000000e+00,-5.000000000000000000e+00,5.000000000000000000e+00,3.000000000000000000e+00,2.000000000000000000e+00,2.000000000000000000e+00,4.838867187500000000e-01,1.743164062500000000e-01,-8.547363281250000000e-01,7.019042968750000000e-02
2.000000000000000000e+00,5.000000000000000000e+00,6.000000000000000000e+00,5.000000000000000000e+00,-6.000000000000000000e+00,-2.000000000000000000e+00,-2.000000000000000000e+00,-1.000000000000000000e+00,4.836425781250000000e-01,1.754150390625000000e-01,-8.546752929687500000e-01,6.939697265625000000e-02
-2.000000000000000000e+00,-3.000000000000000000e+00,-6.000000000000000000e+00,-7.000000000000000000e+00,1.500000000000000000e+01,1.000000000000000000e+00,0.000000000000000000e+00,1.000000000000000000e+00,4.836425781250000000e-01,1.754150390625000000e-01,-8.546752929687500000e-01,6.939697265625000000e-02
-1.000000000000000000e+00,-4.000000000000000000e+00,-6.000000000000000000e+00,-1.100000000000000000e+01,-1.000000000000000000e+01,-8.000000000000000000e+00,-1.800000000000000000e+01,-4.000000000000000000e+00,4.836425781250000000e-01,1.754150390625000000e-01,-8.546752929687500000e-01,6.939697265625000000e-02
-5.000000000000000000e+00,-5.000000000000000000e+00,-7.000000000000000000e+00,-4.000000000000000000e+00,-3.000000000000000000e+00,-4.000000000000000000e+00,-1.000000000000000000e+00,0.000000000000000000e+00,4.836425781250000000e-01,1.754150390625000000e-01,-8.546752929687500000e-01,6.939697265625000000e-02
0.000000000000000000e+00,-2.000000000000000000e+00,3.000000000000000000e+00,-6.000000000000000000e+00,-1.000000000000000000e+01,-4.000000000000000000e+00,-1.000000000000000000e+00,-1.000000000000000000e+00,4.833374023437500000e-01,1.765747070312500000e-01,-8.547363281250000000e-01,6.866455078125000000e-02
2.000000000000000000e+00,3.000000000000000000e+00,0.000000000000000000e+00,8.000000000000000000e+00,1.000000000000000000e+00,-1.000000000000000000e+00,2.000000000000000000e+00,0.000000000000000000e+00,4.833374023437500000e-01,1.765747070312500000e-01,-8.547363281250000000e-01,6.866455078125000000e-02
1.000000000000000000e+00,4.000000000000000000e+00,6.000000000000000000e+00,1.000000000000000000e+00,-1.000000000000000000e+00,2.000000000000000000e+00,-2.000000000000000000e+00,-1.000000000000000000e+00,4.833374023437500000e-01,1.765747070312500000e-01,-8.547363281250000000e-01,6.866455078125000000e-02
-2.000000000000000000e+00,-3.000000000000000000e+00,-1.000000000000000000e+00,-7.000000000000000000e+00,2.000000000000000000e+00,-2.000000000000000000e+00,0.000000000000000000e+00,-3.000000000000000000e+00,4.833374023437500000e-01,1.765747070312500000e-01,-8.547363281250000000e-01,6.866455078125000000e-02
-4.000000000000000000e+00,7.000000000000000000e+00,7.000000000000000000e+00,-1.100000000000000000e+01,-2.200000000000000000e+01,-5.000000000000000000e+00,-2.000000000000000000e+00,2.000000000000000000e+00,4.830932617187500000e-01,1.771240234375000000e-01,-8.547973632812500000e-01,6.787109375000000000e-02
-3.000000000000000000e+00,-1.900000000000000000e+01,-9.000000000000000000e+00,9.000000000000000000e+00,3.400000000000000000e+01,3.000000000000000000e+00,-4.000000000000000000e+00,-1.000000000000000000e+00,4.830932617187500000e-01,1.771240234375000000e-01,-8.547973632812500000e-01,6.787109375000000000e-02
0.000000000000000000e+00,-4.000000000000000000e+00,-5.000000000000000000e+00,-1.300000000000000000e+01,-2.000000000000000000e+00,0.000000000000000000e+00,1.000000000000000000e+00,-3.000000000000000000e+00,4.830932617187500000e-01,1.771240234375000000e-01,-8.547973632812500000e-01,6.787109375000000000e-02
-3.000000000000000000e+00,-3.000000000000000000e+00,-8.000000000000000000e+00,6.000000000000000000e+00,-4.000000000000000000e+00,-5.000000000000000000e+00,-1.000000000000000000e+00,0.000000000000000000e+00,4.830932617187500000e-01,1.771240234375000000e-01,-8.547973632812500000e-01,6.787109375000000000e-02
