-2.000000000000000000e+00,-4.000000000000000000e+00,-6.000000000000000000e+00,1.100000000000000000e+01,4.000000000000000000e+00,-4.000000000000000000e+00,-3.000000000000000000e+00,-1.000000000000000000e+00,2.619018554687500000e-01,-4.011840820312500000e-01,-3.143310546875000000e-01,-8.195800781250000000e-01
-1.000000000000000000e+00,3.000000000000000000e+00,1.300000000000000000e+01,2.000000000000000000e+00,5.000000000000000000e+00,5.000000000000000000e+00,-1.000000000000000000e+00,3.000000000000000000e+00,2.619018554687500000e-01,-4.011840820312500000e-01,-3.143310546875000000e-01,-8.195800781250000000e-01
-4.000000000000000000e+00,-9.000000000000000000e+00,-4.100000000000000000e+01,-1.900000000000000000e+01,-7.000000000000000000e+00,-3.000000000000000000e+00,-2.000000000000000000e+00,-3.000000000000000000e+00,2.619018554687500000e-01,-4.010009765625000000e-01,-3.143310546875000000e-01,-8.197021484375000000e-01
-3.000000000000000000e+00,-4.000000000000000000e+00,4.000000000000000000e+00,-2.200000000000000000e+01,-1.400000000000000000e+01,-8.000000000000000000e+00,-3.000000000000000000e+00,-4.000000000000000000e+00,2.619018554687500000e-01,-4.010009765625000000e-01,-3.143310546875000000e-01,-8.197021484375000000e-01
1.000000000000000000e+00,2.000000000000000000e+00,-1.300000000000000000e+01,6.000000000000000000e+00,1.100000000000000000e+01,-2.000000000000000000e+00,-2.000000000000000000e+00,1.000000000000000000e+00,2.619018554687500000e-01,-4.010009765625000000e-01,-3.143310546875000000e-01,-8.197021484375000000e-01
5.000000000000000000e+00,-2.000000000000000000e+00,-7.000000000000000000e+00,5.800000000000000000e+01,7.000000000000000000e+00,-1.000000000000000000e+00,-5.000000000000000000e+00,5.000000000000000000e+00,2.619018554687500000e-01,-4.010009765625000000e-01,-3.143310546875000000e-01,-8.197021484375000000e-01
2.000000000000000000e+00,2.000000000000000000e+00,-8.000000000000000000e+00,-4.000000000000000000e+01,-1.200000000000000000e+01,-9.000000000000000000e+00,-1.000000000000000000e+00,0.000000000000000000e+00,2.615966796875000000e-01,-4.008789062500000000e-01,-3.138427734375000000e-01,-8.200073242187500000e-01
-3.000000000000000000e+00,2.000000000000000000e+00,1.600000000000000000e+01,2.000000000000000000e+00,-4.000000000000000000e+00,3.000000000000000000e+00,0.000000000000000000e+00,-1.000000000000000000e+00,2.615966796875000000e-01,-4.008789062500000000e-01,-3.138427734375000000e-01,-8.200073242187500000e-01
0.000000000000000000e+00,-4.000000000000000000e+00,-1.400000000000000000e+01,-8.000000000000000000e+00,2.000000000000000000e+00,0.000000000000000000e+00,2.000000000000000000e+00,-4.000000000000000000e+00,2.615966796875000000e-01,-4.008789062500000000e-01,-3.138427734375000000e-01,-8.200073242187500000e-01
6.000000000000000000e+00,9.000000000000000000e+00,1.700000000000000000e+01,8.000000000000000000e+00,3.000000000000000000e+00,0.000000000000000000e+00,-4.000000000000000000e+00,6.000000000000000000e+00,2.615966796875000000e-01,-4.008789062500000000e-01,-3.138427734375000000e-01,-8.200073242187500000e-01
1.000000000000000000e+00,5.000000000000000000e+00,9.000000000000000000e+00,2.200000000000000000e+01,5.000000000000000000e+00,-3.000000000000000000e+00,-2.000000000000000000e+00,-3.000000000000000000e+00,2.601318359375000000e-01,-4.011230468750000000e-01,-3.130493164062500000e-01,-8.206787109375000000e-01
-3.000000000000000000e+00,-1.200000000000000000e+01,-3.600000000000000000e+01,-2.600000000000000000e+01,-8.000000000000000000e+00,-9.000000000000000000e+00,-2.000000000000000000e+00,4.000000000000000000e+00,2.601318359375000000e-01,-4.011230468750000000e-01,-3.130493164062500000e-01,-8.206787109375000000e-01
-3.000000000000000000e+00,5.000000000000000000e+00,1.400000000000000000e+01,-1.800000000000000000e+01,-1.300000000000000000e+01,1.200000000000000000e+01,1.100000000000000000e+01,-4.000000000000000000e+00,2.601318359375000000e-01,-4.011230468750000000e-01,-3.130493164062500000e-01,-8.206787109375000000e-01
-3.000000000000000000e+00,3.000000000000000000e+00,2.900000000000000000e+01,8.000000000000000000e+00,1.000000000000000000e+01,4.000000000000000000e+00,-6.000000000000000000e+00,-3.000000000000000000e+00,2.601318359375000000e-01,-4.011230468750000000e-01,-3.130493164062500000e-01,-8.206787109375000000e-01
2.000000000000000000e+00,3.000000000000000000e+00,-4.000000000000000000e+00,6.000000000000000000e+00,-4.000000000000000000e+00,-5.000000000000000000e+00,6.000000000000000000e+00,0.000000000000000000e+00,2.595214843750000000e-01,-4.012451171875000000e-01,-3.125610351562500000e-01,-8.210449218750000000e-01
-1.000000000000000000e+00,-6.000000000000000000e+00,-1.700000000000000000e+01,9.000000000000000000e+00,1.300000000000000000e+01,6.000000000000000000e+00,2.000000000000000000e+00,-1.000000000000000000e+00,2.595214843750000000e-01,-4.012451171875000000e-01,-3.125610351562500000e-01,-8.210449218750000000e-01
-1.000000000000000000e+00,-1.000000000000000000e+00,4.200000000000000000e+01,-1.300000000000000000e+01,-1.300000000000000000e+01,-1.000000000000000000e+01,-1.000000000000000000e+01,-1.000000000000000000e+00,2.595214843750000000e-01,-4.012451171875000000e-01,-3.125610351562500000e-01,-8.210449218750000000e-01
0.000000000000000000e+00,-5.000000000000000000e+00,-4.000000000000000000e+01,-4.000000000000000000e+00,4.000000000000000000e+00,4.000000000000000000e+00,6.000000000000000000e+00,-1.000000000000000000e+00,2.595214843750000000e-01,-4.012451171875000000e-01,-3.125610351562500000e-01,-8.210449218750000000e-01
0.000000000000000000e+00,2.000000000000000000e+00,-2.100000000000000000e+01,-9.000000000000000000e+00,-8.000000000000000000e+00,-6.000000000000000000e+00,-4.000000000000000000e+00,1.000000000000000000e+00,2.595825195312500000e-01,-4.011840820312500000e-01,-3.125000000000000000e-01,-8.210449218750000000e-01
-5.000000000000000000e+00,-6.000000000000000000e+00,2.100000000000000000e+01,1.800000000000000000e+01,1.600000000000000000e+01,-1.000000000000000000e+01,-3.000000000000000000e+00,-2.000000000000000000e+00,2.595825195312500000e-01,-4.011840820312500000e-01,-3.125000000000000000e-01,-8.210449218750000000e-01
-1.000000000000000000e+00,-1.100000000000000000e+01,-1.600000000000000000e+01,-2.700000000000000000e+01,-1.600000000000000000e+01,1.300000000000000000e+01,1.800000000000000000e+01,5.000000000000000000e+00,2.595825195312500000e-01,-4.011840820312500000e-01,-3.125000000000000000e-01,-8.210449218750000000e-01
1.000000000000000000e+00,7.000000000000000000e+00,2.000000000000000000e+00,1.000000000000000000e+01,1.400000000000000000e+01,4.000000000000000000e+00,-3.000000000000000000e+00,-2.000000000000000000e+00,2.595825195312500000e-01,-4.011840820312500000e-01,-3.125000000000000000e-01,-8.210449218750000000e-01
-6.000000000000000000e+00,-9.000000000000000000e+00,-2.000000000000000000e+00,-9.000000000000000000e+00,0.000000000000000000e+00,-1.000000000000000000e+00,-5.000000000000000000e+00,-5.000000000000000000e+00,2.597045898437500000e-01,-4.011840820312500000e-01,-3.117675781250000000e-01,-8.212280273437500000e-01
0.000000000000000000e+00,1.000000000000000000e+00,1.000000000000000000e+00,1.500000000000000000e+01,-1.200000000000000000e+01,0.000000000000000000e+00,2.000000000000000000e+00,-1.000000000000000000e+00,2.597045898437500000e-01,-4.011840820312500000e-01,-3.117675781250000000e-01,-8.212280273437500000e-01
0.000000000000000000e+00,-1.000000000000000000e+00,1.700000000000000000e+01,-6.000000000000000000e+00,-2.000000000000000000e+00,-6.000000000000000000e+00,-6.000000000000000000e+00,0.000000000000000000e+00,2.597045898437500000e-01,-4.011840820312500000e-01,-3.117675781250000000e-01,-8.212280273437500000e-01
-3.000000000000000000e+00,-1.000000000000000000e+00,1.700000000000000000e+01,1.000000000000000000e+01,-1.000000000000000000e+00,0.000000000000000000e+00,-3.000000000000000000e+00,-3.000000000000000000e+00,2.597045898437500000e-01,-4.011840820312500000e-01,-3.117675781250000000e-01,-8.212280273437500000e-01
-2.000000000000000000e+00,-6.000000000000000000e+00,-2.900000000000000000e+01,-2.200000000000000000e+01,-1.400000000000000000e+01,-6.000000000000000000e+00,0.000000000000000000e+00,-1.000000000000000000e+00,2.590332031250000000e-01,-4.016723632812500000e-01,-3.109741210937500000e-01,-8.215332031250000000e-01
-1.000000000000000000e+00,-1.000000000000000000e+00,-1.200000000000000000e+01,-6.000000000000000000e+00,-1.000000000000000000e+00,1.000000000000000000e+00,-4.000000000000000000e+00,0.000000000000000000e+00,2.590332031250000000e-01,-4.016723632812500000e-01,-3.109741210937500000e-01,-8.215332031250000000e-01
3.000000000000000000e+00,4.000000000000000000e+00,1.500000000000000000e+01,3.000000000000000000e+01,1.600000000000000000e+01,-1.000000000000000000e+00,-2.000000000000000000e+00,0.000000000000000000e+00,2.590332031250000000e-01,-4.016723632812500000e-01,-3.109741210937500000e-01,-8.215332031250000000e-01
-3.000000000000000000e+00,-5.000000000000000000e+00,-1.800000000000000000e+01,-1.200000000000000000e+01,-1.600000000000000000e+01,-8.000000000000000000e+00,-6.000000000000000000e+00,-2.000000000000000000e+00,2.590332031250000000e-01,-4.016723632812500000e-01,-3.109741210937500000e-01,-8.215332031250000000e-01
2.000000000000000000e+00,9.000000000000000000e+00,3.500000000000000000e+01,-5.000000000000000000e+00,-1.700000000000000000e+01,-6.000000000000000000e+00,-5.000000000000000000e+00,-3.000000000000000000e+00,2.582397460937500000e-01,-4.020996093750000000e-01,-3.104858398437500000e-01,-8.217773437500000000e-01
2.000000000000000000e+00,4.000000000000000000e+00,1.700000000000000000e+01,-4.000000000000000000e+00,1.500000000000000000e+01,1.100000000000000000e+01,7.000000000000000000e+00,-2.000000000000000000e+00,2.582397460937500000e-01,-4.020996093750000000e-01,-3.104858398437500000e-01,-8.217773437500000000e-01
-3.000000000000000000e+00,-5.000000000000000000e+00,-1.500000000000000000e+01,8.000000000000000000e+00,1.600000000000000000e+01,-1.800000000000000000e+01,-7.000000000000000000e+00,-1.000000000000000000e+00,2.582397460937500000e-01,-4.020996093750000000e-01,-3.104858398437500000e-01,-8.217773437500000000e-01
-1.000000000000000000e+00,-7.000000000000000000e+00,6.000000000000000000e+00,1.800000000000000000e+01,5.000000000000000000e+00,1.800000000000000000e+01,1.300000000000000000e+01,-1.000000000000000000e+00,2.582397460937500000e-01,-4.020996093750000000e-01,-3.104858398437500000e-01,-8.217773437500000000e-01
1.000000000000000000e+00,7.000000000000000000e+00,9.000000000000000000e+00,-8.000000000000000000e+00,-7.000000000000000000e+00,2.000000000000000000e+00,-1.000000000000000000e+01,1.000000000000000000e+00,2.583618164062500000e-01,-4.024047851562500000e-01,-3.105468750000000000e-01,-8.215942382812500000e-01
3.000000000000000000e+00,5.000000000000000000e+00,-7.000000000000000000e+00,-4.000000000000000000e+00,-1.200000000000000000e+01,6.000000000000000000e+00,1.400000000000000000e+01,2.000000000000000000e+00,2.583618164062500000e-01,-4.024047851562500000e-01,-3.105468750000000000e-01,-8.215942382812500000e-01
-7.000000000000000000e+00,-7.000000000000000000e+00,-1.200000000000000000e+01,1.200000000000000000e+01,5.000000000000000000e+00,-4.000000000000000000e+00,0.000000000000000000e+00,-5.000000000000000000e+00,2.583618164062500000e-01,-4.024047851562500000e-01,-3.105468750000000000e-01,-8.215942382812500000e-01
-3.000000000000000000e+00,-6.000000000000000000e+00,1.100000000000000000e+01,-1.400000000000000000e+01,-1.100000000000000000e+01,-1.000000000000000000e+01,-9.000000000000000000e+00,-1.000000000000000000e+00,2.583618164062500000e-01,-4.024047851562500000e-01,-3.105468750000000000e-01,-8.215942382812500000e-01
-1.000000000000000000e+00,-2.000000000000000000e+00,2.300000000000000000e+01,1.300000000000000000e+01,1.200000000000000000e+01,6.000000000000000000e+00,2.000000000000000000e+00,1.000000000000000000e+00,2.587280273437500000e-01,-4.027099609375000000e-01,-3.106689453125000000e-01,-8.212280273437500000e-01
-3.000000000000000000e+00,1.000000000000000000e+00,1.700000000000000000e+01,-5.000000000000000000e+00,-3.000000000000000000e+00,-5.000000000000000000e+00,-1.000000000000000000e+01,-2.000000000000000000e+00,2.587280273437500000e-01,-4.027099609375000000e-01,-3.106689453125000000e-01,-8.212280273437500000e-01
-4.000000000000000000e+00,-5.000000000000000000e+00,-3.200000000000000000e+01,-9.000000000000000000e+00,-1.500000000000000000e+01,-7.000000000000000000e+00,-5.000000000000000000e+00,0.000000000000000000e+00,2.587280273437500000e-01,-4.027099609375000000e-01,-3.106689453125000000e-01,-8.212280273437500000e-01
0.000000000000000000e+00,2.000000000000000000e+00,-8.000000000000000000e+00,1.300000000000000000e+01,2.000000000000000000e+01,3.000000000000000000e+00,-3.000000000000000000e+00,-1.000000000000000000e+00,2.587280273437500000e-01,-4.027099609375000000e-01,-3.106689453125000000e-01,-8.212280273437500000e-01
0.000000000000000000e+00,-2.000000000000000000e+00,-2.000000000000000000e+00,-5.000000000000000000e+00,-1.000000000000000000e+01,-1.000000000000000000e+00,1.000000000000000000e+00,-2.000000000000000000e+00,2.590332031250000000e-01,-4.036254882812500000e-01,-3.105468750000000000e-01,-8.207397460937500000e-01
0.000000000000000000e+00,4.000000000000000000e+00,7.000000000000000000e+00,1.800000000000000000e+01,1.200000000000000000e+01,-5.000000000000000000e+00,-7.000000000000000000e+00,-3.000000000000000000e+00,2.590332031250000000e-01,-4.036254882812500000e-01,-3.105468750000000000e-01,-8.207397460937500000e-01
-1.000000000000000000e+00,-5.000000000000000000e+00,-1.900000000000000000e+01,-2.300000000000000000e+01,-8.000000000000000000e+00,2.000000000000000000e+00,2.000000000000000000e+00,0.000000000000000000e+00,2.590332031250000000e-01,-4.036254882812500000e-01,-3.105468750000000000e-01,-8.207397460937500000e-01
0.000000000000000000e+00,8.000000000000000000e+00,-4.000000000000000000e+00,-8.000000000000000000e+00,-2.000000000000000000e+00,-1.200000000000000000e+01,-1.300000000000000000e+01,0.000000000000000000e+00,2.590332031250000000e-01,-4.036254882812500000e-01,-3.105468750000000000e-01,-8.207397460937500000e-01
-3.000000000000000000e+00,-5.000000000000000000e+00,-1.700000000000000000e+01,2.100000000000000000e+01,5.000000000000000000e+00,8.000000000000000000e+00,7.000000000000000000e+00,0.000000000000000000e+00,2.588500976562500000e-01,-4.052124023437500000e-01,-3.099365234375000000e-01,-8.202514648437500000e-01
-3.000000000000000000e+00,-8.000000000000000000e+00,-1.200000000000000000e+01,-3.300000000000000000e+01,-5.000000000000000000e+00,2.000000000000000000e+00,1.000000000000000000e+00,0.000000000000000000e+00,2.588500976562500000e-01,-4.052124023437500000e-01,-3.099365234375000000e-01,-8.202514648437500000e-01
2.000000000000000000e+00,2.000000000000000000e+00,1.500000000000000000e+01,3.100000000000000000e+01,3.000000000000000000e+00,-2.000000000000000000e+00,-1.600000000000000000e+01,-2.000000000000000000e+00,2.588500976562500000e-01,-4.052124023437500000e-01,-3.099365234375000000e-01,-8.202514648437500000e-01
-5.000000000000000000e+00,-7.000000000000000000e+00,-2.300000000000000000e+01,-2.400000000000000000e+01,-9.000000000000000000e+00,-1.000000000000000000e+01,9.000000000000000000e+00,-5.000000000000000000e+00,2.588500976562500000e-01,-4.052124023437500000e-01,-3.099365234375000000e-01,-8.202514648437500000e-01
2.000000000000000000e+00,7.000000000000000000e+00,9.000000000000000000e+00,-1.700000000000000000e+01,0.000000000000000000e+00,1.000000000000000000e+01,1.000000000000000000e+00,2.000000000000000000e+00,2.593383789062500000e-01,-4.063720703125000000e-01,-3.097534179687500000e-01,-8.195800781250000000e-01
4.000000000000000000e+00,4.000000000000000000e+00,5.000000000000000000e+00,1.200000000000000000e+01,-3.000000000000000000e+00,3.000000000000000000e+00,-2.000000000000000000e+00,3.000000000000000000e+00,2.593383789062500000e-01,-4.063720703125000000e-01,-3.097534179687500000e-01,-8.195800781250000000e-01
-1.000000000000000000e+00,-5.000000000000000000e+00,-1.100000000000000000e+01,-3.000000000000000000e+01,-1.200000000000000000e+01,-6.000000000000000000e+00,-4.000000000000000000e+00,-3.000000000000000000e+00,2.593383789062500000e-01,-4.063720703125000000e-01,-3.097534179687500000e-01,-8.195800781250000000e-01
-2.000000000000000000e+00,1.000000000000000000e+00,2.000000000000000000e+01,2.700000000000000000e+01,1.000000000000000000e+00,-6.000000000000000000e+00,-4.000000000000000000e+00,-2.000000000000000000e+00,2.593383789062500000e-01,-4.063720703125000000e-01,-3.097534179687500000e-01,-8.195800781250000000e-01
-2.000000000000000000e+00,-4.000000000000000000e+00,5.000000000000000000e+00,3.000000000000000000e+00,0.000000000000000000e+00,-5.000000000000000000e+00,-2.000000000000000000e+00,-3.000000000000000000e+00,2.604980468750000000e-01,-4.072265625000000000e-01,-3.098754882812500000e-01,-8.187255859375000000e-01
4.000000000000000000e+00,1.000000000000000000e+00,-1.100000000000000000e+01,1.300000000000000000e+01,1.100000000000000000e+01,5.000000000000000000e+00,-1.000000000000000000e+00,0.000000000000000000e+00,2.604980468750000000e-01,-4.072265625000000000e-01,-3.098754882812500000e-01,-8.187255859375000000e-01
-4.000000000000000000e+00,-7.000000000000000000e+00,-2.800000000000000000e+01,-1.500000000000000000e+01,5.000000000000000000e+00,1.000000000000000000e+00,3.000000000000000000e+00,-1.000000000000000000e+00,2.604980468750000000e-01,-4.072265625000000000e-01,-3.098754882812500000e-01,-8.187255859375000000e-01
0.000000000000000000e+00,-1.000000000000000000e+00,-4.000000000000000000e+00,-2.200000000000000000e+01,-1.800000000000000000e+01,-3.000000000000000000e+00,-4.000000000000000000e+00,-2.000000000000000000e+00,2.604980468750000000e-01,-4.072265625000000000e-01,-3.098754882812500000e-01,-8.187255859375000000e-01
-3.000000000000000000e+00,5.000000000000000000e+00,1.500000000000000000e+01,1.100000000000000000e+01,6.000000000000000000e+00,1.000000000000000000e+00,1.000000000000000000e+00,-2.000000000000000000e+00,2.604370117187500000e-01,-4.082031250000000000e-01,-3.099365234375000000e-01,-8.182983398437500000e-01
-4.000000000000000000e+00,-5.000000000000000000e+00,-2.200000000000000000e+01,1.000000000000000000e+00,-8.000000000000000000e+00,-4.000000000000000000e+00,-2.000000000000000000e+00,-2.000000000000000000e+00,2.604370117187500000e-01,-4.082031250000000000e-01,-3.099365234375000000e-01,-8.182983398437500000e-01
3.000000000000000000e+00,5.000000000000000000e+00,3.000000000000000000e+00,-2.000000000000000000e+00,-5.000000000000000000e+00,0.000000000000000000e+00,-5.000000000000000000e+00,1.000000000000000000e+00,2.604370117187500000e-01,-4.082031250000000000e-01,-3.099365234375000000e-01,-8.182983398437500000e-01
-1.000000000000000000e+00,0.000000000000000000e+00,-3.000000000000000000e+00,1.100000000000000000e+01,1.000000000000000000e+01,-3.000000000000000000e+00,1.100000000000000000e+01,1.000000000000000000e+00,2.604370117187500000e-01,-4.082031250000000000e-01,-3.099365234375000000e-01,-8.182983398437500000e-01
-1.000000000000000000e+00,0.000000000000000000e+00,-1.100000000000000000e+01,3.200000000000000000e+01,9.000000000000000000e+00,1.500000000000000000e+01,1.100000000000000000e+01,0.000000000000000000e+00,2.598876953125000000e-01,-4.086914062500000000e-01,-3.105468750000000000e-01,-8.179321289062500000e-01
2.000000000000000000e+00,4.000000000000000000e+00,-3.000000000000000000e+01,-7.500000000000000000e+01,-2.400000000000000000e+01,-3.000000000000000000e+00,1.000000000000000000e+00,3.000000000000000000e+00,2.598876953125000000e-01,-4.086914062500000000e-01,-3.105468750000000000e-01,-8.179321289062500000e-01
-2.000000000000000000e+00,2.000000000000000000e+00,1.700000000000000000e+01,1.000000000000000000e+01,6.000000000000000000e+00,8.000000000000000000e+00,-1.000000000000000000e+00,0.000000000000000000e+00,2.598876953125000000e-01,-4.086914062500000000e-01,-3.105468750000000000e-01,-8.179321289062500000e-01
1.000000000000000000e+00,1.000000000000000000e+00,-3.000000000000000000e+00,-9.000000000000000000e+00,-4.000000000000000000e+00,6.000000000000000000e+00,7.000000000000000000e+00,1.000000000000000000e+00,2.598876953125000000e-01,-4.086914062500000000e-01,-3.105468750000000000e-01,-8.179321289062500000e-01
0.000000000000000000e+00,-2.000000000000000000e+00,-1.700000000000000000e+01,1.100000000000000000e+01,8.000000000000000000e+00,-1.200000000000000000e+01,-8.000000000000000000e+00,-4.000000000000000000e+00,2.591552734375000000e-01,-4.086303710937500000e-01,-3.113403320312500000e-01,-8.179321289062500000e-01
-4.000000000000000000e+00,-1.000000000000000000e+00,2.300000000000000000e+01,1.200000000000000000e+01,0.000000000000000000e+00,-2.000000000000000000e+00,-1.000000000000000000e+00,-4.000000000000000000e+00,2.591552734375000000e-01,-4.086303710937500000e-01,-3.113403320312500000e-01,-8.179321289062500000e-01
0.000000000000000000e+00,0.000000000000000000e+00,-4.000000000000000000e+00,-4.400000000000000000e+01,-4.000000000000000000e+00,1.000000000000000000e+00,1.000000000000000000e+00,0.000000000000000000e+00,2.591552734375000000e-01,-4.086303710937500000e-01,-3.113403320312500000e-01,-8.179321289062500000e-01
1.000000000000000000e+00,3.000000000000000000e+00,3.200000000000000000e+01,7.000000000000000000e+01,2.900000000000000000e+01,5.000000000000000000e+00,-7.000000000000000000e+00,0.000000000000000000e+00,2.591552734375000000e-01,-4.086303710937500000e-01,-3.113403320312500000e-01,-8.179321289062500000e-01
-2.000000000000000000e+00,-1.000000000000000000e+00,-4.700000000000000000e+01,-7.000000000000000000e+00,-2.000000000000000000e+00,-7.000000000000000000e+00,-1.000000000000000000e+00,1.000000000000000000e+00,2.575073242187500000e-01,-4.085693359375000000e-01,-3.116455078125000000e-01,-8.183593750000000000e-01
-1.000000000000000000e+00,-8.000000000000000000e+00,-2.300000000000000000e+01,-8.000000000000000000e+00,-6.000000000000000000e+00,-3.000000000000000000e+00,-5.000000000000000000e+00,-3.000000000000000000e+00,2.575073242187500000e-01,-4.085693359375000000e-01,-3.116455078125000000e-01,-8.183593750000000000e-01
-2.000000000000000000e+00,-1.000000000000000000e+00,2.000000000000000000e+00,-1.800000000000000000e+01,-2.000000000000000000e+01,-8.000000000000000000e+00,0.000000000000000000e+00,-2.000000000000000000e+00,2.575073242187500000e-01,-4.085693359375000000e-01,-3.116455078125000000e-01,-8.183593750000000000e-01
1.000000000000000000e+00,0.000000000000000000e+00,9.000000000000000000e+00,6.000000000000000000e+00,5.000000000000000000e+00,3.000000000000000000e+00,-1.000000000000000000e+00,0.000000000000000000e+00,2.575073242187500000e-01,-4.085693359375000000e-01,-3.116455078125000000e-01,-8.183593750000000000e-01
2.000000000000000000e+00,6.000000000000000000e+00,1.900000000000000000e+01,1.200000000000000000e+01,3.000000000000000000e+00,1.000000000000000000e+00,1.000000000000000000e+00,0.000000000000000000e+00,2.554931640625000000e-01,-4.084472656250000000e-01,-3.119506835937500000e-01,-8.189697265625000000e-01
-3.000000000000000000e+00,1.000000000000000000e+00,6.000000000000000000e+00,-7.000000000000000000e+00,-2.000000000000000000e+00,-2.000000000000000000e+00,-2.000000000000000000e+00,-2.000000000000000000e+00,2.554931640625000000e-01,-4.084472656250000000e-01,-3.119506835937500000e-01,-8.189697265625000000e-01
-2.000000000000000000e+00,-2.000000000000000000e+00,2.000000000000000000e+00,8.000000000000000000e+00,-4.000000000000000000e+00,-5.000000000000000000e+00,0.000000000000000000e+00,-3.000000000000000000e+00,2.554931640625000000e-01,-4.084472656250000000e-01,-3.119506835937500000e-01,-8.189697265625000000e-01
-2.000000000000000000e+00,-1.000000000000000000e+01,-3.700000000000000000e+01,-5.800000000000000000e+01,-2.700000000000000000e+01,-7.000000000000000000e+00,-2.000000000000000000e+00,-1.000000000000000000e+00,2.554931640625000000e-01,-4.084472656250000000e-01,-3.119506835937500000e-01,-8.189697265625000000e-01
-5.000000000000000000e+00,-1.300000000000000000e+01,-1.100000000000000000e+01,-1.200000000000000000e+01,-1.000000000000000000e+00,-6.000000000000000000e+00,-1.400000000000000000e+01,-3.000000000000000000e+00,2.543945312500000000e-01,-4.077148437500000000e-01,-3.125610351562500000e-01,-8.193969726562500000e-01
6.000000000000000000e+00,1.300000000000000000e+01,2.000000000000000000e+01,2.600000000000000000e+01,-1.000000000000000000e+00,-1.500000000000000000e+01,-1.100000000000000000e+01,0.000000000000000000e+00,2.543945312500000000e-01,-4.077148437500000000e-01,-3.125610351562500000e-01,-8.193969726562500000e-01
-3.000000000000000000e+00,-6.000000000000000000e+00,1.600000000000000000e+01,2.300000000000000000e+01,7.000000000000000000e+00,2.300000000000000000e+01,2.700000000000000000e+01,0.000000000000000000e+00,2.543945312500000000e-01,-4.077148437500000000e-01,-3.125610351562500000e-01,-8.193969726562500000e-01
-4.000000000000000000e+00,-3.000000000000000000e+00,3.000000000000000000e+00,-2.000000000000000000e+01,-6.000000000000000000e+00,8.000000000000000000e+00,2.000000000000000000e+00,0.000000000000000000e+00,2.543945312500000000e-01,-4.077148437500000000e-01,-3.125610351562500000e-01,-8.193969726562500000e-01
0.000000000000000000e+00,4.000000000000000000e+00,-1.300000000000000000e+01,-1.900000000000000000e+01,0.000000000000000000e+00,-4.000000000000000000e+00,-4.000000000000000000e+00,-1.000000000000000000e+00,2.539062500000000000e-01,-4.067382812500000000e-01,-3.129882812500000000e-01,-8.198852539062500000e-01
-3.000000000000000000e+00,-5.000000000000000000e+00,1.200000000000000000e+01,2.000000000000000000e+01,2.000000000000000000e+00,-8.000000000000000000e+00,-1.100000000000000000e+01,-2.000000000000000000e+00,2.539062500000000000e-01,-4.067382812500000000e-01,-3.129882812500000000e-01,-8.198852539062500000e-01
5.000000000000000000e+00,1.300000000000000000e+01,-6.000000000000000000e+00,-2.800000000000000000e+01,-1.100000000000000000e+01,-1.100000000000000000e+01,-7.000000000000000000e+00,-1.000000000000000000e+00,2.539062500000000000e-01,-4.067382812500000000e-01,-3.129882812500000000e-01,-8.198852539062500000e-01
-3.000000000000000000e+00,-1.200000000000000000e+01,-2.000000000000000000e+01,2.900000000000000000e+01,1.500000000000000000e+01,2.000000000000000000e+00,1.000000000000000000e+00,-1.000000000000000000e+00,2.539062500000000000e-01,-4.067382812500000000e-01,-3.129882812500000000e-01,-8.198852539062500000e-01
-2.000000000000000000e+00,-4.000000000000000000e+00,-1.100000000000000000e+01,-8.000000000000000000e+00,-1.100000000000000000e+01,-2.000000000000000000e+00,1.000000000000000000e+00,-1.000000000000000000e+00,2.537231445312500000e-01,-4.060668945312500000e-01,-3.131103515625000000e-01,-8.202514648437500000e-01
-2.000000000000000000e+00,-3.000000000000000000e+00,2.200000000000000000e+01,3.000000000000000000e+01,1.100000000000000000e+01,4.000000000000000000e+00,3.000000000000000000e+00,-5.000000000000000000e+00,2.537231445312500000e-01,-4.060668945312500000e-01,-3.131103515625000000e-01,-8.202514648437500000e-01
-2.000000000000000000e+00,-4.000000000000000000e+00,-3.700000000000000000e+01,-1.700000000000000000e+01,0.000000000000000000e+00,-5.000000000000000000e+00,-5.000000000000000000e+00,-2.000000000000000000e+00,2.537231445312500000e-01,-4.060668945312500000e-01,-3.131103515625000000e-01,-8.202514648437500000e-01
-1.000000000000000000e+00,-5.000000000000000000e+00,1.700000000000000000e+01,-2.800000000000000000e+01,-1.600000000000000000e+01,-1.000000000000000000e+00,-3.000000000000000000e+00,-3.000000000000000000e+00,2.537231445312500000e-01,-4.060668945312500000e-01,-3.131103515625000000e-01,-8.202514648437500000e-01
-2.000000000000000000e+00,-6.000000000000000000e+00,-1.300000000000000000e+01,1.000000000000000000e+00,-9.000000000000000000e+00,-4.000000000000000000e+00,-1.000000000000000000e+00,0.000000000000000000e+00,2.535400390625000000e-01,-4.060058593750000000e-01,-3.131103515625000000e-01,-8.203125000000000000e-01
-2.000000000000000000e+00,-3.000000000000000000e+00,1.800000000000000000e+01,2.000000000000000000e+00,2.000000000000000000e+00,2.000000000000000000e+00,6.000000000000000000e+00,0.000000000000000000e+00,2.535400390625000000e-01,-4.060058593750000000e-01,-3.131103515625000000e-01,-8.203125000000000000e-01
-2.000000000000000000e+00,-2.000000000000000000e+00,-3.700000000000000000e+01,1.300000000000000000e+01,0.000000000000000000e+00,-3.000000000000000000e+00,-2.000000000000000000e+00,-2.000000000000000000e+00,2.535400390625000000e-01,-4.060058593750000000e-01,-3.131103515625000000e-01,-8.203125000000000000e-01
-1.000000000000000000e+00,1.000000000000000000e+00,-1.100000000000000000e+01,-1.000000000000000000e+01,-7.000000000000000000e+00,-6.000000000000000000e+00,-7.000000000000000000e+00,-1.000000000000000000e+00,2.535400390625000000e-01,-4.060058593750000000e-01,-3.131103515625000000e-01,-8.203125000000000000e-01
-2.000000000000000000e+00,1.000000000000000000e+00,3.600000000000000000e+01,-5.000000000000000000e+00,-8.000000000000000000e+00,-1.000000000000000000e+00,3.000000000000000000e+00,0.000000000000000000e+00,2.532958984375000000e-01,-4.060668945312500000e-01,-3.129882812500000000e-01,-8.203735351562500000e-01
-2.000000000000000000e+00,0.000000000000000000e+00,-1.100000000000000000e+01,2.700000000000000000e+01,1.900000000000000000e+01,9.000000000000000000e+00,4.000000000000000000e+00,1.000000000000000000e+00,2.532958984375000000e-01,-4.060668945312500000e-01,-3.129882812500000000e-01,-8.203735351562500000e-01
-4.000000000000000000e+00,-9.000000000000000000e+00,2.000000000000000000e+01,1.000000000000000000e+00,-3.000000000000000000e+00,-2.000000000000000000e+01,-1.900000000000000000e+01,-4.000000000000000000e+00,2.532958984375000000e-01,-4.060668945312500000e-01,-3.129882812500000000e-01,-8.203735351562500000e-01
2.000000000000000000e+00,1.300000000000000000e+01,8.000000000000000000e+00,8.000000000000000000e+00,5.000000000000000000e+00,1.500000000000000000e+01,1.200000000000000000e+01,3.000000000000000000e+00,2.532958984375000000e-01,-4.060668945312500000e-01,-3.129882812500000000e-01,-8.203735351562500000e-01
1.000000000000000000e+00,-8.000000000000000000e+00,-6.000000000000000000e+00,2.800000000000000000e+01,3.000000000000000000e+00,1.300000000000000000e+01,1.600000000000000000e+01,3.000000000000000000e+00,2.529296875000000000e-01,-4.062500000000000000e-01,-3.126831054687500000e-01,-8.205566406250000000e-01
1.000000000000000000e+00,4.000000000000000000e+00,-2.000000000000000000e+01,-5.900000000000000000e+01,-1.500000000000000000e+01,2.000000000000000000e+00,2.000000000000000000e+00,0.000000000000000000e+00,2.529296875000000000e-01,-4.062500000000000000e-01,-3.126831054687500000e-01,-8.205566406250000000e-01
2.000000000000000000e+00,7.000000000000000000e+00,1.400000000000000000e+01,7.000000000000000000e+00,-9.000000000000000000e+00,0.000000000000000000e+00,-2.000000000000000000e+00,3.000000000000000000e+00,2.529296875000000000e-01,-4.062500000000000000e-01,-3.126831054687500000e-01,-8.205566406250000000e-01
-3.000000000000000000e+00,-2.000000000000000000e+00,3.000000000000000000e+00,1.600000000000000000e+01,9.000000000000000000e+00,-1.000000000000000000e+01,-7.000000000000000000e+00,-2.000000000000000000e+00,2.529296875000000000e-01,-4.062500000000000000e-01,-3.126831054687500000e-01,-8.205566406250000000e-01
-1.000000000000000000e+00,8.000000000000000000e+00,2.900000000000000000e+01,-2.200000000000000000e+01,-8.000000000000000000e+00,-7.000000000000000000e+00,-5.000000000000000000e+00,-1.000000000000000000e+00,2.532958984375000000e-01,-4.069824218750000000e-01,-3.128662109375000000e-01,-8.200073242187500000e-01
-6.000000000000000000e+00,-1.400000000000000000e+01,-6.200000000000000000e+01,-1.000000000000000000e+01,4.000000000000000000e+00,5.000000000000000000e+00,1.000000000000000000e+00,-1.000000000000000000e+00,2.532958984375000000e-01,-4.069824218750000000e-01,-3.128662109375000000e-01,-8.200073242187500000e-01
-2.000000000000000000e+00,-3.000000000000000000e+00,-3.000000000000000000e+00,4.200000000000000000e+01,1.100000000000000000e+01,2.000000000000000000e+00,1.000000000000000000e+00,-4.000000000000000000e+00,2.532958984375000000e-01,-4.069824218750000000e-01,-3.128662109375000000e-01,-8.200073242187500000e-01
0.000000000000000000e+00,-1.000000000000000000e+00,-5.000000000000000000e+00,-1.500000000000000000e+01,-1.600000000000000000e+01,-6.000000000000000000e+00,-4.000000000000000000e+00,-3.000000000000000000e+00,2.532958984375000000e-01,-4.069824218750000000e-01,-3.128662109375000000e-01,-8.200073242187500000e-01
1.000000000000000000e+00,1.000000000000000000e+00,2.000000000000000000e+00,8.000000000000000000e+00,2.500000000000000000e+01,6.000000000000000000e+00,0.000000000000000000e+00,0.000000000000000000e+00,2.539672851562500000e-01,-4.077758789062500000e-01,-3.134765625000000000e-01,-8.191528320312500000e-01
0.000000000000000000e+00,2.000000000000000000e+00,-5.000000000000000000e+00,-1.200000000000000000e+01,-7.000000000000000000e+00,-5.000000000000000000e+00,-4.000000000000000000e+00,-1.000000000000000000e+00,2.539672851562500000e-01,-4.077758789062500000e-01,-3.134765625000000000e-01,-8.191528320312500000e-01
1.000000000000000000e+00,7.000000000000000000e+00,3.100000000000000000e+01,2.700000000000000000e+01,6.000000000000000000e+00,5.000000000000000000e+00,4.000000000000000000e+00,3.000000000000000000e+00,2.539672851562500000e-01,-4.077758789062500000e-01,-3.134765625000000000e-01,-8.191528320312500000e-01
0.000000000000000000e+00,-5.000000000000000000e+00,-2.000000000000000000e+00,-8.000000000000000000e+00,-3.000000000000000000e+00,3.000000000000000000e+00,0.000000000000000000e+00,-1.000000000000000000e+00,2.539672851562500000e-01,-4.077758789062500000e-01,-3.134765625000000000e-01,-8.191528320312500000e-01
1.000000000000000000e+00,0.000000000000000000e+00,-1.000000000000000000e+00,1.500000000000000000e+01,-3.000000000000000000e+00,-2.800000000000000000e+01,-1.700000000000000000e+01,-2.000000000000000000e+00,2.555541992187500000e-01,-4.078369140625000000e-01,-3.142700195312500000e-01,-8.183593750000000000e-01
-5.000000000000000000e+00,-9.000000000000000000e+00,-2.200000000000000000e+01,-1.400000000000000000e+01,3.000000000000000000e+00,1.800000000000000000e+01,1.300000000000000000e+01,-5.000000000000000000e+00,2.555541992187500000e-01,-4.078369140625000000e-01,-3.142700195312500000e-01,-8.183593750000000000e-01
7.000000000000000000e+00,8.000000000000000000e+00,-5.000000000000000000e+01,-5.400000000000000000e+01,-9.000000000000000000e+00,1.600000000000000000e+01,1.700000000000000000e+01,7.000000000000000000e+00,2.555541992187500000e-01,-4.078369140625000000e-01,-3.142700195312500000e-01,-8.183593750000000000e-01
7.000000000000000000e+00,8.000000000000000000e+00,5.000000000000000000e+00,5.300000000000000000e+01,2.000000000000000000e+01,1.900000000000000000e+01,1.200000000000000000e+01,3.000000000000000000e+00,2.555541992187500000e-01,-4.078369140625000000e-01,-3.142700195312500000e-01,-8.183593750000000000e-01
-8.000000000000000000e+00,-1.000000000000000000e+01,-8.000000000000000000e+00,-4.800000000000000000e+01,-1.400000000000000000e+01,-9.000000000000000000e+00,-5.000000000000000000e+00,-8.000000000000000000e+00,2.564697265625000000e-01,-4.077758789062500000e-01,-3.145141601562500000e-01,-8.179321289062500000e-01
-1.400000000000000000e+01,-5.000000000000000000e+00,1.800000000000000000e+01,2.200000000000000000e+01,1.000000000000000000e+00,-6.000000000000000000e+00,3.000000000000000000e+00,3.000000000000000000e+00,2.564697265625000000e-01,-4.077758789062500000e-01,-3.145141601562500000e-01,-8.179321289062500000e-01
-2.000000000000000000e+00,-3.000000000000000000e+00,2.000000000000000000e+00,-5.000000000000000000e+00,0.000000000000000000e+00,-1.200000000000000000e+01,-1.200000000000000000e+01,-5.000000000000000000e+00,2.564697265625000000e-01,-4.077758789062500000e-01,-3.145141601562500000e-01,-8.179321289062500000e-01
-1.000000000000000000e+00,-1.000000000000000000e+00,2.300000000000000000e+01,3.400000000000000000e+01,4.000000000000000000e+00,-1.000000000000000000e+00,0.000000000000000000e+00,-2.000000000000000000e+00,2.564697265625000000e-01,-4.077758789062500000e-01,-3.145141601562500000e-01,-8.179321289062500000e-01
0.000000000000000000e+00,-3.000000000000000000e+00,-2.400000000000000000e+01,1.500000000000000000e+01,3.000000000000000000e+00,1.000000000000000000e+00,-3.000000000000000000e+00,0.000000000000000000e+00,2.568359375000000000e-01,-4.082031250000000000e-01,-3.140258789062500000e-01,-8.178710937500000000e-01
7.000000000000000000e+00,8.000000000000000000e+00,4.000000000000000000e+01,-4.000000000000000000e+00,2.000000000000000000e+00,-2.000000000000000000e+00,-3.000000000000000000e+00,-1.000000000000000000e+00,2.568359375000000000e-01,-4.082031250000000000e-01,-3.140258789062500000e-01,-8.178710937500000000e-01
0.000000000000000000e+00,2.000000000000000000e+00,2.800000000000000000e+01,1.200000000000000000e+01,5.000000000000000000e+00,2.000000000000000000e+00,2.000000000000000000e+00,1.000000000000000000e+00,2.568359375000000000e-01,-4.082031250000000000e-01,-3.140258789062500000e-01,-8.178710937500000000e-01
-4.000000000000000000e+00,-4.000000000000000000e+00,-6.900000000000000000e+01,-4.900000000000000000e+01,-8.000000000000000000e+00,-7.000000000000000000e+00,-8.000000000000000000e+00,-2.000000000000000000e+00,2.568359375000000000e-01,-4.082031250000000000e-01,-3.140258789062500000e-01,-8.178710937500000000e-01
0.000000000000000000e+00,-6.000000000000000000e+00,3.200000000000000000e+01,1.200000000000000000e+01,-1.000000000000000000e+01,-2.000000000000000000e+00,0.000000000000000000e+00,0.000000000000000000e+00,2.565307617187500000e-01,-4.089355468750000000e-01,-3.135375976562500000e-01,-8.177490234375000000e-01
1.000000000000000000e+00,5.000000000000000000e+00,2.700000000000000000e+01,1.200000000000000000e+01,-7.000000000000000000e+00,0.000000000000000000e+00,-5.000000000000000000e+00,0.000000000000000000e+00,2.565307617187500000e-01,-4.089355468750000000e-01,-3.135375976562500000e-01,-8.177490234375000000e-01
1.000000000000000000e+00,-6.000000000000000000e+00,6.000000000000000000e+00,-5.000000000000000000e+00,-8.000000000000000000e+00,1.000000000000000000e+00,2.000000000000000000e+00,2.000000000000000000e+00,2.565307617187500000e-01,-4.089355468750000000e-01,-3.135375976562500000e-01,-8.177490234375000000e-01
1.000000000000000000e+00,2.000000000000000000e+00,1.400000000000000000e+01,-1.600000000000000000e+01,-9.000000000000000000e+00,-4.000000000000000000e+00,-3.000000000000000000e+00,-1.000000000000000000e+00,2.565307617187500000e-01,-4.089355468750000000e-01,-3.135375976562500000e-01,-8.177490234375000000e-01
-5.000000000000000000e+00,-2.000000000000000000e+00,1.800000000000000000e+01,-8.000000000000000000e+00,2.000000000000000000e+00,-2.000000000000000000e+00,1.000000000000000000e+00,-1.000000000000000000e+00,2.562255859375000000e-01,-4.096679687500000000e-01,-3.134765625000000000e-01,-8.175048828125000000e-01
-4.000000000000000000e+00,-9.000000000000000000e+00,-4.600000000000000000e+01,-1.500000000000000000e+01,-1.600000000000000000e+01,-2.000000000000000000e+01,-1.000000000000000000e+01,-6.000000000000000000e+00,2.562255859375000000e-01,-4.096679687500000000e-01,-3.134765625000000000e-01,-8.175048828125000000e-01
6.000000000000000000e+00,5.000000000000000000e+00,1.700000000000000000e+01,-9.000000000000000000e+00,5.000000000000000000e+00,2.600000000000000000e+01,1.800000000000000000e+01,5.000000000000000000e+00,2.562255859375000000e-01,-4.096679687500000000e-01,-3.134765625000000000e-01,-8.175048828125000000e-01
-8.000000000000000000e+00,-6.000000000000000000e+00,-1.400000000000000000e+01,3.000000000000000000e+00,-3.000000000000000000e+00,-7.000000000000000000e+00,-7.000000000000000000e+00,-4.000000000000000000e+00,2.562255859375000000e-01,-4.096679687500000000e-01,-3.134765625000000000e-01,-8.175048828125000000e-01
1.000000000000000000e+00,4.000000000000000000e+00,1.200000000000000000e+01,8.000000000000000000e+00,8.000000000000000000e+00,0.000000000000000000e+00,-8.000000000000000000e+00,2.000000000000000000e+00,2.561645507812500000e-01,-4.097290039062500000e-01,-3.137817382812500000e-01,-8.173828125000000000e-01
4.000000000000000000e+00,9.000000000000000000e+00,3.700000000000000000e+01,2.700000000000000000e+01,6.000000000000000000e+00,1.000000000000000000e+00,1.200000000000000000e+01,1.000000000000000000e+00,2.561645507812500000e-01,-4.097290039062500000e-01,-3.137817382812500000e-01,-8.173828125000000000e-01
0.000000000000000000e+00,-4.000000000000000000e+00,-4.200000000000000000e+01,-2.000000000000000000e+01,3.000000000000000000e+00,4.000000000000000000e+00,-3.000000000000000000e+00,1.000000000000000000e+00,2.561645507812500000e-01,-4.097290039062500000e-01,-3.137817382812500000e-01,-8.173828125000000000e-01
-6.000000000000000000e+00,-6.000000000000000000e+00,5.000000000000000000e+00,-1.900000000000000000e+01,-8.000000000000000000e+00,-6.000000000000000000e+00,-2.000000000000000000e+00,-7.000000000000000000e+00,2.561645507812500000e-01,-4.097290039062500000e-01,-3.137817382812500000e-01,-8.173828125000000000e-01
0.000000000000000000e+00,5.000000000000000000e+00,-7.000000000000000000e+00,-9.000000000000000000e+00,-5.000000000000000000e+00,5.000000000000000000e+00,4.000000000000000000e+00,-2.000000000000000000e+00,2.561035156250000000e-01,-4.097290039062500000e-01,-3.138427734375000000e-01,-8.173828125000000000e-01
4.000000000000000000e+00,0.000000000000000000e+00,1.700000000000000000e+01,2.200000000000000000e+01,-2.400000000000000000e+01,-1.300000000000000000e+01,-8.000000000000000000e+00,1.000000000000000000e+00,2.561035156250000000e-01,-4.097290039062500000e-01,-3.138427734375000000e-01,-8.173828125000000000e-01
-3.000000000000000000e+00,-3.000000000000000000e+00,2.000000000000000000e+00,2.000000000000000000e+01,2.400000000000000000e+01,-5.000000000000000000e+00,-5.000000000000000000e+00,-2.000000000000000000e+00,2.561035156250000000e-01,-4.097290039062500000e-01,-3.138427734375000000e-01,-8.173828125000000000e-01
2.000000000000000000e+00,-1.000000000000000000e+00,2.500000000000000000e+01,0.000000000000000000e+00,0.000000000000000000e+00,2.000000000000000000e+00,3.000000000000000000e+00,0.000000000000000000e+00,2.561035156250000000e-01,-4.097290039062500000e-01,-3.138427734375000000e-01,-8.173828125000000000e-01
1.200000000000000000e+01,5.000000000000000000e+00,-4.300000000000000000e+01,-1.000000000000000000e+00,1.300000000000000000e+01,1.000000000000000000e+00,0.000000000000000000e+00,0.000000000000000000e+00,2.555541992187500000e-01,-4.103393554687500000e-01,-3.135986328125000000e-01,-8.173828125000000000e-01
-2.500000000000000000e+01,-3.000000000000000000e+00,1.200000000000000000e+01,-1.600000000000000000e+01,-1.200000000000000000e+01,0.000000000000000000e+00,-3.000000000000000000e+00,-4.000000000000000000e+00,2.555541992187500000e-01,-4.103393554687500000e-01,-3.135986328125000000e-01,-8.173828125000000000e-01
-7.000000000000000000e+00,-1.100000000000000000e+01,-3.000000000000000000e+00,1.200000000000000000e+01,0.000000000000000000e+00,-2.000000000000000000e+00,-1.000000000000000000e+00,-6.000000000000000000e+00,2.555541992187500000e-01,-4.103393554687500000e-01,-3.135986328125000000e-01,-8.173828125000000000e-01
-3.000000000000000000e+00,-3.000000000000000000e+00,-1.300000000000000000e+01,-3.800000000000000000e+01,-1.400000000000000000e+01,-9.000000000000000000e+00,-6.000000000000000000e+00,2.000000000000000000e+00,2.555541992187500000e-01,-4.103393554687500000e-01,-3.135986328125000000e-01,-8.173828125000000000e-01
1.000000000000000000e+00,-1.000000000000000000e+00,-7.000000000000000000e+00,-3.000000000000000000e+00,-7.000000000000000000e+00,1.000000000000000000e+00,3.000000000000000000e+00,-2.000000000000000000e+00,2.539062500000000000e-01,-4.114990234375000000e-01,-3.134765625000000000e-01,-8.173217773437500000e-01
7.000000000000000000e+00,-4.000000000000000000e+00,6.000000000000000000e+00,1.600000000000000000e+01,1.200000000000000000e+01,2.000000000000000000e+00,-3.000000000000000000e+00,1.000000000000000000e+00,2.539062500000000000e-01,-4.114990234375000000e-01,-3.134765625000000000e-01,-8.173217773437500000e-01
1.000000000000000000e+00,1.000000000000000000e+00,-7.000000000000000000e+00,0.000000000000000000e+00,-7.000000000000000000e+00,-4.000000000000000000e+00,2.000000000000000000e+00,4.000000000000000000e+00,2.539062500000000000e-01,-4.114990234375000000e-01,-3.134765625000000000e-01,-8.173217773437500000e-01
-2.000000000000000000e+00,-2.000000000000000000e+00,5.000000000000000000e+00,-1.800000000000000000e+01,4.000000000000000000e+00,-1.200000000000000000e+01,-2.200000000000000000e+01,-2.000000000000000000e+00,2.539062500000000000e-01,-4.114990234375000000e-01,-3.134765625000000000e-01,-8.173217773437500000e-01
-3.000000000000000000e+00,5.000000000000000000e+00,-3.000000000000000000e+00,-3.300000000000000000e+01,-1.900000000000000000e+01,-5.000000000000000000e+00,1.200000000000000000e+01,-2.000000000000000000e+00,2.526855468750000000e-01,-4.120483398437500000e-01,-3.137817382812500000e-01,-8.173217773437500000e-01
5.000000000000000000e+00,0.000000000000000000e+00,5.000000000000000000e+00,1.400000000000000000e+01,1.700000000000000000e+01,1.600000000000000000e+01,1.000000000000000000e+01,4.000000000000000000e+00,2.526855468750000000e-01,-4.120483398437500000e-01,-3.137817382812500000e-01,-8.173217773437500000e-01
-3.000000000000000000e+00,-1.000000000000000000e+00,3.300000000000000000e+01,2.300000000000000000e+01,6.000000000000000000e+00,-8.000000000000000000e+00,-8.000000000000000000e+00,-5.000000000000000000e+00,2.526855468750000000e-01,-4.120483398437500000e-01,-3.137817382812500000e-01,-8.173217773437500000e-01
4.000000000000000000e+00,4.000000000000000000e+00,8.000000000000000000e+00,1.000000000000000000e+01,-6.000000000000000000e+00,1.000000000000000000e+00,2.000000000000000000e+00,2.000000000000000000e+00,2.526855468750000000e-01,-4.120483398437500000e-01,-3.137817382812500000e-01,-8.173217773437500000e-01
-4.000000000000000000e+00,-6.000000000000000000e+00,-1.400000000000000000e+01,-4.000000000000000000e+00,-1.100000000000000000e+01,-7.000000000000000000e+00,8.000000000000000000e+00,-1.000000000000000000e+00,2.512207031250000000e-01,-4.126586914062500000e-01,-3.141479492187500000e-01,-8.173217773437500000e-01
-2.000000000000000000e+00,-3.000000000000000000e+00,2.000000000000000000e+00,8.000000000000000000e+00,1.400000000000000000e+01,4.000000000000000000e+00,-1.800000000000000000e+01,-2.000000000000000000e+00,2.512207031250000000e-01,-4.126586914062500000e-01,-3.141479492187500000e-01,-8.173217773437500000e-01
0.000000000000000000e+00,4.000000000000000000e+00,6.000000000000000000e+00,-3.000000000000000000e+01,-9.000000000000000000e+00,-1.700000000000000000e+01,-6.000000000000000000e+00,-4.000000000000000000e+00,2.512207031250000000e-01,-4.126586914062500000e-01,-3.141479492187500000e-01,-8.173217773437500000e-01
-1.000000000000000000e+00,2.000000000000000000e+00,-2.000000000000000000e+00,7.000000000000000000e+00,5.000000000000000000e+00,5.000000000000000000e+00,4.000000000000000000e+00,1.000000000000000000e+00,2.512207031250000000e-01,-4.126586914062500000e-01,-3.141479492187500000e-01,-8.173217773437500000e-01
-3.000000000000000000e+00,-3.000000000000000000e+00,-6.000000000000000000e+00,1.600000000000000000e+01,-6.000000000000000000e+00,3.000000000000000000e+00,1.000000000000000000e+00,-3.000000000000000000e+00,2.503051757812500000e-01,-4.133300781250000000e-01,-3.146362304687500000e-01,-8.170776367187500000e-01
5.000000000000000000e+00,3.000000000000000000e+00,-2.500000000000000000e+01,-2.800000000000000000e+01,7.000000000000000000e+00,2.000000000000000000e+00,7.000000000000000000e+00,1.000000000000000000e+00,2.503051757812500000e-01,-4.133300781250000000e-01,-3.146362304687500000e-01,-8.170776367187500000e-01
-4.000000000000000000e+00,-6.000000000000000000e+00,2.500000000000000000e+01,2.200000000000000000e+01,-3.000000000000000000e+00,-3.000000000000000000e+00,-4.000000000000000000e+00,-1.000000000000000000e+00,2.503051757812500000e-01,-4.133300781250000000e-01,-3.146362304687500000e-01,-8.170776367187500000e-01
-1.000000000000000000e+00,3.000000000000000000e+00,-3.000000000000000000e+00,-1.100000000000000000e+01,-3.000000000000000000e+00,-2.000000000000000000e+00,-1.000000000000000000e+00,-1.000000000000000000e+00,2.503051757812500000e-01,-4.133300781250000000e-01,-3.146362304687500000e-01,-8.170776367187500000e-01
-5.000000000000000000e+00,-7.000000000000000000e+00,-1.000000000000000000e+00,-9.000000000000000000e+00,-1.500000000000000000e+01,-4.000000000000000000e+00,-3.000000000000000000e+00,0.000000000000000000e+00,2.493286132812500000e-01,-4.139404296875000000e-01,-3.151855468750000000e-01,-8.168334960937500000e-01
3.000000000000000000e+00,2.000000000000000000e+00,-1.300000000000000000e+01,-4.000000000000000000e+00,-1.000000000000000000e+01,0.000000000000000000e+00,-1.000000000000000000e+00,0.000000000000000000e+00,2.493286132812500000e-01,-4.139404296875000000e-01,-3.151855468750000000e-01,-8.168334960937500000e-01
-3.000000000000000000e+00,-6.000000000000000000e+00,-1.800000000000000000e+01,-4.000000000000000000e+00,9.000000000000000000e+00,-3.000000000000000000e+00,-8.000000000000000000e+00,-2.000000000000000000e+00,2.493286132812500000e-01,-4.139404296875000000e-01,-3.151855468750000000e-01,-8.168334960937500000e-01
-1.000000000000000000e+00,1.000000000000000000e+00,3.800000000000000000e+01,1.300000000000000000e+01,-1.000000000000000000e+00,-1.000000000000000000e+00,7.000000000000000000e+00,-3.000000000000000000e+00,2.493286132812500000e-01,-4.139404296875000000e-01,-3.151855468750000000e-01,-8.168334960937500000e-01
-5.000000000000000000e+00,-1.000000000000000000e+01,-4.900000000000000000e+01,-5.800000000000000000e+01,-8.000000000000000000e+00,2.000000000000000000e+00,-2.000000000000000000e+00,-2.000000000000000000e+00,2.481079101562500000e-01,-4.145507812500000000e-01,-3.156127929687500000e-01,-8.167114257812500000e-01
1.000000000000000000e+00,0.000000000000000000e+00,-1.900000000000000000e+01,1.500000000000000000e+01,1.100000000000000000e+01,-3.000000000000000000e+00,0.000000000000000000e+00,-1.000000000000000000e+00,2.481079101562500000e-01,-4.145507812500000000e-01,-3.156127929687500000e-01,-8.167114257812500000e-01
2.000000000000000000e+00,5.000000000000000000e+00,2.000000000000000000e+00,9.000000000000000000e+00,7.000000000000000000e+00,-1.300000000000000000e+01,-7.000000000000000000e+00,-1.000000000000000000e+00,2.481079101562500000e-01,-4.145507812500000000e-01,-3.156127929687500000e-01,-8.167114257812500000e-01
-1.000000000000000000e+00,-2.000000000000000000e+00,-3.000000000000000000e+00,-3.000000000000000000e+00,-5.000000000000000000e+00,2.500000000000000000e+01,1.800000000000000000e+01,1.000000000000000000e+00,2.481079101562500000e-01,-4.145507812500000000e-01,-3.156127929687500000e-01,-8.167114257812500000e-01
0.000000000000000000e+00,-1.000000000000000000e+00,6.000000000000000000e+00,-3.000000000000000000e+00,1.000000000000000000e+00,-3.000000000000000000e+00,-6.000000000000000000e+00,1.000000000000000000e+00,2.474365234375000000e-01,-4.147338867187500000e-01,-3.163452148437500000e-01,-8.165283203125000000e-01
2.000000000000000000e+00,2.000000000000000000e+00,1.200000000000000000e+01,4.000000000000000000e+00,-2.000000000000000000e+00,1.000000000000000000e+00,-2.000000000000000000e+00,1.000000000000000000e+00,2.474365234375000000e-01,-4.147338867187500000e-01,-3.163452148437500000e-01,-8.165283203125000000e-01
-6.000000000000000000e+00,-2.000000000000000000e+00,-3.000000000000000000e+00,-4.000000000000000000e+00,-1.000000000000000000e+00,1.000000000000000000e+00,-2.000000000000000000e+00,-4.000000000000000000e+00,2.474365234375000000e-01,-4.147338867187500000e-01,-3.163452148437500000e-01,-8.165283203125000000e-01
0.000000000000000000e+00,-4.000000000000000000e+00,-8.000000000000000000e+00,1.300000000000000000e+01,0.000000000000000000e+00,-1.000000000000000000e+01,-7.000000000000000000e+00,1.000000000000000000e+00,2.474365234375000000e-01,-4.147338867187500000e-01,-3.163452148437500000e-01,-8.165283203125000000e-01
1.000000000000000000e+00,4.000000000000000000e+00,2.100000000000000000e+01,8.000000000000000000e+00,7.000000000000000000e+00,2.000000000000000000e+00,-6.000000000000000000e+00,1.000000000000000000e+00,2.470703125000000000e-01,-4.149169921875000000e-01,-3.165893554687500000e-01,-8.164672851562500000e-01
1.000000000000000000e+00,-2.000000000000000000e+00,-1.700000000000000000e+01,6.000000000000000000e+00,7.000000000000000000e+00,-3.000000000000000000e+00,3.000000000000000000e+00,2.000000000000000000e+00,2.470703125000000000e-01,-4.149169921875000000e-01,-3.165893554687500000e-01,-8.164672851562500000e-01
-4.000000000000000000e+00,-4.000000000000000000e+00,1.500000000000000000e+01,-1.800000000000000000e+01,-8.000000000000000000e+00,1.000000000000000000e+00,-4.000000000000000000e+00,-5.000000000000000000e+00,2.470703125000000000e-01,-4.149169921875000000e-01,-3.165893554687500000e-01,-8.164672851562500000e-01
-3.000000000000000000e+00,1.000000000000000000e+00,1.400000000000000000e+01,2.300000000000000000e+01,-1.000000000000000000e+00,-8.000000000000000000e+00,-2.000000000000000000e+00,-1.000000000000000000e+00,2.470703125000000000e-01,-4.149169921875000000e-01,-3.165893554687500000e-01,-8.164672851562500000e-01
1.000000000000000000e+00,-4.000000000000000000e+00,-6.700000000000000000e+01,-1.800000000000000000e+01,7.000000000000000000e+00,7.000000000000000000e+00,1.000000000000000000e+00,-1.000000000000000000e+00,2.462768554687500000e-01,-4.154052734375000000e-01,-3.164062500000000000e-01,-8.165283203125000000e-01
-2.000000000000000000e+00,1.000000000000000000e+00,1.600000000000000000e+01,5.000000000000000000e+00,-1.700000000000000000e+01,-6.000000000000000000e+00,-4.000000000000000000e+00,-4.000000000000000000e+00,2.462768554687500000e-01,-4.154052734375000000e-01,-3.164062500000000000e-01,-8.165283203125000000e-01
-3.000000000000000000e+00,-7.000000000000000000e+00,2.400000000000000000e+01,1.000000000000000000e+00,2.300000000000000000e+01,7.000000000000000000e+00,4.000000000000000000e+00,-2.000000000000000000e+00,2.462768554687500000e-01,-4.154052734375000000e-01,-3.164062500000000000e-01,-8.165283203125000000e-01
0.000000000000000000e+00,-5.000000000000000000e+00,-4.800000000000000000e+01,-2.400000000000000000e+01,-3.000000000000000000e+00,0.000000000000000000e+00,0.000000000000000000e+00,0.000000000000000000e+00,2.462768554687500000e-01,-4.154052734375000000e-01,-3.164062500000000000e-01,-8.165283203125000000e-01
-2.000000000000000000e+00,0.000000000000000000e+00,4.000000000000000000e+00,4.000000000000000000e+00,-8.000000000000000000e+00,-9.000000000000000000e+00,-1.000000000000000000e+01,-5.000000000000000000e+00,2.457885742187500000e-01,-4.160156250000000000e-01,-3.162231445312500000e-01,-8.164672851562500000e-01
-1.000000000000000000e+00,-1.300000000000000000e+01,1.000000000000000000e+00,1.000000000000000000e+00,1.000000000000000000e+01,-8.000000000000000000e+00,-2.000000000000000000e+00,1.000000000000000000e+00,2.457885742187500000e-01,-4.160156250000000000e-01,-3.162231445312500000e-01,-8.164672851562500000e-01
-3.000000000000000000e+00,-3.000000000000000000e+00,-3.000000000000000000e+01,-1.200000000000000000e+01,-2.300000000000000000e+01,1.500000000000000000e+01,1.400000000000000000e+01,0.000000000000000000e+00,2.457885742187500000e-01,-4.160156250000000000e-01,-3.162231445312500000e-01,-8.164672851562500000e-01
-1.000000000000000000e+00,8.000000000000000000e+00,1.100000000000000000e+01,1.500000000000000000e+01,4.000000000000000000e+00,-7.000000000000000000e+00,-1.800000000000000000e+01,-3.000000000000000000e+00,2.457885742187500000e-01,-4.160156250000000000e-01,-3.162231445312500000e-01,-8.164672851562500000e-01
-5.000000000000000000e+00,-3.000000000000000000e+00,3.500000000000000000e+01,2.000000000000000000e+01,1.500000000000000000e+01,1.000000000000000000e+00,9.000000000000000000e+00,-6.000000000000000000e+00,2.461547851562500000e-01,-4.161987304687500000e-01,-3.163452148437500000e-01,-8.162231445312500000e-01
-1.000000000000000000e+00,-6.000000000000000000e+00,-2.400000000000000000e+01,-1.600000000000000000e+01,-2.300000000000000000e+01,2.000000000000000000e+00,3.000000000000000000e+00,-2.000000000000000000e+00,2.461547851562500000e-01,-4.161987304687500000e-01,-3.163452148437500000e-01,-8.162231445312500000e-01
2.000000000000000000e+00,4.000000000000000000e+00,4.000000000000000000e+00,6.000000000000000000e+00,-4.000000000000000000e+00,-3.000000000000000000e+00,5.000000000000000000e+00,2.000000000000000000e+00,2.461547851562500000e-01,-4.161987304687500000e-01,-3.163452148437500000e-01,-8.162231445312500000e-01
-1.000000000000000000e+00,-2.000000000000000000e+00,-1.000000000000000000e+01,3.400000000000000000e+01,9.000000000000000000e+00,2.000000000000000000e+00,-5.000000000000000000e+00,2.000000000000000000e+00,2.461547851562500000e-01,-4.161987304687500000e-01,-3.163452148437500000e-01,-8.162231445312500000e-01
0.000000000000000000e+00,2.000000000000000000e+00,1.500000000000000000e+01,-3.700000000000000000e+01,-6.000000000000000000e+00,-3.000000000000000000e+00,-6.000000000000000000e+00,1.000000000000000000e+00,2.467651367187500000e-01,-4.160766601562500000e-01,-3.162231445312500000e-01,-8.161010742187500000e-01
-3.000000000000000000e+00,-1.000000000000000000e+00,0.000000000000000000e+00,-6.000000000000000000e+00,4.000000000000000000e+00,-1.000000000000000000e+00,-3.000000000000000000e+00,-4.000000000000000000e+00,2.467651367187500000e-01,-4.160766601562500000e-01,-3.162231445312500000e-01,-8.161010742187500000e-01
-1.000000000000000000e+00,0.000000000000000000e+00,-6.000000000000000000e+00,1.000000000000000000e+01,-8.000000000000000000e+00,-3.000000000000000000e+00,-1.000000000000000000e+00,-2.000000000000000000e+00,2.467651367187500000e-01,-4.160766601562500000e-01,-3.162231445312500000e-01,-8.161010742187500000e-01
1.000000000000000000e+00,-1.000000000000000000e+00,-5.000000000000000000e+00,-2.200000000000000000e+01,-5.000000000000000000e+00,-8.000000000000000000e+00,-1.000000000000000000e+00,-5.000000000000000000e+00,2.467651367187500000e-01,-4.160766601562500000e-01,-3.162231445312500000e-01,-8.161010742187500000e-01
-1.000000000000000000e+00,2.000000000000000000e+00,3.500000000000000000e+01,-1.400000000000000000e+01,-2.300000000000000000e+01,-4.000000000000000000e+00,-2.000000000000000000e+00,-1.000000000000000000e+00,2.468261718750000000e-01,-4.161987304687500000e-01,-3.159179687500000000e-01,-8.161621093750000000e-01
0.000000000000000000e+00,-3.000000000000000000e+00,-9.000000000000000000e+00,3.400000000000000000e+01,3.200000000000000000e+01,1.000000000000000000e+01,4.000000000000000000e+00,1.000000000000000000e+00,2.468261718750000000e-01,-4.161987304687500000e-01,-3.159179687500000000e-01,-8.161621093750000000e-01
7.000000000000000000e+00,3.000000000000000000e+00,-1.800000000000000000e+01,1.300000000000000000e+01,2.100000000000000000e+01,5.000000000000000000e+00,-6.000000000000000000e+00,1.000000000000000000e+00,2.468261718750000000e-01,-4.161987304687500000e-01,-3.159179687500000000e-01,-8.161621093750000000e-01
-3.000000000000000000e+00,3.000000000000000000e+00,-6.000000000000000000e+00,-1.300000000000000000e+01,-1.700000000000000000e+01,-4.000000000000000000e+00,5.000000000000000000e+00,2.000000000000000000e+00,2.468261718750000000e-01,-4.161987304687500000e-01,-3.159179687500000000e-01,-8.161621093750000000e-01
-6.000000000000000000e+00,-3.000000000000000000e+00,2.100000000000000000e+01,0.000000000000000000e+00,8.000000000000000000e+00,3.000000000000000000e+00,-4.000000000000000000e+00,-2.000000000000000000e+00,2.468261718750000000e-01,-4.166259765625000000e-01,-3.155517578125000000e-01,-8.161010742187500000e-01
-2.000000000000000000e+00,-6.000000000000000000e+00,-2.600000000000000000e+01,2.800000000000000000e+01,-7.000000000000000000e+00,-1.000000000000000000e+00,3.000000000000000000e+00,-2.000000000000000000e+00,2.468261718750000000e-01,-4.166259765625000000e-01,-3.155517578125000000e-01,-8.161010742187500000e-01
-2.000000000000000000e+00,0.000000000000000000e+00,1.100000000000000000e+01,-5.100000000000000000e+01,-1.100000000000000000e+01,-4.000000000000000000e+00,-6.000000000000000000e+00,-2.000000000000000000e+00,2.468261718750000000e-01,-4.166259765625000000e-01,-3.155517578125000000e-01,-8.161010742187500000e-01
5.000000000000000000e+00,-3.000000000000000000e+00,-1.000000000000000000e+00,-2.100000000000000000e+01,2.000000000000000000e+00,-1.100000000000000000e+01,-3.000000000000000000e+00,2.000000000000000000e+00,2.468261718750000000e-01,-4.166259765625000000e-01,-3.155517578125000000e-01,-8.161010742187500000e-01
2.000000000000000000e+00,-1.000000000000000000e+00,-5.000000000000000000e+00,-2.000000000000000000e+00,-4.000000000000000000e+00,1.400000000000000000e+01,5.000000000000000000e+00,4.000000000000000000e+00,2.468872070312500000e-01,-4.168701171875000000e-01,-3.151855468750000000e-01,-8.161010742187500000e-01
-2.000000000000000000e+00,7.000000000000000000e+00,1.700000000000000000e+01,-1.000000000000000000e+01,-1.000000000000000000e+00,1.600000000000000000e+01,-1.000000000000000000e+00,-2.000000000000000000e+00,2.468872070312500000e-01,-4.168701171875000000e-01,-3.151855468750000000e-01,-8.161010742187500000e-01
-6.000000000000000000e+00,-1.200000000000000000e+01,1.800000000000000000e+01,4.800000000000000000e+01,7.000000000000000000e+00,-6.000000000000000000e+00,1.300000000000000000e+01,-3.000000000000000000e+00,2.468872070312500000e-01,-4.168701171875000000e-01,-3.151855468750000000e-01,-8.161010742187500000e-01
0.000000000000000000e+00,-2.000000000000000000e+00,-9.000000000000000000e+00,-1.400000000000000000e+01,-3.000000000000000000e+00,3.000000000000000000e+00,1.000000000000000000e+00,0.000000000000000000e+00,2.468872070312500000e-01,-4.168701171875000000e-01,-3.151855468750000000e-01,-8.161010742187500000e-01
1.000000000000000000e+00,2.000000000000000000e+00,-7.000000000000000000e+00,8.000000000000000000e+00,-2.000000000000000000e+00,-6.000000000000000000e+00,-4.000000000000000000e+00,0.000000000000000000e+00,2.473754882812500000e-01,-4.168090820312500000e-01,-3.152465820312500000e-01,-8.159790039062500000e-01
1.000000000000000000e+00,1.000000000000000000e+00,1.000000000000000000e+01,1.100000000000000000e+01,1.200000000000000000e+01,-4.000000000000000000e+00,-8.000000000000000000e+00,0.000000000000000000e+00,2.473754882812500000e-01,-4.168090820312500000e-01,-3.152465820312500000e-01,-8.159790039062500000e-01
-4.000000000000000000e+00,-1.000000000000000000e+00,-8.000000000000000000e+00,-1.000000000000000000e+00,-1.100000000000000000e+01,-4.000000000000000000e+00,-8.000000000000000000e+00,-3.000000000000000000e+00,2.473754882812500000e-01,-4.168090820312500000e-01,-3.152465820312500000e-01,-8.159790039062500000e-01
0.000000000000000000e+00,-6.000000000000000000e+00,-1.300000000000000000e+01,-1.200000000000000000e+01,1.000000000000000000e+01,1.000000000000000000e+00,0.000000000000000000e+00,-1.000000000000000000e+00,2.473754882812500000e-01,-4.168090820312500000e-01,-3.152465820312500000e-01,-8.159790039062500000e-01
3.000000000000000000e+00,4.000000000000000000e+00,-6.000000000000000000e+00,1.600000000000000000e+01,-4.000000000000000000e+00,-4.000000000000000000e+00,-1.000000000000000000e+00,0.000000000000000000e+00,2.479858398437500000e-01,-4.163818359375000000e-01,-3.152465820312500000e-01,-8.159790039062500000e-01
-5.000000000000000000e+00,-4.000000000000000000e+00,9.000000000000000000e+00,-6.000000000000000000e+00,0.000000000000000000e+00,-2.000000000000000000e+00,-2.000000000000000000e+00,-6.000000000000000000e+00,2.479858398437500000e-01,-4.163818359375000000e-01,-3.152465820312500000e-01,-8.159790039062500000e-01
3.000000000000000000e+00,1.000000000000000000e+01,9.000000000000000000e+00,-2.400000000000000000e+01,-6.000000000000000000e+00,-3.000000000000000000e+00,-1.000000000000000000e+00,0.000000000000000000e+00,2.479858398437500000e-01,-4.163818359375000000e-01,-3.152465820312500000e-01,-8.159790039062500000e-01
-2.000000000000000000e+00,-8.000000000000000000e+00,-2.300000000000000000e+01,-5.000000000000000000e+00,-8.000000000000000000e+00,-2.000000000000000000e+00,1.000000000000000000e+00,-1.000000000000000000e+00,2.479858398437500000e-01,-4.163818359375000000e-01,-3.152465820312500000e-01,-8.159790039062500000e-01
-1.000000000000000000e+00,-4.000000000000000000e+00,-4.000000000000000000e+00,2.900000000000000000e+01,1.600000000000000000e+01,3.000000000000000000e+00,-2.000000000000000000e+00,1.000000000000000000e+00,2.481079101562500000e-01,-4.162597656250000000e-01,-3.150024414062500000e-01,-8.161010742187500000e-01
-1.000000000000000000e+00,-3.000000000000000000e+00,0.000000000000000000e+00,-1.300000000000000000e+01,-3.100000000000000000e+01,-1.100000000000000000e+01,0.000000000000000000e+00,-1.000000000000000000e+00,2.481079101562500000e-01,-4.162597656250000000e-01,-3.150024414062500000e-01,-8.161010742187500000e-01
0.000000000000000000e+00,6.000000000000000000e+00,-4.900000000000000000e+01,-2.500000000000000000e+01,1.500000000000000000e+01,4.000000000000000000e+00,-4.000000000000000000e+00,2.000000000000000000e+00,2.481079101562500000e-01,-4.162597656250000000e-01,-3.150024414062500000e-01,-8.161010742187500000e-01
-5.000000000000000000e+00,-6.000000000000000000e+00,6.000000000000000000e+00,-2.100000000000000000e+01,-1.200000000000000000e+01,0.000000000000000000e+00,-2.000000000000000000e+00,-2.000000000000000000e+00,2.481079101562500000e-01,-4.162597656250000000e-01,-3.150024414062500000e-01,-8.161010742187500000e-01
0.000000000000000000e+00,2.000000000000000000e+00,3.900000000000000000e+01,1.500000000000000000e+01,-1.600000000000000000e+01,-5.000000000000000000e+00,-1.000000000000000000e+00,-2.000000000000000000e+00,2.481079101562500000e-01,-4.162597656250000000e-01,-3.150024414062500000e-01,-8.161010742187500000e-01
4.000000000000000000e+00,1.000000000000000000e+00,-1.800000000000000000e+01,-3.300000000000000000e+01,1.900000000000000000e+01,4.000000000000000000e+00,0.000000000000000000e+00,0.000000000000000000e+00,2.481079101562500000e-01,-4.162597656250000000e-01,-3.150024414062500000e-01,-8.161010742187500000e-01
-1.000000000000000000e+01,-1.100000000000000000e+01,7.000000000000000000e+00,4.600000000000000000e+01,2.000000000000000000e+00,-5.000000000000000000e+00,-5.000000000000000000e+00,-3.000000000000000000e+00,2.481079101562500000e-01,-4.162597656250000000e-01,-3.150024414062500000e-01,-8.161010742187500000e-01
3.000000000000000000e+00,5.000000000000000000e+00,-7.000000000000000000e+00,9.000000000000000000e+00,1.000000000000000000e+00,0.000000000000000000e+00,4.000000000000000000e+00,-1.000000000000000000e+00,2.481079101562500000e-01,-4.162597656250000000e-01,-3.150024414062500000e-01,-8.161010742187500000e-01
0.000000000000000000e+00,0.000000000000000000e+00,4.000000000000000000e+00,-1.600000000000000000e+01,0.000000000000000000e+00,0.000000000000000000e+00,2.000000000000000000e+00,-1.000000000000000000e+00,2.481079101562500000e-01,-4.158935546875000000e-01,-3.151245117187500000e-01,-8.162231445312500000e-01
4.000000000000000000e+00,2.000000000000000000e+00,5.000000000000000000e+00,1.300000000000000000e+01,-1.100000000000000000e+01,-7.000000000000000000e+00,0.000000000000000000e+00,2.000000000000000000e+00,2.481079101562500000e-01,-4.158935546875000000e-01,-3.151245117187500000e-01,-8.162231445312500000e-01
4.000000000000000000e+00,2.000000000000000000e+00,-6.000000000000000000e+00,-5.000000000000000000e+00,-3.000000000000000000e+00,-1.000000000000000000e+00,-1.000000000000000000e+00,3.000000000000000000e+00,2.481079101562500000e-01,-4.158935546875000000e-01,-3.151245117187500000e-01,-8.162231445312500000e-01
-4.000000000000000000e+00,-2.000000000000000000e+00,-5.000000000000000000e+00,-1.000000000000000000e+00,-3.000000000000000000e+00,-2.000000000000000000e+00,-1.000000000000000000e+00,-2.000000000000000000e+00,2.481079101562500000e-01,-4.158935546875000000e-01,-3.151245117187500000e-01,-8.162231445312500000e-01
-2.000000000000000000e+00,4.000000000000000000e+00,-2.000000000000000000e+00,2.300000000000000000e+01,6.000000000000000000e+00,-4.000000000000000000e+00,-3.000000000000000000e+00,-2.000000000000000000e+00,2.483520507812500000e-01,-4.152832031250000000e-01,-3.151245117187500000e-01,-8.164672851562500000e-01
-2.000000000000000000e+00,7.000000000000000000e+00,2.600000000000000000e+01,-4.500000000000000000e+01,-8.000000000000000000e+00,-7.000000000000000000e+00,-5.000000000000000000e+00,-4.000000000000000000e+00,2.483520507812500000e-01,-4.152832031250000000e-01,-3.151245117187500000e-01,-8.164672851562500000e-01
-4.000000000000000000e+00,-1.100000000000000000e+01,-6.000000000000000000e+00,-1.600000000000000000e+01,-4.000000000000000000e+00,-7.000000000000000000e+00,-7.000000000000000000e+00,-5.000000000000000000e+00,2.483520507812500000e-01,-4.152832031250000000e-01,-3.151245117187500000e-01,-8.164672851562500000e-01
-5.000000000000000000e+00,-8.000000000000000000e+00,4.000000000000000000e+01,1.600000000000000000e+01,-5.000000000000000000e+00,1.200000000000000000e+01,8.000000000000000000e+00,-1.000000000000000000e+00,2.483520507812500000e-01,-4.152832031250000000e-01,-3.151245117187500000e-01,-8.164672851562500000e-01
1.000000000000000000e+00,-1.000000000000000000e+00,-1.200000000000000000e+01,1.300000000000000000e+01,4.000000000000000000e+00,2.000000000000000000e+00,-2.000000000000000000e+00,-2.000000000000000000e+00,2.483520507812500000e-01,-4.152832031250000000e-01,-3.151245117187500000e-01,-8.164672851562500000e-01
-1.000000000000000000e+00,3.000000000000000000e+00,2.000000000000000000e+00,2.800000000000000000e+01,1.000000000000000000e+01,-1.000000000000000000e+00,-1.200000000000000000e+01,-2.000000000000000000e+00,2.483520507812500000e-01,-4.152832031250000000e-01,-3.151245117187500000e-01,-8.164672851562500000e-01
4.000000000000000000e+00,7.000000000000000000e+00,1.100000000000000000e+01,-4.000000000000000000e+00,-6.000000000000000000e+00,-1.900000000000000000e+01,-4.000000000000000000e+00,0.000000000000000000e+00,2.483520507812500000e-01,-4.152832031250000000e-01,-3.151245117187500000e-01,-8.164672851562500000e-01
3.000000000000000000e+00,4.000000000000000000e+00,-3.000000000000000000e+00,-3.800000000000000000e+01,6.000000000000000000e+00,2.600000000000000000e+01,1.600000000000000000e+01,4.000000000000000000e+00,2.483520507812500000e-01,-4.152832031250000000e-01,-3.151245117187500000e-01,-8.164672851562500000e-01
-3.000000000000000000e+00,-6.000000000000000000e+00,-1.600000000000000000e+01,-2.000000000000000000e+01,-1.300000000000000000e+01,0.000000000000000000e+00,-1.000000000000000000e+00,1.000000000000000000e+00,2.488403320312500000e-01,-4.153442382812500000e-01,-3.155517578125000000e-01,-8.161010742187500000e-01
-2.000000000000000000e+00,1.000000000000000000e+00,1.100000000000000000e+01,3.700000000000000000e+01,2.400000000000000000e+01,7.000000000000000000e+00,8.000000000000000000e+00,1.000000000000000000e+00,2.488403320312500000e-01,-4.153442382812500000e-01,-3.155517578125000000e-01,-8.161010742187500000e-01
8.000000000000000000e+00,1.500000000000000000e+01,1.400000000000000000e+01,3.300000000000000000e+01,5.000000000000000000e+00,5.000000000000000000e+00,-2.000000000000000000e+00,3.000000000000000000e+00,2.488403320312500000e-01,-4.153442382812500000e-01,-3.155517578125000000e-01,-8.161010742187500000e-01
-9.000000000000000000e+00,-1.900000000000000000e+01,-1.000000000000000000e+01,1.700000000000000000e+01,3.000000000000000000e+00,-1.400000000000000000e+01,-1.300000000000000000e+01,-7.000000000000000000e+00,2.488403320312500000e-01,-4.153442382812500000e-01,-3.155517578125000000e-01,-8.161010742187500000e-01
0.000000000000000000e+00,-2.000000000000000000e+00,-7.000000000000000000e+00,-3.100000000000000000e+01,0.000000000000000000e+00,2.000000000000000000e+00,4.000000000000000000e+00,1.000000000000000000e+00,2.492065429687500000e-01,-4.151611328125000000e-01,-3.155517578125000000e-01,-8.161010742187500000e-01
-5.000000000000000000e+00,-7.000000000000000000e+00,-9.000000000000000000e+00,-3.000000000000000000e+00,-2.400000000000000000e+01,-1.100000000000000000e+01,-9.000000000000000000e+00,-4.000000000000000000e+00,2.492065429687500000e-01,-4.151611328125000000e-01,-3.155517578125000000e-01,-8.161010742187500000e-01
0.000000000000000000e+00,3.000000000000000000e+00,4.000000000000000000e+01,1.800000000000000000e+01,0.000000000000000000e+00,6.000000000000000000e+00,3.000000000000000000e+00,-1.000000000000000000e+00,2.492065429687500000e-01,-4.151611328125000000e-01,-3.155517578125000000e-01,-8.161010742187500000e-01
-3.000000000000000000e+00,2.000000000000000000e+00,-6.500000000000000000e+01,-3.700000000000000000e+01,-4.000000000000000000e+00,-8.000000000000000000e+00,-6.000000000000000000e+00,-5.000000000000000000e+00,2.492065429687500000e-01,-4.151611328125000000e-01,-3.155517578125000000e-01,-8.161010742187500000e-01
-1.000000000000000000e+00,-4.000000000000000000e+00,-1.900000000000000000e+01,3.000000000000000000e+01,0.000000000000000000e+00,2.000000000000000000e+00,1.000000000000000000e+00,1.000000000000000000e+00,2.489013671875000000e-01,-4.152221679687500000e-01,-3.153076171875000000e-01,-8.162841796875000000e-01
-2.000000000000000000e+00,-5.000000000000000000e+00,-3.000000000000000000e+00,-2.900000000000000000e+01,-9.000000000000000000e+00,-9.000000000000000000e+00,-2.000000000000000000e+00,-3.000000000000000000e+00,2.489013671875000000e-01,-4.152221679687500000e-01,-3.153076171875000000e-01,-8.162841796875000000e-01
-3.000000000000000000e+00,-4.000000000000000000e+00,-6.000000000000000000e+00,1.400000000000000000e+01,1.200000000000000000e+01,5.000000000000000000e+00,0.000000000000000000e+00,-1.000000000000000000e+00,2.489013671875000000e-01,-4.152221679687500000e-01,-3.153076171875000000e-01,-8.162841796875000000e-01
4.000000000000000000e+00,1.000000000000000000e+01,3.200000000000000000e+01,1.700000000000000000e+01,7.000000000000000000e+00,-2.000000000000000000e+00,1.000000000000000000e+00,2.000000000000000000e+00,2.489013671875000000e-01,-4.152221679687500000e-01,-3.153076171875000000e-01,-8.162841796875000000e-01
-1.000000000000000000e+00,4.000000000000000000e+00,1.200000000000000000e+01,3.000000000000000000e+00,-5.000000000000000000e+00,-4.000000000000000000e+00,-6.000000000000000000e+00,-2.000000000000000000e+00,2.484741210937500000e-01,-4.155883789062500000e-01,-3.152465820312500000e-01,-8.162231445312500000e-01
0.000000000000000000e+00,0.000000000000000000e+00,-1.300000000000000000e+01,-4.300000000000000000e+01,-9.000000000000000000e+00,-4.000000000000000000e+00,-1.000000000000000000e+00,0.000000000000000000e+00,2.484741210937500000e-01,-4.155883789062500000e-01,-3.152465820312500000e-01,-8.162231445312500000e-01
-3.000000000000000000e+00,-8.000000000000000000e+00,1.000000000000000000e+01,3.400000000000000000e+01,4.000000000000000000e+00,0.000000000000000000e+00,-6.000000000000000000e+00,0.000000000000000000e+00,2.484741210937500000e-01,-4.155883789062500000e-01,-3.152465820312500000e-01,-8.162231445312500000e-01
4.000000000000000000e+00,4.000000000000000000e+00,1.800000000000000000e+01,1.900000000000000000e+01,-8.000000000000000000e+00,3.000000000000000000e+00,7.000000000000000000e+00,3.000000000000000000e+00,2.484741210937500000e-01,-4.155883789062500000e-01,-3.152465820312500000e-01,-8.162231445312500000e-01
4.000000000000000000e+00,7.000000000000000000e+00,8.000000000000000000e+00,-1.400000000000000000e+01,1.300000000000000000e+01,2.000000000000000000e+00,4.000000000000000000e+00,1.000000000000000000e+00,2.486572265625000000e-01,-4.155273437500000000e-01,-3.154907226562500000e-01,-8.161010742187500000e-01
-5.000000000000000000e+00,-6.000000000000000000e+00,-1.600000000000000000e+01,-1.400000000000000000e+01,-2.600000000000000000e+01,-1.000000000000000000e+00,1.100000000000000000e+01,0.000000000000000000e+00,2.486572265625000000e-01,-4.155273437500000000e-01,-3.154907226562500000e-01,-8.161010742187500000e-01
-1.000000000000000000e+00,-2.000000000000000000e+00,-4.000000000000000000e+00,-3.000000000000000000e+00,1.000000000000000000e+01,-1.000000000000000000e+00,-1.000000000000000000e+01,-1.000000000000000000e+00,2.486572265625000000e-01,-4.155273437500000000e-01,-3.154907226562500000e-01,-8.161010742187500000e-01
-1.000000000000000000e+00,8.000000000000000000e+00,2.400000000000000000e+01,2.600000000000000000e+01,8.000000000000000000e+00,-8.000000000000000000e+00,-8.000000000000000000e+00,-3.000000000000000000e+00,2.486572265625000000e-01,-4.155273437500000000e-01,-3.154907226562500000e-01,-8.161010742187500000e-01
