0.000000000000000000e+00,2.000000000000000000e+00,1.700000000000000000e+01,-2.300000000000000000e+01,-1.100000000000000000e+01,-6.000000000000000000e+00,-1.000000000000000000e+00,0.000000000000000000e+00,2.050170898437500000e-01,-2.048950195312500000e-01,-9.484863281250000000e-02,-9.523925781250000000e-01
-1.000000000000000000e+00,-5.000000000000000000e+00,-6.500000000000000000e+01,-2.900000000000000000e+01,-1.000000000000000000e+00,3.000000000000000000e+00,2.000000000000000000e+00,0.000000000000000000e+00,2.050170898437500000e-01,-2.048950195312500000e-01,-9.484863281250000000e-02,-9.523925781250000000e-01
-5.000000000000000000e+00,-1.300000000000000000e+01,4.400000000000000000e+01,3.600000000000000000e+01,3.000000000000000000e+00,-2.000000000000000000e+00,-3.000000000000000000e+00,-4.000000000000000000e+00,2.045288085937500000e-01,-2.045898437500000000e-01,-9.490966796875000000e-02,-9.525756835937500000e-01
-5.000000000000000000e+00,2.000000000000000000e+00,6.000000000000000000e+00,6.000000000000000000e+00,-7.000000000000000000e+00,-2.000000000000000000e+00,-2.000000000000000000e+00,-3.000000000000000000e+00,2.045288085937500000e-01,-2.045898437500000000e-01,-9.490966796875000000e-02,-9.525756835937500000e-01
0.000000000000000000e+00,2.000000000000000000e+00,-2.000000000000000000e+00,-3.500000000000000000e+01,2.000000000000000000e+00,-1.000000000000000000e+00,-3.000000000000000000e+00,1.000000000000000000e+00,2.045288085937500000e-01,-2.045898437500000000e-01,-9.490966796875000000e-02,-9.525756835937500000e-01
-2.000000000000000000e+00,-1.000000000000000000e+00,2.800000000000000000e+01,1.800000000000000000e+01,0.000000000000000000e+00,1.000000000000000000e+00,1.000000000000000000e+00,0.000000000000000000e+00,2.045288085937500000e-01,-2.045898437500000000e-01,-9.490966796875000000e-02,-9.525756835937500000e-01
-5.000000000000000000e+00,-1.600000000000000000e+01,-9.100000000000000000e+01,-4.200000000000000000e+01,-6.000000000000000000e+00,-5.000000000000000000e+00,-2.000000000000000000e+00,-1.000000000000000000e+00,2.039184570312500000e-01,-2.042236328125000000e-01,-9.484863281250000000e-02,-9.527587890625000000e-01
-9.000000000000000000e+00,-9.000000000000000000e+00,1.300000000000000000e+01,-2.000000000000000000e+01,-1.100000000000000000e+01,-7.000000000000000000e+00,-6.000000000000000000e+00,-5.000000000000000000e+00,2.039184570312500000e-01,-2.042236328125000000e-01,-9.484863281250000000e-02,-9.527587890625000000e-01
2.000000000000000000e+00,1.000000000000000000e+00,-4.600000000000000000e+01,-2.900000000000000000e+01,-1.100000000000000000e+01,0.000000000000000000e+00,0.000000000000000000e+00,0.000000000000000000e+00,2.039184570312500000e-01,-2.042236328125000000e-01,-9.484863281250000000e-02,-9.527587890625000000e-01
-1.000000000000000000e+00,-2.000000000000000000e+00,4.000000000000000000e+01,2.200000000000000000e+01,1.200000000000000000e+01,3.000000000000000000e+00,-1.000000000000000000e+00,-4.000000000000000000e+00,2.039184570312500000e-01,-2.042236328125000000e-01,-9.484863281250000000e-02,-9.527587890625000000e-01
0.000000000000000000e+00,-1.000000000000000000e+00,-9.000000000000000000e+00,-3.300000000000000000e+01,-4.000000000000000000e+00,1.000000000000000000e+00,0.000000000000000000e+00,-1.000000000000000000e+00,2.031250000000000000e-01,-2.037353515625000000e-01,-9.460449218750000000e-02,-9.530639648437500000e-01
0.000000000000000000e+00,-3.000000000000000000e+00,-1.600000000000000000e+01,2.200000000000000000e+01,4.000000000000000000e+00,-1.000000000000000000e+00,-1.000000000000000000e+00,-1.000000000000000000e+00,2.031250000000000000e-01,-2.037353515625000000e-01,-9.460449218750000000e-02,-9.530639648437500000e-01
-1.000000000000000000e+00,-1.000000000000000000e+00,-3.200000000000000000e+01,-8.000000000000000000e+00,-1.000000000000000000e+00,-1.000000000000000000e+00,-1.000000000000000000e+00,-1.000000000000000000e+00,2.031250000000000000e-01,-2.037353515625000000e-01,-9.460449218750000000e-02,-9.530639648437500000e-01
2.000000000000000000e+00,2.000000000000000000e+00,1.400000000000000000e+01,8.000000000000000000e+00,-5.000000000000000000e+00,-3.000000000000000000e+00,0.000000000000000000e+00,0.000000000000000000e+00,2.031250000000000000e-01,-2.037353515625000000e-01,-9.460449218750000000e-02,-9.530639648437500000e-01
3.000000000000000000e+00,6.000000000000000000e+00,1.800000000000000000e+01,-2.800000000000000000e+01,-1.300000000000000000e+01,-7.000000000000000000e+00,-2.000000000000000000e+00,-1.000000000000000000e+00,2.026977539062500000e-01,-2.034912109375000000e-01,-9.429931640625000000e-02,-9.532470703125000000e-01
-5.000000000000000000e+00,-2.000000000000000000e+00,3.000000000000000000e+00,-6.000000000000000000e+00,2.000000000000000000e+00,0.000000000000000000e+00,-2.000000000000000000e+00,-2.000000000000000000e+00,2.026977539062500000e-01,-2.034912109375000000e-01,-9.429931640625000000e-02,-9.532470703125000000e-01
-2.000000000000000000e+00,-1.000000000000000000e+00,-3.000000000000000000e+01,2.600000000000000000e+01,3.000000000000000000e+00,6.000000000000000000e+00,2.000000000000000000e+00,-1.000000000000000000e+00,2.026977539062500000e-01,-2.034912109375000000e-01,-9.429931640625000000e-02,-9.532470703125000000e-01
-2.000000000000000000e+00,-9.000000000000000000e+00,-7.000000000000000000e+00,-2.300000000000000000e+01,-5.000000000000000000e+00,-3.000000000000000000e+00,0.000000000000000000e+00,-3.000000000000000000e+00,2.026977539062500000e-01,-2.034912109375000000e-01,-9.429931640625000000e-02,-9.532470703125000000e-01
-1.000000000000000000e+00,4.000000000000000000e+00,3.900000000000000000e+01,-9.000000000000000000e+00,-4.000000000000000000e+00,-3.000000000000000000e+00,-3.000000000000000000e+00,-2.000000000000000000e+00,2.027587890625000000e-01,-2.034912109375000000e-01,-9.429931640625000000e-02,-9.532470703125000000e-01
-1.000000000000000000e+00,-4.000000000000000000e+00,-5.000000000000000000e+00,8.000000000000000000e+00,-8.000000000000000000e+00,-2.000000000000000000e+00,-1.000000000000000000e+00,-2.000000000000000000e+00,2.027587890625000000e-01,-2.034912109375000000e-01,-9.429931640625000000e-02,-9.532470703125000000e-01
1.000000000000000000e+00,2.000000000000000000e+00,2.400000000000000000e+01,3.300000000000000000e+01,1.200000000000000000e+01,2.000000000000000000e+00,-2.000000000000000000e+00,-1.000000000000000000e+00,2.027587890625000000e-01,-2.034912109375000000e-01,-9.429931640625000000e-02,-9.532470703125000000e-01
-3.000000000000000000e+00,-8.000000000000000000e+00,-4.200000000000000000e+01,-2.600000000000000000e+01,-2.000000000000000000e+00,-3.000000000000000000e+00,-3.000000000000000000e+00,-1.000000000000000000e+00,2.027587890625000000e-01,-2.034912109375000000e-01,-9.429931640625000000e-02,-9.532470703125000000e-01
5.000000000000000000e+00,8.000000000000000000e+00,-6.000000000000000000e+00,1.600000000000000000e+01,3.000000000000000000e+00,-3.000000000000000000e+00,-1.000000000000000000e+00,0.000000000000000000e+00,2.033081054687500000e-01,-2.036743164062500000e-01,-9.448242187500000000e-02,-9.530639648437500000e-01
-5.000000000000000000e+00,-5.000000000000000000e+00,-1.200000000000000000e+01,-9.000000000000000000e+00,-8.000000000000000000e+00,2.000000000000000000e+00,-1.000000000000000000e+00,-1.000000000000000000e+00,2.033081054687500000e-01,-2.036743164062500000e-01,-9.448242187500000000e-02,-9.530639648437500000e-01
-1.000000000000000000e+00,-3.000000000000000000e+00,3.900000000000000000e+01,-1.000000000000000000e+00,-1.000000000000000000e+00,-1.000000000000000000e+00,-1.000000000000000000e+00,-1.000000000000000000e+00,2.033081054687500000e-01,-2.036743164062500000e-01,-9.448242187500000000e-02,-9.530639648437500000e-01
4.000000000000000000e+00,6.000000000000000000e+00,-6.400000000000000000e+01,-2.700000000000000000e+01,8.000000000000000000e+00,2.000000000000000000e+00,0.000000000000000000e+00,2.000000000000000000e+00,2.033081054687500000e-01,-2.036743164062500000e-01,-9.448242187500000000e-02,-9.530639648437500000e-01
-2.000000000000000000e+00,-1.100000000000000000e+01,7.000000000000000000e+00,-3.000000000000000000e+00,-1.000000000000000000e+00,-1.000000000000000000e+00,-2.000000000000000000e+00,-2.000000000000000000e+00,2.038574218750000000e-01,-2.036743164062500000e-01,-9.442138671875000000e-02,-9.529418945312500000e-01
-1.000000000000000000e+00,0.000000000000000000e+00,1.100000000000000000e+01,0.000000000000000000e+00,-2.000000000000000000e+00,-4.000000000000000000e+00,-2.000000000000000000e+00,-4.000000000000000000e+00,2.038574218750000000e-01,-2.036743164062500000e-01,-9.442138671875000000e-02,-9.529418945312500000e-01
-3.000000000000000000e+00,-3.000000000000000000e+00,-1.900000000000000000e+01,-1.500000000000000000e+01,-1.000000000000000000e+01,-9.000000000000000000e+00,-4.000000000000000000e+00,-3.000000000000000000e+00,2.038574218750000000e-01,-2.036743164062500000e-01,-9.442138671875000000e-02,-9.529418945312500000e-01
-2.000000000000000000e+00,0.000000000000000000e+00,-7.000000000000000000e+00,-7.000000000000000000e+00,-1.100000000000000000e+01,-1.000000000000000000e+00,-1.000000000000000000e+00,0.000000000000000000e+00,2.038574218750000000e-01,-2.036743164062500000e-01,-9.442138671875000000e-02,-9.529418945312500000e-01
-1.000000000000000000e+00,0.000000000000000000e+00,-2.000000000000000000e+00,-3.000000000000000000e+00,1.000000000000000000e+00,-2.000000000000000000e+00,2.000000000000000000e+00,0.000000000000000000e+00,2.039184570312500000e-01,-2.036743164062500000e-01,-9.442138671875000000e-02,-9.529418945312500000e-01
2.000000000000000000e+00,2.000000000000000000e+00,-1.900000000000000000e+01,1.000000000000000000e+01,4.000000000000000000e+00,3.000000000000000000e+00,0.000000000000000000e+00,-2.000000000000000000e+00,2.039184570312500000e-01,-2.036743164062500000e-01,-9.442138671875000000e-02,-9.529418945312500000e-01
-1.000000000000000000e+00,-2.000000000000000000e+00,1.200000000000000000e+01,-4.000000000000000000e+00,-4.000000000000000000e+00,0.000000000000000000e+00,2.000000000000000000e+00,0.000000000000000000e+00,2.039184570312500000e-01,-2.036743164062500000e-01,-9.442138671875000000e-02,-9.529418945312500000e-01
-2.000000000000000000e+00,1.000000000000000000e+00,1.400000000000000000e+01,-1.600000000000000000e+01,-1.300000000000000000e+01,-1.000000000000000000e+01,-6.000000000000000000e+00,-4.000000000000000000e+00,2.039184570312500000e-01,-2.036743164062500000e-01,-9.442138671875000000e-02,-9.529418945312500000e-01
-8.000000000000000000e+00,-8.000000000000000000e+00,-1.100000000000000000e+01,-3.200000000000000000e+01,-9.000000000000000000e+00,-3.000000000000000000e+00,-2.000000000000000000e+00,-4.000000000000000000e+00,2.036743164062500000e-01,-2.036132812500000000e-01,-9.436035156250000000e-02,-9.530029296875000000e-01
0.000000000000000000e+00,0.000000000000000000e+00,1.500000000000000000e+01,1.200000000000000000e+01,1.500000000000000000e+01,4.000000000000000000e+00,1.000000000000000000e+00,1.000000000000000000e+00,2.036743164062500000e-01,-2.036132812500000000e-01,-9.436035156250000000e-02,-9.530029296875000000e-01
-6.000000000000000000e+00,-6.000000000000000000e+00,6.000000000000000000e+00,-1.000000000000000000e+00,-8.000000000000000000e+00,-7.000000000000000000e+00,-5.000000000000000000e+00,-3.000000000000000000e+00,2.036743164062500000e-01,-2.036132812500000000e-01,-9.436035156250000000e-02,-9.530029296875000000e-01
3.000000000000000000e+00,6.000000000000000000e+00,3.000000000000000000e+01,6.000000000000000000e+00,1.000000000000000000e+00,1.000000000000000000e+00,0.000000000000000000e+00,1.000000000000000000e+00,2.036743164062500000e-01,-2.036132812500000000e-01,-9.436035156250000000e-02,-9.530029296875000000e-01
-1.000000000000000000e+00,0.000000000000000000e+00,5.000000000000000000e+00,2.000000000000000000e+00,4.000000000000000000e+00,4.000000000000000000e+00,4.000000000000000000e+00,2.000000000000000000e+00,2.034912109375000000e-01,-2.036743164062500000e-01,-9.466552734375000000e-02,-9.530029296875000000e-01
2.000000000000000000e+00,3.000000000000000000e+00,1.600000000000000000e+01,3.000000000000000000e+01,2.000000000000000000e+00,-4.000000000000000000e+00,-3.000000000000000000e+00,1.000000000000000000e+00,2.034912109375000000e-01,-2.036743164062500000e-01,-9.466552734375000000e-02,-9.530029296875000000e-01
0.000000000000000000e+00,-2.000000000000000000e+00,-1.900000000000000000e+01,-5.400000000000000000e+01,-1.600000000000000000e+01,-7.000000000000000000e+00,-4.000000000000000000e+00,-2.000000000000000000e+00,2.034912109375000000e-01,-2.036743164062500000e-01,-9.466552734375000000e-02,-9.530029296875000000e-01
-1.000000000000000000e+00,0.000000000000000000e+00,4.900000000000000000e+01,1.700000000000000000e+01,8.000000000000000000e+00,1.000000000000000000e+00,1.000000000000000000e+00,-1.000000000000000000e+00,2.034912109375000000e-01,-2.036743164062500000e-01,-9.466552734375000000e-02,-9.530029296875000000e-01
-2.000000000000000000e+00,-6.000000000000000000e+00,-5.700000000000000000e+01,7.000000000000000000e+00,0.000000000000000000e+00,0.000000000000000000e+00,-1.000000000000000000e+00,1.000000000000000000e+00,2.032470703125000000e-01,-2.039184570312500000e-01,-9.478759765625000000e-02,-9.530029296875000000e-01
6.000000000000000000e+00,6.000000000000000000e+00,5.600000000000000000e+01,2.100000000000000000e+01,4.000000000000000000e+00,3.000000000000000000e+00,2.000000000000000000e+00,3.000000000000000000e+00,2.032470703125000000e-01,-2.039184570312500000e-01,-9.478759765625000000e-02,-9.530029296875000000e-01
0.000000000000000000e+00,-4.000000000000000000e+00,-1.700000000000000000e+01,2.000000000000000000e+00,2.000000000000000000e+00,-3.000000000000000000e+00,1.000000000000000000e+00,1.000000000000000000e+00,2.032470703125000000e-01,-2.039184570312500000e-01,-9.478759765625000000e-02,-9.530029296875000000e-01
-1.000000000000000000e+00,3.000000000000000000e+00,5.400000000000000000e+01,2.400000000000000000e+01,-3.000000000000000000e+00,-1.000000000000000000e+00,-3.000000000000000000e+00,-3.000000000000000000e+00,2.032470703125000000e-01,-2.039184570312500000e-01,-9.478759765625000000e-02,-9.530029296875000000e-01
-1.000000000000000000e+00,4.000000000000000000e+00,1.700000000000000000e+01,-3.100000000000000000e+01,-7.000000000000000000e+00,0.000000000000000000e+00,1.000000000000000000e+00,2.000000000000000000e+00,2.034912109375000000e-01,-2.044677734375000000e-01,-9.490966796875000000e-02,-9.528198242187500000e-01
0.000000000000000000e+00,1.000000000000000000e+00,-1.600000000000000000e+01,2.000000000000000000e+00,0.000000000000000000e+00,-3.000000000000000000e+00,0.000000000000000000e+00,0.000000000000000000e+00,2.034912109375000000e-01,-2.044677734375000000e-01,-9.490966796875000000e-02,-9.528198242187500000e-01
-1.000000000000000000e+00,-1.000000000000000000e+00,-1.600000000000000000e+01,-2.000000000000000000e+00,0.000000000000000000e+00,4.000000000000000000e+00,0.000000000000000000e+00,1.000000000000000000e+00,2.034912109375000000e-01,-2.044677734375000000e-01,-9.490966796875000000e-02,-9.528198242187500000e-01
0.000000000000000000e+00,2.000000000000000000e+00,4.800000000000000000e+01,3.700000000000000000e+01,1.000000000000000000e+00,0.000000000000000000e+00,0.000000000000000000e+00,0.000000000000000000e+00,2.034912109375000000e-01,-2.044677734375000000e-01,-9.490966796875000000e-02,-9.528198242187500000e-01
-3.000000000000000000e+00,-5.000000000000000000e+00,-4.700000000000000000e+01,-5.600000000000000000e+01,4.000000000000000000e+00,-1.000000000000000000e+00,-3.000000000000000000e+00,-2.000000000000000000e+00,2.035522460937500000e-01,-2.056884765625000000e-01,-9.497070312500000000e-02,-9.525146484375000000e-01
1.000000000000000000e+00,1.000000000000000000e+00,-1.700000000000000000e+01,0.000000000000000000e+00,2.000000000000000000e+00,4.000000000000000000e+00,1.000000000000000000e+00,0.000000000000000000e+00,2.035522460937500000e-01,-2.056884765625000000e-01,-9.497070312500000000e-02,-9.525146484375000000e-01
-3.000000000000000000e+00,-6.000000000000000000e+00,1.100000000000000000e+01,-3.000000000000000000e+00,1.000000000000000000e+00,-4.000000000000000000e+00,-1.000000000000000000e+00,-3.000000000000000000e+00,2.035522460937500000e-01,-2.056884765625000000e-01,-9.497070312500000000e-02,-9.525146484375000000e-01
-2.000000000000000000e+00,-4.000000000000000000e+00,-2.700000000000000000e+01,-1.500000000000000000e+01,-4.000000000000000000e+00,2.000000000000000000e+00,1.000000000000000000e+00,0.000000000000000000e+00,2.035522460937500000e-01,-2.056884765625000000e-01,-9.497070312500000000e-02,-9.525146484375000000e-01
0.000000000000000000e+00,0.000000000000000000e+00,1.000000000000000000e+01,2.700000000000000000e+01,-1.200000000000000000e+01,-5.000000000000000000e+00,-4.000000000000000000e+00,-1.000000000000000000e+00,2.040405273437500000e-01,-2.066040039062500000e-01,-9.552001953125000000e-02,-9.521484375000000000e-01
4.000000000000000000e+00,6.000000000000000000e+00,1.800000000000000000e+01,0.000000000000000000e+00,1.700000000000000000e+01,3.000000000000000000e+00,1.000000000000000000e+00,2.000000000000000000e+00,2.040405273437500000e-01,-2.066040039062500000e-01,-9.552001953125000000e-02,-9.521484375000000000e-01
0.000000000000000000e+00,-2.000000000000000000e+00,-1.000000000000000000e+00,6.000000000000000000e+00,6.000000000000000000e+00,2.000000000000000000e+00,-1.000000000000000000e+00,-2.000000000000000000e+00,2.040405273437500000e-01,-2.066040039062500000e-01,-9.552001953125000000e-02,-9.521484375000000000e-01
3.000000000000000000e+00,4.000000000000000000e+00,1.000000000000000000e+00,5.800000000000000000e+01,1.200000000000000000e+01,3.000000000000000000e+00,1.000000000000000000e+00,0.000000000000000000e+00,2.040405273437500000e-01,-2.066040039062500000e-01,-9.552001953125000000e-02,-9.521484375000000000e-01
0.000000000000000000e+00,6.000000000000000000e+00,4.300000000000000000e+01,-2.700000000000000000e+01,-8.000000000000000000e+00,-4.000000000000000000e+00,-2.000000000000000000e+00,-1.000000000000000000e+00,2.047119140625000000e-01,-2.071533203125000000e-01,-9.613037109375000000e-02,-9.518432617187500000e-01
-4.000000000000000000e+00,-5.000000000000000000e+00,-2.000000000000000000e+01,-2.200000000000000000e+01,-6.000000000000000000e+00,-4.000000000000000000e+00,1.000000000000000000e+00,-2.000000000000000000e+00,2.047119140625000000e-01,-2.071533203125000000e-01,-9.613037109375000000e-02,-9.518432617187500000e-01
-1.000000000000000000e+00,-3.000000000000000000e+00,7.000000000000000000e+00,1.800000000000000000e+01,-1.000000000000000000e+00,-1.000000000000000000e+00,0.000000000000000000e+00,-1.000000000000000000e+00,2.047119140625000000e-01,-2.071533203125000000e-01,-9.613037109375000000e-02,-9.518432617187500000e-01
2.000000000000000000e+00,-3.000000000000000000e+00,-4.600000000000000000e+01,-5.000000000000000000e+01,-4.000000000000000000e+00,-3.000000000000000000e+00,-1.000000000000000000e+00,2.000000000000000000e+00,2.047119140625000000e-01,-2.071533203125000000e-01,-9.613037109375000000e-02,-9.518432617187500000e-01
2.000000000000000000e+00,9.000000000000000000e+00,2.300000000000000000e+01,5.800000000000000000e+01,8.000000000000000000e+00,4.000000000000000000e+00,1.000000000000000000e+00,-1.000000000000000000e+00,2.058715820312500000e-01,-2.077026367187500000e-01,-9.631347656250000000e-02,-9.514770507812500000e-01
1.000000000000000000e+00,-6.000000000000000000e+00,-2.000000000000000000e+00,-2.000000000000000000e+01,-1.100000000000000000e+01,-3.000000000000000000e+00,-3.000000000000000000e+00,1.000000000000000000e+00,2.058715820312500000e-01,-2.077026367187500000e-01,-9.631347656250000000e-02,-9.514770507812500000e-01
-1.000000000000000000e+00,3.000000000000000000e+00,1.000000000000000000e+00,1.600000000000000000e+01,-2.000000000000000000e+00,-4.000000000000000000e+00,-3.000000000000000000e+00,-3.000000000000000000e+00,2.058715820312500000e-01,-2.077026367187500000e-01,-9.631347656250000000e-02,-9.514770507812500000e-01
-4.000000000000000000e+00,-4.000000000000000000e+00,-1.000000000000000000e+01,-1.700000000000000000e+01,-5.000000000000000000e+00,1.000000000000000000e+00,-2.000000000000000000e+00,-3.000000000000000000e+00,2.058715820312500000e-01,-2.077026367187500000e-01,-9.631347656250000000e-02,-9.514770507812500000e-01
4.000000000000000000e+00,2.000000000000000000e+00,1.700000000000000000e+01,-1.000000000000000000e+01,3.000000000000000000e+00,1.000000000000000000e+00,0.000000000000000000e+00,-1.000000000000000000e+00,2.058105468750000000e-01,-2.081909179687500000e-01,-9.637451171875000000e-02,-9.513549804687500000e-01
-6.000000000000000000e+00,-1.400000000000000000e+01,-7.600000000000000000e+01,-4.000000000000000000e+00,-3.000000000000000000e+00,1.000000000000000000e+00,-1.000000000000000000e+00,-2.000000000000000000e+00,2.058105468750000000e-01,-2.081909179687500000e-01,-9.637451171875000000e-02,-9.513549804687500000e-01
-3.000000000000000000e+00,-5.000000000000000000e+00,6.000000000000000000e+00,6.000000000000000000e+00,-4.000000000000000000e+00,-1.000000000000000000e+00,0.000000000000000000e+00,-2.000000000000000000e+00,2.058105468750000000e-01,-2.081909179687500000e-01,-9.637451171875000000e-02,-9.513549804687500000e-01
-5.000000000000000000e+00,-7.000000000000000000e+00,-4.200000000000000000e+01,-2.400000000000000000e+01,2.000000000000000000e+00,0.000000000000000000e+00,0.000000000000000000e+00,-1.000000000000000000e+00,2.058105468750000000e-01,-2.081909179687500000e-01,-9.637451171875000000e-02,-9.513549804687500000e-01
4.000000000000000000e+00,3.000000000000000000e+00,2.800000000000000000e+01,1.300000000000000000e+01,-1.400000000000000000e+01,-6.000000000000000000e+00,-2.000000000000000000e+00,1.000000000000000000e+00,2.052001953125000000e-01,-2.083129882812500000e-01,-9.655761718750000000e-02,-9.514160156250000000e-01
4.000000000000000000e+00,8.000000000000000000e+00,-5.000000000000000000e+00,7.000000000000000000e+00,1.000000000000000000e+01,0.000000000000000000e+00,-1.000000000000000000e+00,1.000000000000000000e+00,2.052001953125000000e-01,-2.083129882812500000e-01,-9.655761718750000000e-02,-9.514160156250000000e-01
0.000000000000000000e+00,0.000000000000000000e+00,-9.000000000000000000e+00,-4.000000000000000000e+01,-9.000000000000000000e+00,-1.000000000000000000e+00,0.000000000000000000e+00,1.000000000000000000e+00,2.052001953125000000e-01,-2.083129882812500000e-01,-9.655761718750000000e-02,-9.514160156250000000e-01
1.000000000000000000e+00,4.000000000000000000e+00,2.700000000000000000e+01,1.400000000000000000e+01,2.000000000000000000e+00,2.000000000000000000e+00,2.000000000000000000e+00,0.000000000000000000e+00,2.052001953125000000e-01,-2.083129882812500000e-01,-9.655761718750000000e-02,-9.514160156250000000e-01
-6.000000000000000000e+00,-9.000000000000000000e+00,-3.200000000000000000e+01,1.500000000000000000e+01,0.000000000000000000e+00,0.000000000000000000e+00,-2.000000000000000000e+00,-2.000000000000000000e+00,2.053833007812500000e-01,-2.078247070312500000e-01,-9.692382812500000000e-02,-9.514770507812500000e-01
3.000000000000000000e+00,2.000000000000000000e+00,2.100000000000000000e+01,-1.200000000000000000e+01,-8.000000000000000000e+00,-5.000000000000000000e+00,0.000000000000000000e+00,0.000000000000000000e+00,2.053833007812500000e-01,-2.078247070312500000e-01,-9.692382812500000000e-02,-9.514770507812500000e-01
1.000000000000000000e+00,2.000000000000000000e+00,-2.800000000000000000e+01,-2.700000000000000000e+01,-5.000000000000000000e+00,-1.000000000000000000e+00,-2.000000000000000000e+00,-1.000000000000000000e+00,2.053833007812500000e-01,-2.078247070312500000e-01,-9.692382812500000000e-02,-9.514770507812500000e-01
2.000000000000000000e+00,-1.000000000000000000e+00,-5.000000000000000000e+01,-7.000000000000000000e+00,5.000000000000000000e+00,-2.000000000000000000e+00,-1.000000000000000000e+00,1.000000000000000000e+00,2.053833007812500000e-01,-2.078247070312500000e-01,-9.692382812500000000e-02,-9.514770507812500000e-01
-2.000000000000000000e+00,2.000000000000000000e+00,6.700000000000000000e+01,3.100000000000000000e+01,5.000000000000000000e+00,1.000000000000000000e+00,0.000000000000000000e+00,-1.000000000000000000e+00,2.057495117187500000e-01,-2.068481445312500000e-01,-9.729003906250000000e-02,-9.515380859375000000e-01
-2.000000000000000000e+00,-5.000000000000000000e+00,-1.400000000000000000e+01,-4.800000000000000000e+01,-1.700000000000000000e+01,-6.000000000000000000e+00,-2.000000000000000000e+00,-2.000000000000000000e+00,2.057495117187500000e-01,-2.068481445312500000e-01,-9.729003906250000000e-02,-9.515380859375000000e-01
-2.000000000000000000e+00,4.000000000000000000e+00,1.000000000000000000e+01,4.500000000000000000e+01,4.000000000000000000e+00,-2.000000000000000000e+00,-2.000000000000000000e+00,-3.000000000000000000e+00,2.057495117187500000e-01,-2.068481445312500000e-01,-9.729003906250000000e-02,-9.515380859375000000e-01
-6.000000000000000000e+00,-1.700000000000000000e+01,6.000000000000000000e+00,5.000000000000000000e+00,-6.000000000000000000e+00,1.000000000000000000e+00,-2.000000000000000000e+00,-3.000000000000000000e+00,2.057495117187500000e-01,-2.068481445312500000e-01,-9.729003906250000000e-02,-9.515380859375000000e-01
3.000000000000000000e+00,1.500000000000000000e+01,1.600000000000000000e+01,3.000000000000000000e+00,6.000000000000000000e+00,0.000000000000000000e+00,0.000000000000000000e+00,2.000000000000000000e+00,2.060546875000000000e-01,-2.059326171875000000e-01,-9.759521484375000000e-02,-9.516601562500000000e-01
-4.000000000000000000e+00,-1.100000000000000000e+01,-3.500000000000000000e+01,-1.300000000000000000e+01,-4.000000000000000000e+00,-3.000000000000000000e+00,0.000000000000000000e+00,-2.000000000000000000e+00,2.060546875000000000e-01,-2.059326171875000000e-01,-9.759521484375000000e-02,-9.516601562500000000e-01
0.000000000000000000e+00,0.000000000000000000e+00,4.100000000000000000e+01,-2.000000000000000000e+00,0.000000000000000000e+00,2.000000000000000000e+00,-1.000000000000000000e+00,0.000000000000000000e+00,2.060546875000000000e-01,-2.059326171875000000e-01,-9.759521484375000000e-02,-9.516601562500000000e-01
-3.000000000000000000e+00,-3.000000000000000000e+00,-3.400000000000000000e+01,-4.000000000000000000e+00,-5.000000000000000000e+00,-4.000000000000000000e+00,-1.000000000000000000e+00,-4.000000000000000000e+00,2.060546875000000000e-01,-2.059326171875000000e-01,-9.759521484375000000e-02,-9.516601562500000000e-01
1.000000000000000000e+00,3.000000000000000000e+00,1.500000000000000000e+01,1.000000000000000000e+00,2.000000000000000000e+00,2.000000000000000000e+00,2.000000000000000000e+00,1.000000000000000000e+00,2.065429687500000000e-01,-2.050170898437500000e-01,-9.777832031250000000e-02,-9.517211914062500000e-01
0.000000000000000000e+00,8.000000000000000000e+00,3.700000000000000000e+01,7.000000000000000000e+00,1.000000000000000000e+00,0.000000000000000000e+00,-1.000000000000000000e+00,-3.000000000000000000e+00,2.065429687500000000e-01,-2.050170898437500000e-01,-9.777832031250000000e-02,-9.517211914062500000e-01
0.000000000000000000e+00,-5.000000000000000000e+00,-4.500000000000000000e+01,1.600000000000000000e+01,8.000000000000000000e+00,2.000000000000000000e+00,2.000000000000000000e+00,2.000000000000000000e+00,2.065429687500000000e-01,-2.050170898437500000e-01,-9.777832031250000000e-02,-9.517211914062500000e-01
-1.000000000000000000e+00,1.000000000000000000e+00,1.300000000000000000e+01,-2.800000000000000000e+01,-8.000000000000000000e+00,-3.000000000000000000e+00,-2.000000000000000000e+00,-1.000000000000000000e+00,2.065429687500000000e-01,-2.050170898437500000e-01,-9.777832031250000000e-02,-9.517211914062500000e-01
-3.000000000000000000e+00,-4.000000000000000000e+00,-1.000000000000000000e+01,3.000000000000000000e+00,3.000000000000000000e+00,-1.000000000000000000e+00,-2.000000000000000000e+00,-2.000000000000000000e+00,2.068481445312500000e-01,-2.041625976562500000e-01,-9.771728515625000000e-02,-9.518432617187500000e-01
-1.000000000000000000e+00,0.000000000000000000e+00,-1.800000000000000000e+01,-2.200000000000000000e+01,-1.400000000000000000e+01,0.000000000000000000e+00,0.000000000000000000e+00,1.000000000000000000e+00,2.068481445312500000e-01,-2.041625976562500000e-01,-9.771728515625000000e-02,-9.518432617187500000e-01
-4.000000000000000000e+00,-3.000000000000000000e+00,2.100000000000000000e+01,4.600000000000000000e+01,1.100000000000000000e+01,2.000000000000000000e+00,1.000000000000000000e+00,-2.000000000000000000e+00,2.068481445312500000e-01,-2.041625976562500000e-01,-9.771728515625000000e-02,-9.518432617187500000e-01
0.000000000000000000e+00,4.000000000000000000e+00,2.100000000000000000e+01,1.900000000000000000e+01,3.000000000000000000e+00,3.000000000000000000e+00,-1.000000000000000000e+00,-2.000000000000000000e+00,2.068481445312500000e-01,-2.041625976562500000e-01,-9.771728515625000000e-02,-9.518432617187500000e-01
-5.000000000000000000e+00,-4.000000000000000000e+00,3.000000000000000000e+00,-9.000000000000000000e+00,9.000000000000000000e+00,2.000000000000000000e+00,2.000000000000000000e+00,0.000000000000000000e+00,2.069702148437500000e-01,-2.036132812500000000e-01,-9.790039062500000000e-02,-9.519653320312500000e-01
-2.000000000000000000e+00,-1.000000000000000000e+00,-3.000000000000000000e+00,1.000000000000000000e+01,-8.000000000000000000e+00,-6.000000000000000000e+00,-3.000000000000000000e+00,-4.000000000000000000e+00,2.069702148437500000e-01,-2.036132812500000000e-01,-9.790039062500000000e-02,-9.519653320312500000e-01
-1.000000000000000000e+00,-7.000000000000000000e+00,-2.200000000000000000e+01,-3.700000000000000000e+01,1.000000000000000000e+00,-1.000000000000000000e+00,-3.000000000000000000e+00,0.000000000000000000e+00,2.069702148437500000e-01,-2.036132812500000000e-01,-9.790039062500000000e-02,-9.519653320312500000e-01
1.000000000000000000e+00,3.000000000000000000e+00,-3.000000000000000000e+00,1.300000000000000000e+01,2.000000000000000000e+00,1.000000000000000000e+00,0.000000000000000000e+00,0.000000000000000000e+00,2.069702148437500000e-01,-2.036132812500000000e-01,-9.790039062500000000e-02,-9.519653320312500000e-01
-1.000000000000000000e+00,-5.000000000000000000e+00,-3.700000000000000000e+01,-1.300000000000000000e+01,-3.000000000000000000e+00,-2.000000000000000000e+00,-2.000000000000000000e+00,-4.000000000000000000e+00,2.075195312500000000e-01,-2.032470703125000000e-01,-9.826660156250000000e-02,-9.518432617187500000e-01
-1.000000000000000000e+00,-4.000000000000000000e+00,8.000000000000000000e+00,3.100000000000000000e+01,5.000000000000000000e+00,1.000000000000000000e+00,-1.000000000000000000e+00,0.000000000000000000e+00,2.075195312500000000e-01,-2.032470703125000000e-01,-9.826660156250000000e-02,-9.518432617187500000e-01
0.000000000000000000e+00,4.000000000000000000e+00,1.200000000000000000e+01,4.000000000000000000e+00,-6.000000000000000000e+00,-4.000000000000000000e+00,-2.000000000000000000e+00,-3.000000000000000000e+00,2.075195312500000000e-01,-2.032470703125000000e-01,-9.826660156250000000e-02,-9.518432617187500000e-01
1.000000000000000000e+00,6.000000000000000000e+00,2.200000000000000000e+01,-8.000000000000000000e+00,3.000000000000000000e+00,3.000000000000000000e+00,1.000000000000000000e+00,-1.000000000000000000e+00,2.075195312500000000e-01,-2.032470703125000000e-01,-9.826660156250000000e-02,-9.518432617187500000e-01
-2.000000000000000000e+00,-6.000000000000000000e+00,-4.000000000000000000e+00,-1.200000000000000000e+01,-1.000000000000000000e+00,1.000000000000000000e+00,-1.000000000000000000e+00,-2.000000000000000000e+00,2.081298828125000000e-01,-2.028808593750000000e-01,-9.857177734375000000e-02,-9.517822265625000000e-01
-2.000000000000000000e+00,-4.000000000000000000e+00,3.000000000000000000e+00,-1.400000000000000000e+01,-1.000000000000000000e+00,-3.000000000000000000e+00,1.000000000000000000e+00,-1.000000000000000000e+00,2.081298828125000000e-01,-2.028808593750000000e-01,-9.857177734375000000e-02,-9.517822265625000000e-01
1.000000000000000000e+00,3.000000000000000000e+00,-6.000000000000000000e+00,-4.000000000000000000e+00,-3.000000000000000000e+00,-5.000000000000000000e+00,-4.000000000000000000e+00,1.000000000000000000e+00,2.081298828125000000e-01,-2.028808593750000000e-01,-9.857177734375000000e-02,-9.517822265625000000e-01
-6.000000000000000000e+00,-5.000000000000000000e+00,2.500000000000000000e+01,5.700000000000000000e+01,6.000000000000000000e+00,2.000000000000000000e+00,3.000000000000000000e+00,0.000000000000000000e+00,2.081298828125000000e-01,-2.028808593750000000e-01,-9.857177734375000000e-02,-9.517822265625000000e-01
1.000000000000000000e+00,1.000000000000000000e+00,-1.100000000000000000e+01,-3.100000000000000000e+01,-7.000000000000000000e+00,1.000000000000000000e+00,-1.000000000000000000e+00,1.000000000000000000e+00,2.084350585937500000e-01,-2.030029296875000000e-01,-9.893798828125000000e-02,-9.516601562500000000e-01
-5.000000000000000000e+00,-6.000000000000000000e+00,-1.300000000000000000e+01,5.000000000000000000e+00,-2.000000000000000000e+00,-5.000000000000000000e+00,-4.000000000000000000e+00,-4.000000000000000000e+00,2.084350585937500000e-01,-2.030029296875000000e-01,-9.893798828125000000e-02,-9.516601562500000000e-01
6.000000000000000000e+00,5.000000000000000000e+00,-1.600000000000000000e+01,-3.200000000000000000e+01,-4.000000000000000000e+00,3.000000000000000000e+00,0.000000000000000000e+00,2.000000000000000000e+00,2.084350585937500000e-01,-2.030029296875000000e-01,-9.893798828125000000e-02,-9.516601562500000000e-01
-4.000000000000000000e+00,-1.000000000000000000e+00,2.400000000000000000e+01,2.600000000000000000e+01,5.000000000000000000e+00,-2.000000000000000000e+00,-6.000000000000000000e+00,-4.000000000000000000e+00,2.084350585937500000e-01,-2.030029296875000000e-01,-9.893798828125000000e-02,-9.516601562500000000e-01
4.000000000000000000e+00,4.000000000000000000e+00,1.100000000000000000e+01,1.500000000000000000e+01,-4.000000000000000000e+00,3.000000000000000000e+00,3.000000000000000000e+00,2.000000000000000000e+00,2.085571289062500000e-01,-2.036743164062500000e-01,-9.948730468750000000e-02,-9.514160156250000000e-01
0.000000000000000000e+00,6.000000000000000000e+00,1.000000000000000000e+01,2.100000000000000000e+01,9.000000000000000000e+00,2.000000000000000000e+00,-1.000000000000000000e+00,-1.000000000000000000e+00,2.085571289062500000e-01,-2.036743164062500000e-01,-9.948730468750000000e-02,-9.514160156250000000e-01
-6.000000000000000000e+00,-1.100000000000000000e+01,-7.000000000000000000e+01,-3.200000000000000000e+01,-5.000000000000000000e+00,-2.000000000000000000e+00,-4.000000000000000000e+00,-4.000000000000000000e+00,2.085571289062500000e-01,-2.036743164062500000e-01,-9.948730468750000000e-02,-9.514160156250000000e-01
-1.000000000000000000e+00,-1.400000000000000000e+01,-7.900000000000000000e+01,-2.200000000000000000e+01,0.000000000000000000e+00,-1.000000000000000000e+00,-2.000000000000000000e+00,0.000000000000000000e+00,2.085571289062500000e-01,-2.036743164062500000e-01,-9.948730468750000000e-02,-9.514160156250000000e-01
5.000000000000000000e+00,4.000000000000000000e+00,-3.800000000000000000e+01,-2.100000000000000000e+01,-3.000000000000000000e+00,-3.000000000000000000e+00,1.000000000000000000e+00,2.000000000000000000e+00,2.084350585937500000e-01,-2.040405273437500000e-01,-9.979248046875000000e-02,-9.512939453125000000e-01
-4.000000000000000000e+00,-3.000000000000000000e+00,4.900000000000000000e+01,3.800000000000000000e+01,2.000000000000000000e+00,-2.000000000000000000e+00,0.000000000000000000e+00,-2.000000000000000000e+00,2.084350585937500000e-01,-2.040405273437500000e-01,-9.979248046875000000e-02,-9.512939453125000000e-01
2.000000000000000000e+00,0.000000000000000000e+00,3.400000000000000000e+01,1.400000000000000000e+01,-1.000000000000000000e+00,1.000000000000000000e+00,1.000000000000000000e+00,1.000000000000000000e+00,2.084350585937500000e-01,-2.040405273437500000e-01,-9.979248046875000000e-02,-9.512939453125000000e-01
1.000000000000000000e+00,1.000000000000000000e+00,-1.300000000000000000e+01,-1.500000000000000000e+01,-1.000000000000000000e+00,1.000000000000000000e+00,1.000000000000000000e+00,2.000000000000000000e+00,2.084350585937500000e-01,-2.040405273437500000e-01,-9.979248046875000000e-02,-9.512939453125000000e-01
3.000000000000000000e+00,8.000000000000000000e+00,4.100000000000000000e+01,1.800000000000000000e+01,0.000000000000000000e+00,-1.000000000000000000e+00,-4.000000000000000000e+00,-1.000000000000000000e+00,2.083740234375000000e-01,-2.042846679687500000e-01,-9.991455078125000000e-02,-9.512939453125000000e-01
0.000000000000000000e+00,-7.000000000000000000e+00,-8.000000000000000000e+01,-2.200000000000000000e+01,-7.000000000000000000e+00,-4.000000000000000000e+00,-5.000000000000000000e+00,-3.000000000000000000e+00,2.083740234375000000e-01,-2.042846679687500000e-01,-9.991455078125000000e-02,-9.512939453125000000e-01
0.000000000000000000e+00,7.000000000000000000e+00,9.300000000000000000e+01,1.000000000000000000e+01,-6.000000000000000000e+00,-5.000000000000000000e+00,-1.000000000000000000e+00,-2.000000000000000000e+00,2.083740234375000000e-01,-2.042846679687500000e-01,-9.991455078125000000e-02,-9.512939453125000000e-01
-1.000000000000000000e+00,-1.000000000000000000e+00,7.000000000000000000e+00,1.100000000000000000e+01,-4.000000000000000000e+00,-1.000000000000000000e+00,0.000000000000000000e+00,-2.000000000000000000e+00,2.083740234375000000e-01,-2.042846679687500000e-01,-9.991455078125000000e-02,-9.512939453125000000e-01
-1.000000000000000000e+00,0.000000000000000000e+00,1.900000000000000000e+01,-4.800000000000000000e+01,-6.000000000000000000e+00,-5.000000000000000000e+00,-1.000000000000000000e+00,-2.000000000000000000e+00,2.082519531250000000e-01,-2.047119140625000000e-01,-9.991455078125000000e-02,-9.512329101562500000e-01
2.000000000000000000e+00,6.000000000000000000e+00,5.000000000000000000e+00,2.000000000000000000e+00,3.000000000000000000e+00,1.100000000000000000e+01,6.000000000000000000e+00,2.000000000000000000e+00,2.082519531250000000e-01,-2.047119140625000000e-01,-9.991455078125000000e-02,-9.512329101562500000e-01
-5.000000000000000000e+00,-4.000000000000000000e+00,4.000000000000000000e+00,9.000000000000000000e+00,2.000000000000000000e+00,3.000000000000000000e+00,7.000000000000000000e+00,-2.000000000000000000e+00,2.082519531250000000e-01,-2.047119140625000000e-01,-9.991455078125000000e-02,-9.512329101562500000e-01
1.000000000000000000e+00,3.000000000000000000e+00,3.000000000000000000e+01,-7.000000000000000000e+00,-4.000000000000000000e+00,0.000000000000000000e+00,-2.000000000000000000e+00,-1.000000000000000000e+00,2.082519531250000000e-01,-2.047119140625000000e-01,-9.991455078125000000e-02,-9.512329101562500000e-01
-4.000000000000000000e+00,-7.000000000000000000e+00,-1.900000000000000000e+01,-9.000000000000000000e+00,-2.000000000000000000e+00,-4.000000000000000000e+00,-3.000000000000000000e+00,-3.000000000000000000e+00,2.083129882812500000e-01,-2.053222656250000000e-01,-9.985351562500000000e-02,-9.510498046875000000e-01
3.000000000000000000e+00,1.000000000000000000e+00,2.600000000000000000e+01,3.800000000000000000e+01,6.000000000000000000e+00,1.000000000000000000e+00,-2.000000000000000000e+00,2.000000000000000000e+00,2.083129882812500000e-01,-2.053222656250000000e-01,-9.985351562500000000e-02,-9.510498046875000000e-01
-1.000000000000000000e+00,-9.000000000000000000e+00,-6.500000000000000000e+01,-1.400000000000000000e+01,3.000000000000000000e+00,-3.000000000000000000e+00,-6.000000000000000000e+00,-2.000000000000000000e+00,2.083129882812500000e-01,-2.053222656250000000e-01,-9.985351562500000000e-02,-9.510498046875000000e-01
-2.000000000000000000e+00,-2.000000000000000000e+00,-1.500000000000000000e+01,-1.600000000000000000e+01,-6.000000000000000000e+00,-4.000000000000000000e+00,0.000000000000000000e+00,-4.000000000000000000e+00,2.083129882812500000e-01,-2.053222656250000000e-01,-9.985351562500000000e-02,-9.510498046875000000e-01
-1.000000000000000000e+00,-4.000000000000000000e+00,5.000000000000000000e+00,6.300000000000000000e+01,1.700000000000000000e+01,-4.000000000000000000e+00,0.000000000000000000e+00,-1.000000000000000000e+00,2.086791992187500000e-01,-2.055664062500000000e-01,-9.973144531250000000e-02,-9.509277343750000000e-01
0.000000000000000000e+00,-4.000000000000000000e+00,0.000000000000000000e+00,-5.200000000000000000e+01,-1.200000000000000000e+01,2.000000000000000000e+00,1.000000000000000000e+00,1.000000000000000000e+00,2.086791992187500000e-01,-2.055664062500000000e-01,-9.973144531250000000e-02,-9.509277343750000000e-01
-2.000000000000000000e+00,-1.000000000000000000e+00,-1.400000000000000000e+01,5.800000000000000000e+01,1.400000000000000000e+01,1.000000000000000000e+00,-1.000000000000000000e+00,-1.000000000000000000e+00,2.086791992187500000e-01,-2.055664062500000000e-01,-9.973144531250000000e-02,-9.509277343750000000e-01
1.000000000000000000e+00,4.000000000000000000e+00,3.000000000000000000e+01,7.000000000000000000e+00,0.000000000000000000e+00,-6.000000000000000000e+00,-2.000000000000000000e+00,2.000000000000000000e+00,2.086791992187500000e-01,-2.055664062500000000e-01,-9.973144531250000000e-02,-9.509277343750000000e-01
-1.000000000000000000e+00,-1.000000000000000000e+01,-4.400000000000000000e+01,-2.300000000000000000e+01,2.000000000000000000e+00,4.000000000000000000e+00,2.000000000000000000e+00,1.000000000000000000e+00,2.081909179687500000e-01,-2.056274414062500000e-01,-9.948730468750000000e-02,-9.510498046875000000e-01
-4.000000000000000000e+00,-4.000000000000000000e+00,1.100000000000000000e+01,1.700000000000000000e+01,-3.000000000000000000e+00,-3.000000000000000000e+00,-4.000000000000000000e+00,-2.000000000000000000e+00,2.081909179687500000e-01,-2.056274414062500000e-01,-9.948730468750000000e-02,-9.510498046875000000e-01
2.000000000000000000e+00,7.000000000000000000e+00,3.000000000000000000e+01,-1.400000000000000000e+01,-9.000000000000000000e+00,-5.000000000000000000e+00,-2.000000000000000000e+00,-2.000000000000000000e+00,2.081909179687500000e-01,-2.056274414062500000e-01,-9.948730468750000000e-02,-9.510498046875000000e-01
-5.000000000000000000e+00,-4.000000000000000000e+00,-1.000000000000000000e+01,-4.600000000000000000e+01,-1.200000000000000000e+01,-4.000000000000000000e+00,-4.000000000000000000e+00,-2.000000000000000000e+00,2.081909179687500000e-01,-2.056274414062500000e-01,-9.948730468750000000e-02,-9.510498046875000000e-01
-2.000000000000000000e+00,-7.000000000000000000e+00,-2.000000000000000000e+00,-6.000000000000000000e+00,-6.000000000000000000e+00,0.000000000000000000e+00,0.000000000000000000e+00,-1.000000000000000000e+00,2.087402343750000000e-01,-2.053833007812500000e-01,-9.887695312500000000e-02,-9.510498046875000000e-01
1.000000000000000000e+00,1.100000000000000000e+01,1.800000000000000000e+01,-5.000000000000000000e+00,1.000000000000000000e+00,1.000000000000000000e+00,-2.000000000000000000e+00,0.000000000000000000e+00,2.087402343750000000e-01,-2.053833007812500000e-01,-9.887695312500000000e-02,-9.510498046875000000e-01
-1.000000000000000000e+00,3.000000000000000000e+00,2.600000000000000000e+01,1.000000000000000000e+01,3.000000000000000000e+00,3.000000000000000000e+00,2.000000000000000000e+00,-1.000000000000000000e+00,2.087402343750000000e-01,-2.053833007812500000e-01,-9.887695312500000000e-02,-9.510498046875000000e-01
2.000000000000000000e+00,0.000000000000000000e+00,-1.000000000000000000e+01,3.000000000000000000e+00,1.000000000000000000e+00,1.000000000000000000e+00,2.000000000000000000e+00,0.000000000000000000e+00,2.087402343750000000e-01,-2.053833007812500000e-01,-9.887695312500000000e-02,-9.510498046875000000e-01
-2.000000000000000000e+00,-2.000000000000000000e+00,7.000000000000000000e+00,1.000000000000000000e+00,-9.000000000000000000e+00,-3.000000000000000000e+00,-4.000000000000000000e+00,-4.000000000000000000e+00,2.086181640625000000e-01,-2.049560546875000000e-01,-9.832763671875000000e-02,-9.512329101562500000e-01
1.000000000000000000e+00,-1.000000000000000000e+00,-1.600000000000000000e+01,-1.500000000000000000e+01,0.000000000000000000e+00,-4.000000000000000000e+00,-3.000000000000000000e+00,-1.000000000000000000e+00,2.086181640625000000e-01,-2.049560546875000000e-01,-9.832763671875000000e-02,-9.512329101562500000e-01
-1.000000000000000000e+00,-3.000000000000000000e+00,2.600000000000000000e+01,2.000000000000000000e+00,-1.000000000000000000e+00,0.000000000000000000e+00,0.000000000000000000e+00,1.000000000000000000e+00,2.086181640625000000e-01,-2.049560546875000000e-01,-9.832763671875000000e-02,-9.512329101562500000e-01
2.000000000000000000e+00,-3.000000000000000000e+00,-5.400000000000000000e+01,-1.800000000000000000e+01,-3.000000000000000000e+00,-6.000000000000000000e+00,-2.000000000000000000e+00,-1.000000000000000000e+00,2.086181640625000000e-01,-2.049560546875000000e-01,-9.832763671875000000e-02,-9.512329101562500000e-01
-5.000000000000000000e+00,-5.000000000000000000e+00,-1.700000000000000000e+01,2.000000000000000000e+00,-7.000000000000000000e+00,-1.000000000000000000e+00,-2.000000000000000000e+00,-2.000000000000000000e+00,2.084350585937500000e-01,-2.045898437500000000e-01,-9.832763671875000000e-02,-9.513549804687500000e-01
4.000000000000000000e+00,4.000000000000000000e+00,1.400000000000000000e+01,0.000000000000000000e+00,-4.000000000000000000e+00,-6.000000000000000000e+00,-2.000000000000000000e+00,-1.000000000000000000e+00,2.084350585937500000e-01,-2.045898437500000000e-01,-9.832763671875000000e-02,-9.513549804687500000e-01
-3.000000000000000000e+00,-5.000000000000000000e+00,-4.000000000000000000e+01,-1.800000000000000000e+01,-3.000000000000000000e+00,1.000000000000000000e+00,2.000000000000000000e+00,2.000000000000000000e+00,2.084350585937500000e-01,-2.045898437500000000e-01,-9.832763671875000000e-02,-9.513549804687500000e-01
-4.000000000000000000e+00,3.000000000000000000e+00,6.100000000000000000e+01,8.000000000000000000e+00,3.000000000000000000e+00,-1.000000000000000000e+00,-1.000000000000000000e+00,-3.000000000000000000e+00,2.084350585937500000e-01,-2.045898437500000000e-01,-9.832763671875000000e-02,-9.513549804687500000e-01
-8.000000000000000000e+00,-1.800000000000000000e+01,-2.400000000000000000e+01,-2.300000000000000000e+01,-1.000000000000000000e+00,-2.000000000000000000e+00,-2.000000000000000000e+00,-4.000000000000000000e+00,2.089233398437500000e-01,-2.043457031250000000e-01,-9.826660156250000000e-02,-9.512939453125000000e-01
0.000000000000000000e+00,-2.000000000000000000e+00,9.000000000000000000e+00,4.000000000000000000e+00,-4.000000000000000000e+00,-2.000000000000000000e+00,-3.000000000000000000e+00,-2.000000000000000000e+00,2.089233398437500000e-01,-2.043457031250000000e-01,-9.826660156250000000e-02,-9.512939453125000000e-01
3.000000000000000000e+00,2.000000000000000000e+00,8.000000000000000000e+00,-3.000000000000000000e+00,0.000000000000000000e+00,1.000000000000000000e+00,1.000000000000000000e+00,2.000000000000000000e+00,2.089233398437500000e-01,-2.043457031250000000e-01,-9.826660156250000000e-02,-9.512939453125000000e-01
-2.000000000000000000e+00,-3.000000000000000000e+00,-6.000000000000000000e+00,-1.800000000000000000e+01,-2.000000000000000000e+00,1.000000000000000000e+00,0.000000000000000000e+00,-2.000000000000000000e+00,2.089233398437500000e-01,-2.043457031250000000e-01,-9.826660156250000000e-02,-9.512939453125000000e-01
3.000000000000000000e+00,7.000000000000000000e+00,8.000000000000000000e+00,7.000000000000000000e+00,-1.000000000000000000e+00,-2.000000000000000000e+00,0.000000000000000000e+00,1.000000000000000000e+00,2.091064453125000000e-01,-2.041625976562500000e-01,-9.790039062500000000e-02,-9.513549804687500000e-01
-6.000000000000000000e+00,-3.000000000000000000e+00,1.700000000000000000e+01,5.000000000000000000e+00,1.000000000000000000e+00,-2.000000000000000000e+00,0.000000000000000000e+00,-4.000000000000000000e+00,2.091064453125000000e-01,-2.041625976562500000e-01,-9.790039062500000000e-02,-9.513549804687500000e-01
-6.000000000000000000e+00,-1.200000000000000000e+01,-2.100000000000000000e+01,-7.000000000000000000e+00,-7.000000000000000000e+00,-4.000000000000000000e+00,-3.000000000000000000e+00,-3.000000000000000000e+00,2.091064453125000000e-01,-2.041625976562500000e-01,-9.790039062500000000e-02,-9.513549804687500000e-01
3.000000000000000000e+00,6.000000000000000000e+00,-6.000000000000000000e+00,-1.200000000000000000e+01,-8.000000000000000000e+00,-1.000000000000000000e+00,-1.000000000000000000e+00,3.000000000000000000e+00,2.091064453125000000e-01,-2.041625976562500000e-01,-9.790039062500000000e-02,-9.513549804687500000e-01
0.000000000000000000e+00,-3.000000000000000000e+00,-2.700000000000000000e+01,4.000000000000000000e+00,1.000000000000000000e+00,-1.000000000000000000e+00,-1.000000000000000000e+00,-1.000000000000000000e+00,2.087402343750000000e-01,-2.036743164062500000e-01,-9.735107421875000000e-02,-9.515991210937500000e-01
-2.000000000000000000e+00,-7.000000000000000000e+00,-1.700000000000000000e+01,-3.000000000000000000e+00,-1.000000000000000000e+00,-3.000000000000000000e+00,-2.000000000000000000e+00,-2.000000000000000000e+00,2.087402343750000000e-01,-2.036743164062500000e-01,-9.735107421875000000e-02,-9.515991210937500000e-01
0.000000000000000000e+00,4.000000000000000000e+00,-9.000000000000000000e+00,-2.700000000000000000e+01,-6.000000000000000000e+00,0.000000000000000000e+00,-2.000000000000000000e+00,-2.000000000000000000e+00,2.087402343750000000e-01,-2.036743164062500000e-01,-9.735107421875000000e-02,-9.515991210937500000e-01
0.000000000000000000e+00,-2.000000000000000000e+00,-4.000000000000000000e+00,2.600000000000000000e+01,5.000000000000000000e+00,1.000000000000000000e+00,0.000000000000000000e+00,-1.000000000000000000e+00,2.087402343750000000e-01,-2.036743164062500000e-01,-9.735107421875000000e-02,-9.515991210937500000e-01
-4.000000000000000000e+00,0.000000000000000000e+00,-1.300000000000000000e+01,-2.800000000000000000e+01,-3.000000000000000000e+00,-1.000000000000000000e+00,-4.000000000000000000e+00,-2.000000000000000000e+00,2.082519531250000000e-01,-2.033081054687500000e-01,-9.722900390625000000e-02,-9.517822265625000000e-01
-2.000000000000000000e+00,-4.000000000000000000e+00,-7.000000000000000000e+00,-1.000000000000000000e+01,-1.000000000000000000e+00,1.000000000000000000e+00,2.000000000000000000e+00,3.000000000000000000e+00,2.082519531250000000e-01,-2.033081054687500000e-01,-9.722900390625000000e-02,-9.517822265625000000e-01
0.000000000000000000e+00,4.000000000000000000e+00,1.300000000000000000e+01,2.100000000000000000e+01,9.000000000000000000e+00,2.000000000000000000e+00,0.000000000000000000e+00,-1.000000000000000000e+00,2.082519531250000000e-01,-2.033081054687500000e-01,-9.722900390625000000e-02,-9.517822265625000000e-01
-6.000000000000000000e+00,-9.000000000000000000e+00,3.700000000000000000e+01,-2.500000000000000000e+01,-7.000000000000000000e+00,-1.000000000000000000e+00,-1.000000000000000000e+00,-2.000000000000000000e+00,2.082519531250000000e-01,-2.033081054687500000e-01,-9.722900390625000000e-02,-9.517822265625000000e-01
0.000000000000000000e+00,5.000000000000000000e+00,2.000000000000000000e+00,1.400000000000000000e+01,-1.000000000000000000e+00,-2.000000000000000000e+00,-1.000000000000000000e+00,-1.000000000000000000e+00,2.084960937500000000e-01,-2.033081054687500000e-01,-9.735107421875000000e-02,-9.517211914062500000e-01
-2.000000000000000000e+00,-2.000000000000000000e+00,-1.000000000000000000e+00,1.700000000000000000e+01,-2.000000000000000000e+00,2.000000000000000000e+00,3.000000000000000000e+00,-1.000000000000000000e+00,2.084960937500000000e-01,-2.033081054687500000e-01,-9.735107421875000000e-02,-9.517211914062500000e-01
-1.000000000000000000e+00,0.000000000000000000e+00,2.000000000000000000e+00,6.000000000000000000e+00,8.000000000000000000e+00,-2.000000000000000000e+00,-1.000000000000000000e+00,-1.000000000000000000e+00,2.084960937500000000e-01,-2.033081054687500000e-01,-9.735107421875000000e-02,-9.517211914062500000e-01
2.000000000000000000e+00,2.000000000000000000e+00,1.100000000000000000e+01,6.000000000000000000e+00,3.000000000000000000e+00,2.000000000000000000e+00,-1.000000000000000000e+00,0.000000000000000000e+00,2.084960937500000000e-01,-2.033081054687500000e-01,-9.735107421875000000e-02,-9.517211914062500000e-01
2.000000000000000000e+00,2.000000000000000000e+00,1.000000000000000000e+01,-2.200000000000000000e+01,-7.000000000000000000e+00,1.000000000000000000e+00,0.000000000000000000e+00,0.000000000000000000e+00,2.089233398437500000e-01,-2.031860351562500000e-01,-9.722900390625000000e-02,-9.516601562500000000e-01
-4.000000000000000000e+00,-8.000000000000000000e+00,-4.500000000000000000e+01,-2.600000000000000000e+01,-1.700000000000000000e+01,-7.000000000000000000e+00,-4.000000000000000000e+00,-5.000000000000000000e+00,2.089233398437500000e-01,-2.031860351562500000e-01,-9.722900390625000000e-02,-9.516601562500000000e-01
4.000000000000000000e+00,0.000000000000000000e+00,-2.300000000000000000e+01,-2.000000000000000000e+00,0.000000000000000000e+00,1.000000000000000000e+00,1.000000000000000000e+00,0.000000000000000000e+00,2.089233398437500000e-01,-2.031860351562500000e-01,-9.722900390625000000e-02,-9.516601562500000000e-01
-1.000000000000000000e+00,-4.000000000000000000e+00,1.700000000000000000e+01,2.200000000000000000e+01,2.000000000000000000e+01,4.000000000000000000e+00,1.000000000000000000e+00,1.000000000000000000e+00,2.089233398437500000e-01,-2.031860351562500000e-01,-9.722900390625000000e-02,-9.516601562500000000e-01
0.000000000000000000e+00,9.000000000000000000e+00,3.700000000000000000e+01,4.500000000000000000e+01,3.000000000000000000e+00,1.000000000000000000e+00,0.000000000000000000e+00,-2.000000000000000000e+00,2.082519531250000000e-01,-2.032470703125000000e-01,-9.704589843750000000e-02,-9.518432617187500000e-01
-4.000000000000000000e+00,-6.000000000000000000e+00,-4.300000000000000000e+01,-3.200000000000000000e+01,-1.000000000000000000e+00,0.000000000000000000e+00,0.000000000000000000e+00,1.000000000000000000e+00,2.082519531250000000e-01,-2.032470703125000000e-01,-9.704589843750000000e-02,-9.518432617187500000e-01
-1.000000000000000000e+00,-5.000000000000000000e+00,-1.000000000000000000e+00,-2.700000000000000000e+01,-1.900000000000000000e+01,-7.000000000000000000e+00,-3.000000000000000000e+00,-2.000000000000000000e+00,2.082519531250000000e-01,-2.032470703125000000e-01,-9.704589843750000000e-02,-9.518432617187500000e-01
1.000000000000000000e+00,1.000000000000000000e+00,-1.300000000000000000e+01,1.000000000000000000e+01,2.000000000000000000e+00,-4.000000000000000000e+00,-1.000000000000000000e+00,1.000000000000000000e+00,2.082519531250000000e-01,-2.032470703125000000e-01,-9.704589843750000000e-02,-9.518432617187500000e-01
-2.000000000000000000e+00,-3.000000000000000000e+00,-1.000000000000000000e+01,-9.000000000000000000e+00,2.000000000000000000e+00,-3.000000000000000000e+00,-2.000000000000000000e+00,-2.000000000000000000e+00,2.080688476562500000e-01,-2.034912109375000000e-01,-9.680175781250000000e-02,-9.518432617187500000e-01
2.000000000000000000e+00,3.000000000000000000e+00,1.600000000000000000e+01,2.000000000000000000e+00,6.000000000000000000e+00,6.000000000000000000e+00,5.000000000000000000e+00,2.000000000000000000e+00,2.080688476562500000e-01,-2.034912109375000000e-01,-9.680175781250000000e-02,-9.518432617187500000e-01
1.000000000000000000e+00,5.000000000000000000e+00,4.000000000000000000e+01,1.200000000000000000e+01,-6.000000000000000000e+00,-5.000000000000000000e+00,-5.000000000000000000e+00,-1.000000000000000000e+00,2.080688476562500000e-01,-2.034912109375000000e-01,-9.680175781250000000e-02,-9.518432617187500000e-01
-3.000000000000000000e+00,-8.000000000000000000e+00,-8.200000000000000000e+01,-3.000000000000000000e+01,-7.000000000000000000e+00,-2.000000000000000000e+00,0.000000000000000000e+00,-3.000000000000000000e+00,2.080688476562500000e-01,-2.034912109375000000e-01,-9.680175781250000000e-02,-9.518432617187500000e-01
-7.000000000000000000e+00,-8.000000000000000000e+00,-1.000000000000000000e+00,-2.800000000000000000e+01,1.000000000000000000e+00,-3.000000000000000000e+00,-3.000000000000000000e+00,-4.000000000000000000e+00,2.081298828125000000e-01,-2.037353515625000000e-01,-9.704589843750000000e-02,-9.517211914062500000e-01
3.000000000000000000e+00,6.000000000000000000e+00,7.000000000000000000e+00,4.300000000000000000e+01,8.000000000000000000e+00,-2.000000000000000000e+00,-4.000000000000000000e+00,1.000000000000000000e+00,2.081298828125000000e-01,-2.037353515625000000e-01,-9.704589843750000000e-02,-9.517211914062500000e-01
-6.000000000000000000e+00,-1.200000000000000000e+01,-6.000000000000000000e+00,-2.700000000000000000e+01,-9.000000000000000000e+00,-5.000000000000000000e+00,-3.000000000000000000e+00,-2.000000000000000000e+00,2.081298828125000000e-01,-2.037353515625000000e-01,-9.704589843750000000e-02,-9.517211914062500000e-01
-4.000000000000000000e+00,-7.000000000000000000e+00,-5.100000000000000000e+01,8.000000000000000000e+00,-1.000000000000000000e+00,1.000000000000000000e+00,-1.000000000000000000e+00,-1.000000000000000000e+00,2.081298828125000000e-01,-2.037353515625000000e-01,-9.704589843750000000e-02,-9.517211914062500000e-01
4.000000000000000000e+00,1.000000000000000000e+00,-4.000000000000000000e+00,1.700000000000000000e+01,-2.000000000000000000e+00,6.000000000000000000e+00,4.000000000000000000e+00,2.000000000000000000e+00,2.087402343750000000e-01,-2.042846679687500000e-01,-9.729003906250000000e-02,-9.514770507812500000e-01
5.000000000000000000e+00,7.000000000000000000e+00,-5.000000000000000000e+00,-3.300000000000000000e+01,-6.000000000000000000e+00,-6.000000000000000000e+00,-3.000000000000000000e+00,3.000000000000000000e+00,2.087402343750000000e-01,-2.042846679687500000e-01,-9.729003906250000000e-02,-9.514770507812500000e-01
1.000000000000000000e+00,4.000000000000000000e+00,2.300000000000000000e+01,-9.000000000000000000e+00,6.000000000000000000e+00,3.000000000000000000e+00,1.000000000000000000e+00,-1.000000000000000000e+00,2.087402343750000000e-01,-2.042846679687500000e-01,-9.729003906250000000e-02,-9.514770507812500000e-01
-3.000000000000000000e+00,3.000000000000000000e+00,2.800000000000000000e+01,1.100000000000000000e+01,-4.000000000000000000e+00,-6.000000000000000000e+00,-3.000000000000000000e+00,-2.000000000000000000e+00,2.087402343750000000e-01,-2.042846679687500000e-01,-9.729003906250000000e-02,-9.514770507812500000e-01
-2.000000000000000000e+00,-7.000000000000000000e+00,4.100000000000000000e+01,-2.500000000000000000e+01,-4.000000000000000000e+00,0.000000000000000000e+00,1.000000000000000000e+00,0.000000000000000000e+00,2.090454101562500000e-01,-2.050781250000000000e-01,-9.698486328125000000e-02,-9.512939453125000000e-01
1.000000000000000000e+00,-3.000000000000000000e+00,0.000000000000000000e+00,-6.000000000000000000e+00,0.000000000000000000e+00,-1.000000000000000000e+00,1.000000000000000000e+00,-1.000000000000000000e+00,2.090454101562500000e-01,-2.050781250000000000e-01,-9.698486328125000000e-02,-9.512939453125000000e-01
3.000000000000000000e+00,3.000000000000000000e+00,-8.000000000000000000e+00,2.100000000000000000e+01,4.000000000000000000e+00,0.000000000000000000e+00,0.000000000000000000e+00,2.000000000000000000e+00,2.090454101562500000e-01,-2.050781250000000000e-01,-9.698486328125000000e-02,-9.512939453125000000e-01
4.000000000000000000e+00,5.000000000000000000e+00,5.000000000000000000e+00,-2.000000000000000000e+00,-4.000000000000000000e+00,-1.000000000000000000e+00,-2.000000000000000000e+00,0.000000000000000000e+00,2.090454101562500000e-01,-2.050781250000000000e-01,-9.698486328125000000e-02,-9.512939453125000000e-01
0.000000000000000000e+00,4.000000000000000000e+00,1.300000000000000000e+01,2.400000000000000000e+01,1.100000000000000000e+01,5.000000000000000000e+00,1.000000000000000000e+00,1.000000000000000000e+00,2.080688476562500000e-01,-2.055053710937500000e-01,-9.674072265625000000e-02,-9.514160156250000000e-01
-4.000000000000000000e+00,1.000000000000000000e+00,5.300000000000000000e+01,3.300000000000000000e+01,1.000000000000000000e+01,1.000000000000000000e+00,-2.000000000000000000e+00,-3.000000000000000000e+00,2.080688476562500000e-01,-2.055053710937500000e-01,-9.674072265625000000e-02,-9.514160156250000000e-01
-3.000000000000000000e+00,-3.000000000000000000e+00,1.200000000000000000e+01,-1.300000000000000000e+01,-8.000000000000000000e+00,-3.000000000000000000e+00,-2.000000000000000000e+00,-2.000000000000000000e+00,2.080688476562500000e-01,-2.055053710937500000e-01,-9.674072265625000000e-02,-9.514160156250000000e-01
0.000000000000000000e+00,1.000000000000000000e+00,-1.200000000000000000e+01,-1.000000000000000000e+00,-8.000000000000000000e+00,-4.000000000000000000e+00,1.000000000000000000e+00,0.000000000000000000e+00,2.080688476562500000e-01,-2.055053710937500000e-01,-9.674072265625000000e-02,-9.514160156250000000e-01
-1.000000000000000000e+00,-3.000000000000000000e+00,-2.900000000000000000e+01,1.400000000000000000e+01,5.000000000000000000e+00,-1.000000000000000000e+00,-2.000000000000000000e+00,-1.000000000000000000e+00,2.078247070312500000e-01,-2.056884765625000000e-01,-9.667968750000000000e-02,-9.514160156250000000e-01
0.000000000000000000e+00,1.000000000000000000e+00,2.000000000000000000e+00,-1.900000000000000000e+01,-3.000000000000000000e+00,-4.000000000000000000e+00,-2.000000000000000000e+00,-1.000000000000000000e+00,2.078247070312500000e-01,-2.056884765625000000e-01,-9.667968750000000000e-02,-9.514160156250000000e-01
-3.000000000000000000e+00,5.000000000000000000e+00,4.000000000000000000e+00,-2.600000000000000000e+01,-2.000000000000000000e+00,0.000000000000000000e+00,0.000000000000000000e+00,-1.000000000000000000e+00,2.078247070312500000e-01,-2.056884765625000000e-01,-9.667968750000000000e-02,-9.514160156250000000e-01
-1.000000000000000000e+00,-1.400000000000000000e+01,-4.300000000000000000e+01,2.000000000000000000e+00,-2.000000000000000000e+00,2.000000000000000000e+00,0.000000000000000000e+00,-1.000000000000000000e+00,2.078247070312500000e-01,-2.056884765625000000e-01,-9.667968750000000000e-02,-9.514160156250000000e-01
5.000000000000000000e+00,7.000000000000000000e+00,2.000000000000000000e+00,2.000000000000000000e+00,-3.000000000000000000e+00,-3.000000000000000000e+00,-2.000000000000000000e+00,1.000000000000000000e+00,2.087402343750000000e-01,-2.056884765625000000e-01,-9.710693359375000000e-02,-9.511718750000000000e-01
-1.000000000000000000e+00,0.000000000000000000e+00,2.000000000000000000e+00,4.000000000000000000e+00,-1.000000000000000000e+00,0.000000000000000000e+00,2.000000000000000000e+00,-2.000000000000000000e+00,2.087402343750000000e-01,-2.056884765625000000e-01,-9.710693359375000000e-02,-9.511718750000000000e-01
-2.000000000000000000e+00,-2.000000000000000000e+00,5.000000000000000000e+00,1.000000000000000000e+01,7.000000000000000000e+00,5.000000000000000000e+00,2.000000000000000000e+00,0.000000000000000000e+00,2.087402343750000000e-01,-2.056884765625000000e-01,-9.710693359375000000e-02,-9.511718750000000000e-01
-1.000000000000000000e+00,7.000000000000000000e+00,5.300000000000000000e+01,1.100000000000000000e+01,1.000000000000000000e+00,-4.000000000000000000e+00,-3.000000000000000000e+00,-1.000000000000000000e+00,2.087402343750000000e-01,-2.056884765625000000e-01,-9.710693359375000000e-02,-9.511718750000000000e-01
3.000000000000000000e+00,2.000000000000000000e+00,-4.600000000000000000e+01,-2.300000000000000000e+01,-8.000000000000000000e+00,-2.000000000000000000e+00,0.000000000000000000e+00,1.000000000000000000e+00,2.095336914062500000e-01,-2.058715820312500000e-01,-9.722900390625000000e-02,-9.509887695312500000e-01
-4.000000000000000000e+00,-8.000000000000000000e+00,-8.000000000000000000e+00,1.000000000000000000e+00,2.000000000000000000e+00,2.000000000000000000e+00,-4.000000000000000000e+00,-2.000000000000000000e+00,2.095336914062500000e-01,-2.058715820312500000e-01,-9.722900390625000000e-02,-9.509887695312500000e-01
4.000000000000000000e+00,3.000000000000000000e+00,2.000000000000000000e+00,3.400000000000000000e+01,0.000000000000000000e+00,0.000000000000000000e+00,-1.000000000000000000e+00,1.000000000000000000e+00,2.095336914062500000e-01,-2.058715820312500000e-01,-9.722900390625000000e-02,-9.509887695312500000e-01
0.000000000000000000e+00,-1.000000000000000000e+00,3.500000000000000000e+01,1.000000000000000000e+01,-1.000000000000000000e+00,3.000000000000000000e+00,2.000000000000000000e+00,1.000000000000000000e+00,2.095336914062500000e-01,-2.058715820312500000e-01,-9.722900390625000000e-02,-9.509887695312500000e-01
-6.000000000000000000e+00,-8.000000000000000000e+00,-1.400000000000000000e+01,-1.300000000000000000e+01,-5.000000000000000000e+00,-4.000000000000000000e+00,-3.000000000000000000e+00,-4.000000000000000000e+00,2.090454101562500000e-01,-2.058715820312500000e-01,-9.686279296875000000e-02,-9.511108398437500000e-01
0.000000000000000000e+00,2.000000000000000000e+00,3.300000000000000000e+01,2.200000000000000000e+01,-2.000000000000000000e+00,-1.000000000000000000e+00,-3.000000000000000000e+00,-2.000000000000000000e+00,2.090454101562500000e-01,-2.058715820312500000e-01,-9.686279296875000000e-02,-9.511108398437500000e-01
-5.000000000000000000e+00,-6.000000000000000000e+00,-1.300000000000000000e+01,1.800000000000000000e+01,1.100000000000000000e+01,2.000000000000000000e+00,0.000000000000000000e+00,-1.000000000000000000e+00,2.090454101562500000e-01,-2.058715820312500000e-01,-9.686279296875000000e-02,-9.511108398437500000e-01
-2.000000000000000000e+00,0.000000000000000000e+00,-1.000000000000000000e+01,-1.600000000000000000e+01,-4.000000000000000000e+00,-1.000000000000000000e+00,-1.000000000000000000e+00,-1.000000000000000000e+00,2.090454101562500000e-01,-2.058715820312500000e-01,-9.686279296875000000e-02,-9.511108398437500000e-01
-6.000000000000000000e+00,-2.000000000000000000e+00,2.900000000000000000e+01,-9.000000000000000000e+00,-8.000000000000000000e+00,-5.000000000000000000e+00,-4.000000000000000000e+00,-3.000000000000000000e+00,2.080688476562500000e-01,-2.059326171875000000e-01,-9.655761718750000000e-02,-9.513549804687500000e-01
-2.000000000000000000e+00,-2.000000000000000000e+00,-3.800000000000000000e+01,-1.200000000000000000e+01,-3.000000000000000000e+00,1.000000000000000000e+00,0.000000000000000000e+00,0.000000000000000000e+00,2.080688476562500000e-01,-2.059326171875000000e-01,-9.655761718750000000e-02,-9.513549804687500000e-01
-1.000000000000000000e+00,-2.000000000000000000e+00,-3.100000000000000000e+01,-8.000000000000000000e+00,-3.000000000000000000e+00,-3.000000000000000000e+00,-2.000000000000000000e+00,1.000000000000000000e+00,2.080688476562500000e-01,-2.059326171875000000e-01,-9.655761718750000000e-02,-9.513549804687500000e-01
-3.000000000000000000e+00,-4.000000000000000000e+00,2.000000000000000000e+00,1.500000000000000000e+01,0.000000000000000000e+00,1.000000000000000000e+00,-1.000000000000000000e+00,-2.000000000000000000e+00,2.080688476562500000e-01,-2.059326171875000000e-01,-9.655761718750000000e-02,-9.513549804687500000e-01
3.000000000000000000e+00,1.000000000000000000e+00,-5.000000000000000000e+01,-1.100000000000000000e+01,-2.000000000000000000e+00,-1.000000000000000000e+00,2.000000000000000000e+00,1.000000000000000000e+00,2.080078125000000000e-01,-2.058715820312500000e-01,-9.704589843750000000e-02,-9.512939453125000000e-01
1.000000000000000000e+00,3.000000000000000000e+00,2.900000000000000000e+01,1.700000000000000000e+01,5.000000000000000000e+00,0.000000000000000000e+00,-1.000000000000000000e+00,-1.000000000000000000e+00,2.080078125000000000e-01,-2.058715820312500000e-01,-9.704589843750000000e-02,-9.512939453125000000e-01
2.000000000000000000e+00,5.000000000000000000e+00,1.200000000000000000e+01,1.000000000000000000e+01,-1.000000000000000000e+00,0.000000000000000000e+00,-1.000000000000000000e+00,1.000000000000000000e+00,2.080078125000000000e-01,-2.058715820312500000e-01,-9.704589843750000000e-02,-9.512939453125000000e-01
3.000000000000000000e+00,6.000000000000000000e+00,2.700000000000000000e+01,2.400000000000000000e+01,3.000000000000000000e+00,2.000000000000000000e+00,1.000000000000000000e+00,1.000000000000000000e+00,2.080078125000000000e-01,-2.058715820312500000e-01,-9.704589843750000000e-02,-9.512939453125000000e-01
-4.000000000000000000e+00,-1.500000000000000000e+01,-5.200000000000000000e+01,-3.300000000000000000e+01,-4.000000000000000000e+00,2.000000000000000000e+00,0.000000000000000000e+00,0.000000000000000000e+00,2.083740234375000000e-01,-2.058105468750000000e-01,-9.753417968750000000e-02,-9.511718750000000000e-01
-4.000000000000000000e+00,-5.000000000000000000e+00,-1.200000000000000000e+01,1.000000000000000000e+01,0.000000000000000000e+00,-1.000000000000000000e+00,1.000000000000000000e+00,-3.000000000000000000e+00,2.083740234375000000e-01,-2.058105468750000000e-01,-9.753417968750000000e-02,-9.511718750000000000e-01
-2.000000000000000000e+00,-6.000000000000000000e+00,0.000000000000000000e+00,-1.900000000000000000e+01,0.000000000000000000e+00,-6.000000000000000000e+00,-6.000000000000000000e+00,-5.000000000000000000e+00,2.083740234375000000e-01,-2.058105468750000000e-01,-9.753417968750000000e-02,-9.511718750000000000e-01
2.000000000000000000e+00,1.000000000000000000e+00,-6.000000000000000000e+00,2.000000000000000000e+00,6.000000000000000000e+00,-5.000000000000000000e+00,-3.000000000000000000e+00,1.000000000000000000e+00,2.083740234375000000e-01,-2.058105468750000000e-01,-9.753417968750000000e-02,-9.511718750000000000e-01
0.000000000000000000e+00,4.000000000000000000e+00,1.500000000000000000e+01,1.400000000000000000e+01,7.000000000000000000e+00,2.000000000000000000e+00,-1.000000000000000000e+00,2.000000000000000000e+00,2.081298828125000000e-01,-2.059936523437500000e-01,-9.765625000000000000e-02,-9.511718750000000000e-01
-5.000000000000000000e+00,-1.400000000000000000e+01,-8.000000000000000000e+00,5.000000000000000000e+01,-2.000000000000000000e+00,2.000000000000000000e+00,0.000000000000000000e+00,-1.000000000000000000e+00,2.081298828125000000e-01,-2.059936523437500000e-01,-9.765625000000000000e-02,-9.511718750000000000e-01
-4.000000000000000000e+00,-2.000000000000000000e+00,-9.000000000000000000e+00,-4.800000000000000000e+01,-9.000000000000000000e+00,-3.000000000000000000e+00,-1.000000000000000000e+00,1.000000000000000000e+00,2.081298828125000000e-01,-2.059936523437500000e-01,-9.765625000000000000e-02,-9.511718750000000000e-01
-1.000000000000000000e+00,-2.000000000000000000e+00,-1.100000000000000000e+01,-6.000000000000000000e+00,-2.000000000000000000e+00,0.000000000000000000e+00,1.000000000000000000e+00,-2.000000000000000000e+00,2.081298828125000000e-01,-2.059936523437500000e-01,-9.765625000000000000e-02,-9.511718750000000000e-01
2.000000000000000000e+00,6.000000000000000000e+00,5.100000000000000000e+01,3.000000000000000000e+01,1.000000000000000000e+00,-6.000000000000000000e+00,-4.000000000000000000e+00,-1.000000000000000000e+00,2.068481445312500000e-01,-2.061157226562500000e-01,-9.765625000000000000e-02,-9.514160156250000000e-01
-2.000000000000000000e+00,2.000000000000000000e+00,2.300000000000000000e+01,-1.600000000000000000e+01,6.000000000000000000e+00,5.000000000000000000e+00,2.000000000000000000e+00,1.000000000000000000e+00,2.068481445312500000e-01,-2.061157226562500000e-01,-9.765625000000000000e-02,-9.514160156250000000e-01
-6.000000000000000000e+00,-1.000000000000000000e+01,6.000000000000000000e+00,2.000000000000000000e+00,-6.000000000000000000e+00,-3.000000000000000000e+00,-1.000000000000000000e+00,-3.000000000000000000e+00,2.068481445312500000e-01,-2.061157226562500000e-01,-9.765625000000000000e-02,-9.514160156250000000e-01
1.000000000000000000e+00,3.000000000000000000e+00,8.000000000000000000e+00,-1.500000000000000000e+01,-4.000000000000000000e+00,0.000000000000000000e+00,-3.000000000000000000e+00,-1.000000000000000000e+00,2.068481445312500000e-01,-2.061157226562500000e-01,-9.765625000000000000e-02,-9.514160156250000000e-01
0.000000000000000000e+00,2.000000000000000000e+00,2.700000000000000000e+01,1.000000000000000000e+01,0.000000000000000000e+00,-1.000000000000000000e+00,1.000000000000000000e+00,0.000000000000000000e+00,2.060546875000000000e-01,-2.061157226562500000e-01,-9.796142578125000000e-02,-9.515991210937500000e-01
0.000000000000000000e+00,4.000000000000000000e+00,-5.000000000000000000e+00,-1.800000000000000000e+01,-5.000000000000000000e+00,-5.000000000000000000e+00,-3.000000000000000000e+00,0.000000000000000000e+00,2.060546875000000000e-01,-2.061157226562500000e-01,-9.796142578125000000e-02,-9.515991210937500000e-01
4.000000000000000000e+00,-1.000000000000000000e+00,-1.600000000000000000e+01,-5.000000000000000000e+00,-3.000000000000000000e+00,2.000000000000000000e+00,2.000000000000000000e+00,2.000000000000000000e+00,2.060546875000000000e-01,-2.061157226562500000e-01,-9.796142578125000000e-02,-9.515991210937500000e-01
-3.000000000000000000e+00,-3.000000000000000000e+00,8.000000000000000000e+00,7.000000000000000000e+00,-3.000000000000000000e+00,-7.000000000000000000e+00,-4.000000000000000000e+00,-2.000000000000000000e+00,2.060546875000000000e-01,-2.061157226562500000e-01,-9.796142578125000000e-02,-9.515991210937500000e-01
1.000000000000000000e+00,0.000000000000000000e+00,-1.800000000000000000e+01,-1.300000000000000000e+01,0.000000000000000000e+00,-3.000000000000000000e+00,-3.000000000000000000e+00,-3.000000000000000000e+00,2.062988281250000000e-01,-2.059936523437500000e-01,-9.832763671875000000e-02,-9.515380859375000000e-01
-2.000000000000000000e+00,3.000000000000000000e+00,3.700000000000000000e+01,3.600000000000000000e+01,8.000000000000000000e+00,0.000000000000000000e+00,-2.000000000000000000e+00,-1.000000000000000000e+00,2.062988281250000000e-01,-2.059936523437500000e-01,-9.832763671875000000e-02,-9.515380859375000000e-01
1.000000000000000000e+00,-1.000000000000000000e+00,3.900000000000000000e+01,0.000000000000000000e+00,-5.000000000000000000e+00,-1.000000000000000000e+00,-1.000000000000000000e+00,0.000000000000000000e+00,2.062988281250000000e-01,-2.059936523437500000e-01,-9.832763671875000000e-02,-9.515380859375000000e-01
-3.000000000000000000e+00,-7.000000000000000000e+00,-1.400000000000000000e+01,-2.300000000000000000e+01,-9.000000000000000000e+00,-3.000000000000000000e+00,-1.000000000000000000e+00,-1.000000000000000000e+00,2.062988281250000000e-01,-2.059936523437500000e-01,-9.832763671875000000e-02,-9.515380859375000000e-01
-3.000000000000000000e+00,-3.000000000000000000e+00,-3.100000000000000000e+01,-1.300000000000000000e+01,-7.000000000000000000e+00,3.000000000000000000e+00,0.000000000000000000e+00,-1.000000000000000000e+00,2.070312500000000000e-01,-2.061157226562500000e-01,-9.844970703125000000e-02,-9.513549804687500000e-01
0.000000000000000000e+00,3.000000000000000000e+00,-1.900000000000000000e+01,1.000000000000000000e+01,0.000000000000000000e+00,-1.000000000000000000e+00,-2.000000000000000000e+00,0.000000000000000000e+00,2.070312500000000000e-01,-2.061157226562500000e-01,-9.844970703125000000e-02,-9.513549804687500000e-01
0.000000000000000000e+00,2.000000000000000000e+00,2.900000000000000000e+01,1.100000000000000000e+01,8.000000000000000000e+00,3.000000000000000000e+00,-1.000000000000000000e+00,0.000000000000000000e+00,2.070312500000000000e-01,-2.061157226562500000e-01,-9.844970703125000000e-02,-9.513549804687500000e-01
3.000000000000000000e+00,7.000000000000000000e+00,3.000000000000000000e+01,1.600000000000000000e+01,0.000000000000000000e+00,1.000000000000000000e+00,-2.000000000000000000e+00,0.000000000000000000e+00,2.070312500000000000e-01,-2.061157226562500000e-01,-9.844970703125000000e-02,-9.513549804687500000e-01
-2.000000000000000000e+00,-5.000000000000000000e+00,2.300000000000000000e+01,-6.000000000000000000e+00,-3.000000000000000000e+00,2.000000000000000000e+00,1.000000000000000000e+00,-2.000000000000000000e+00,2.062377929687500000e-01,-2.066040039062500000e-01,-9.814453125000000000e-02,-9.514160156250000000e-01
0.000000000000000000e+00,-5.000000000000000000e+00,-3.400000000000000000e+01,-2.500000000000000000e+01,4.000000000000000000e+00,-1.000000000000000000e+00,-1.000000000000000000e+00,-1.000000000000000000e+00,2.062377929687500000e-01,-2.066040039062500000e-01,-9.814453125000000000e-02,-9.514160156250000000e-01
-3.000000000000000000e+00,0.000000000000000000e+00,-3.900000000000000000e+01,1.400000000000000000e+01,-2.000000000000000000e+00,-4.000000000000000000e+00,-4.000000000000000000e+00,-4.000000000000000000e+00,2.062377929687500000e-01,-2.066040039062500000e-01,-9.814453125000000000e-02,-9.514160156250000000e-01
1.000000000000000000e+00,0.000000000000000000e+00,-9.000000000000000000e+00,-1.500000000000000000e+01,-4.000000000000000000e+00,-6.000000000000000000e+00,-5.000000000000000000e+00,0.000000000000000000e+00,2.062377929687500000e-01,-2.066040039062500000e-01,-9.814453125000000000e-02,-9.514160156250000000e-01
