-1.000000000000000000e+00,2.000000000000000000e+00,4.000000000000000000e+00,6.000000000000000000e+00,-1.000000000000000000e+00,-7.000000000000000000e+00,-2.000000000000000000e+00,-3.000000000000000000e+00,-4.327392578125000000e-01,2.927856445312500000e-01,6.228637695312500000e-01,5.822143554687500000e-01
-3.000000000000000000e+00,-4.000000000000000000e+00,-4.000000000000000000e+00,-4.000000000000000000e+00,-3.000000000000000000e+00,-6.000000000000000000e+00,-8.000000000000000000e+00,-2.000000000000000000e+00,-4.327392578125000000e-01,2.927856445312500000e-01,6.228637695312500000e-01,5.822143554687500000e-01
-2.000000000000000000e+00,-2.000000000000000000e+00,-2.000000000000000000e+00,0.000000000000000000e+00,-2.000000000000000000e+00,-5.000000000000000000e+00,6.000000000000000000e+00,0.000000000000000000e+00,-4.327392578125000000e-01,2.927856445312500000e-01,6.228637695312500000e-01,5.822143554687500000e-01
-6.000000000000000000e+00,-8.000000000000000000e+00,-3.000000000000000000e+00,-8.000000000000000000e+00,-8.000000000000000000e+00,-9.000000000000000000e+00,-1.300000000000000000e+01,-5.000000000000000000e+00,-4.327392578125000000e-01,2.927856445312500000e-01,6.228637695312500000e-01,5.822143554687500000e-01
2.000000000000000000e+00,0.000000000000000000e+00,-3.000000000000000000e+00,-3.000000000000000000e+00,-1.000000000000000000e+00,2.000000000000000000e+00,-3.000000000000000000e+00,0.000000000000000000e+00,-4.349975585937500000e-01,2.896118164062500000e-01,6.210937500000000000e-01,5.840454101562500000e-01
-2.000000000000000000e+00,-1.000000000000000000e+00,2.000000000000000000e+00,3.000000000000000000e+00,-1.000000000000000000e+00,-1.000000000000000000e+00,-1.000000000000000000e+01,-1.000000000000000000e+00,-4.349975585937500000e-01,2.896118164062500000e-01,6.210937500000000000e-01,5.840454101562500000e-01
-4.000000000000000000e+00,2.000000000000000000e+00,-4.000000000000000000e+00,-9.000000000000000000e+00,-5.000000000000000000e+00,-1.100000000000000000e+01,-8.000000000000000000e+00,-3.000000000000000000e+00,-4.349975585937500000e-01,2.896118164062500000e-01,6.210937500000000000e-01,5.840454101562500000e-01
-2.000000000000000000e+00,-4.000000000000000000e+00,-2.000000000000000000e+00,6.000000000000000000e+00,0.000000000000000000e+00,1.000000000000000000e+01,1.900000000000000000e+01,1.000000000000000000e+00,-4.349975585937500000e-01,2.896118164062500000e-01,6.210937500000000000e-01,5.840454101562500000e-01
0.000000000000000000e+00,0.000000000000000000e+00,8.000000000000000000e+00,-2.000000000000000000e+00,-1.000000000000000000e+00,-6.000000000000000000e+00,-1.600000000000000000e+01,0.000000000000000000e+00,-4.356079101562500000e-01,2.882080078125000000e-01,6.189575195312500000e-01,5.865478515625000000e-01
0.000000000000000000e+00,0.000000000000000000e+00,1.000000000000000000e+00,2.000000000000000000e+00,-1.000000000000000000e+00,-5.000000000000000000e+00,-6.000000000000000000e+00,-4.000000000000000000e+00,-4.356079101562500000e-01,2.882080078125000000e-01,6.189575195312500000e-01,5.865478515625000000e-01
-6.000000000000000000e+00,3.000000000000000000e+00,-2.000000000000000000e+00,-2.000000000000000000e+00,2.000000000000000000e+00,-3.000000000000000000e+00,0.000000000000000000e+00,-2.000000000000000000e+00,-4.356079101562500000e-01,2.882080078125000000e-01,6.189575195312500000e-01,5.865478515625000000e-01
0.000000000000000000e+00,-3.000000000000000000e+00,1.000000000000000000e+01,2.000000000000000000e+00,-2.000000000000000000e+00,1.000000000000000000e+00,6.000000000000000000e+00,-1.000000000000000000e+00,-4.356079101562500000e-01,2.882080078125000000e-01,6.189575195312500000e-01,5.865478515625000000e-01
-1.000000000000000000e+00,-3.000000000000000000e+00,-1.600000000000000000e+01,-6.000000000000000000e+00,0.000000000000000000e+00,2.000000000000000000e+00,3.000000000000000000e+00,0.000000000000000000e+00,-4.356689453125000000e-01,2.868041992187500000e-01,6.168823242187500000e-01,5.893554687500000000e-01
-2.000000000000000000e+00,-2.000000000000000000e+00,-3.000000000000000000e+00,-4.000000000000000000e+00,-2.000000000000000000e+00,0.000000000000000000e+00,-4.000000000000000000e+00,-1.000000000000000000e+00,-4.356689453125000000e-01,2.868041992187500000e-01,6.168823242187500000e-01,5.893554687500000000e-01
2.000000000000000000e+00,1.000000000000000000e+00,-1.000000000000000000e+00,4.000000000000000000e+00,3.000000000000000000e+00,4.000000000000000000e+00,3.000000000000000000e+00,0.000000000000000000e+00,-4.356689453125000000e-01,2.868041992187500000e-01,6.168823242187500000e-01,5.893554687500000000e-01
-3.000000000000000000e+00,-2.000000000000000000e+00,-5.000000000000000000e+00,-5.000000000000000000e+00,-3.000000000000000000e+00,-8.000000000000000000e+00,-9.000000000000000000e+00,-2.000000000000000000e+00,-4.356689453125000000e-01,2.868041992187500000e-01,6.168823242187500000e-01,5.893554687500000000e-01
-1.000000000000000000e+00,-3.000000000000000000e+00,2.000000000000000000e+00,3.000000000000000000e+00,1.000000000000000000e+00,-2.000000000000000000e+00,0.000000000000000000e+00,-1.000000000000000000e+00,-4.371337890625000000e-01,2.837524414062500000e-01,6.155395507812500000e-01,5.911254882812500000e-01
-1.000000000000000000e+00,0.000000000000000000e+00,-3.000000000000000000e+00,-1.200000000000000000e+01,0.000000000000000000e+00,-2.000000000000000000e+00,-2.000000000000000000e+00,-1.000000000000000000e+00,-4.371337890625000000e-01,2.837524414062500000e-01,6.155395507812500000e-01,5.911254882812500000e-01
-1.000000000000000000e+00,-1.000000000000000000e+00,0.000000000000000000e+00,1.500000000000000000e+01,0.000000000000000000e+00,0.000000000000000000e+00,3.000000000000000000e+00,-2.000000000000000000e+00,-4.371337890625000000e-01,2.837524414062500000e-01,6.155395507812500000e-01,5.911254882812500000e-01
-1.000000000000000000e+00,-1.000000000000000000e+00,-1.000000000000000000e+00,-6.000000000000000000e+00,-3.000000000000000000e+00,-1.100000000000000000e+01,-9.000000000000000000e+00,1.000000000000000000e+00,-4.371337890625000000e-01,2.837524414062500000e-01,6.155395507812500000e-01,5.911254882812500000e-01
-1.000000000000000000e+00,-3.000000000000000000e+00,0.000000000000000000e+00,-1.000000000000000000e+00,-1.000000000000000000e+00,4.000000000000000000e+00,1.500000000000000000e+01,2.000000000000000000e+00,-4.389648437500000000e-01,2.803955078125000000e-01,6.146850585937500000e-01,5.922851562500000000e-01
-2.000000000000000000e+00,-5.000000000000000000e+00,-6.000000000000000000e+00,-2.000000000000000000e+00,-3.000000000000000000e+00,6.000000000000000000e+00,0.000000000000000000e+00,0.000000000000000000e+00,-4.389648437500000000e-01,2.803955078125000000e-01,6.146850585937500000e-01,5.922851562500000000e-01
3.000000000000000000e+00,2.000000000000000000e+00,4.000000000000000000e+00,-6.000000000000000000e+00,-4.000000000000000000e+00,-6.000000000000000000e+00,-5.000000000000000000e+00,1.000000000000000000e+00,-4.389648437500000000e-01,2.803955078125000000e-01,6.146850585937500000e-01,5.922851562500000000e-01
1.000000000000000000e+00,0.000000000000000000e+00,-3.000000000000000000e+00,5.000000000000000000e+00,5.000000000000000000e+00,7.000000000000000000e+00,7.000000000000000000e+00,-2.000000000000000000e+00,-4.389648437500000000e-01,2.803955078125000000e-01,6.146850585937500000e-01,5.922851562500000000e-01
-1.000000000000000000e+00,0.000000000000000000e+00,-7.000000000000000000e+00,6.000000000000000000e+00,0.000000000000000000e+00,-4.000000000000000000e+00,-1.000000000000000000e+00,-1.000000000000000000e+00,-4.407958984375000000e-01,2.775878906250000000e-01,6.129150390625000000e-01,5.940551757812500000e-01
-2.000000000000000000e+00,-5.000000000000000000e+00,2.000000000000000000e+00,-6.000000000000000000e+00,0.000000000000000000e+00,4.000000000000000000e+00,1.200000000000000000e+01,-1.000000000000000000e+00,-4.407958984375000000e-01,2.775878906250000000e-01,6.129150390625000000e-01,5.940551757812500000e-01
-4.000000000000000000e+00,-5.000000000000000000e+00,-2.000000000000000000e+00,-7.000000000000000000e+00,-1.000000000000000000e+00,-1.300000000000000000e+01,-2.100000000000000000e+01,-4.000000000000000000e+00,-4.407958984375000000e-01,2.775878906250000000e-01,6.129150390625000000e-01,5.940551757812500000e-01
1.000000000000000000e+00,1.000000000000000000e+00,-1.000000000000000000e+00,0.000000000000000000e+00,1.000000000000000000e+00,0.000000000000000000e+00,-1.000000000000000000e+00,0.000000000000000000e+00,-4.407958984375000000e-01,2.775878906250000000e-01,6.129150390625000000e-01,5.940551757812500000e-01
0.000000000000000000e+00,0.000000000000000000e+00,2.000000000000000000e+00,-5.000000000000000000e+00,-4.000000000000000000e+00,-7.000000000000000000e+00,-3.000000000000000000e+00,-2.000000000000000000e+00,-4.407958984375000000e-01,2.763671875000000000e-01,6.107788085937500000e-01,5.968017578125000000e-01
0.000000000000000000e+00,4.000000000000000000e+00,-2.000000000000000000e+00,-1.000000000000000000e+00,-3.000000000000000000e+00,-5.000000000000000000e+00,4.000000000000000000e+00,-1.000000000000000000e+00,-4.407958984375000000e-01,2.763671875000000000e-01,6.107788085937500000e-01,5.968017578125000000e-01
-2.000000000000000000e+00,-3.000000000000000000e+00,-8.000000000000000000e+00,-1.000000000000000000e+00,1.000000000000000000e+00,1.600000000000000000e+01,1.900000000000000000e+01,2.000000000000000000e+00,-4.407958984375000000e-01,2.763671875000000000e-01,6.107788085937500000e-01,5.968017578125000000e-01
-1.000000000000000000e+00,-3.000000000000000000e+00,-4.000000000000000000e+00,-7.000000000000000000e+00,-2.000000000000000000e+00,-3.000000000000000000e+00,-1.400000000000000000e+01,-3.000000000000000000e+00,-4.407958984375000000e-01,2.763671875000000000e-01,6.107788085937500000e-01,5.968017578125000000e-01
-2.000000000000000000e+00,0.000000000000000000e+00,4.000000000000000000e+00,7.000000000000000000e+00,-1.000000000000000000e+00,1.000000000000000000e+00,0.000000000000000000e+00,-1.000000000000000000e+00,-4.400024414062500000e-01,2.756958007812500000e-01,6.092529296875000000e-01,5.993041992187500000e-01
-2.000000000000000000e+00,-2.000000000000000000e+00,1.000000000000000000e+00,-1.000000000000000000e+00,-1.000000000000000000e+00,-6.000000000000000000e+00,-7.000000000000000000e+00,-3.000000000000000000e+00,-4.400024414062500000e-01,2.756958007812500000e-01,6.092529296875000000e-01,5.993041992187500000e-01
-1.000000000000000000e+00,-4.000000000000000000e+00,-1.000000000000000000e+00,-3.000000000000000000e+00,-3.000000000000000000e+00,-2.000000000000000000e+00,4.000000000000000000e+00,-2.000000000000000000e+00,-4.400024414062500000e-01,2.756958007812500000e-01,6.092529296875000000e-01,5.993041992187500000e-01
-1.000000000000000000e+00,1.000000000000000000e+00,1.000000000000000000e+00,-3.000000000000000000e+00,-2.000000000000000000e+00,-1.000000000000000000e+00,0.000000000000000000e+00,-1.000000000000000000e+00,-4.400024414062500000e-01,2.756958007812500000e-01,6.092529296875000000e-01,5.993041992187500000e-01
-2.000000000000000000e+00,-5.000000000000000000e+00,-2.000000000000000000e+00,-4.000000000000000000e+00,-3.000000000000000000e+00,4.000000000000000000e+00,1.000000000000000000e+00,-2.000000000000000000e+00,-4.395141601562500000e-01,2.750244140625000000e-01,6.087646484375000000e-01,6.004028320312500000e-01
0.000000000000000000e+00,0.000000000000000000e+00,2.000000000000000000e+00,2.000000000000000000e+00,-2.000000000000000000e+00,-7.000000000000000000e+00,-1.100000000000000000e+01,-2.000000000000000000e+00,-4.395141601562500000e-01,2.750244140625000000e-01,6.087646484375000000e-01,6.004028320312500000e-01
2.000000000000000000e+00,1.000000000000000000e+00,-3.000000000000000000e+00,-6.000000000000000000e+00,0.000000000000000000e+00,1.000000000000000000e+00,4.000000000000000000e+00,1.000000000000000000e+00,-4.395141601562500000e-01,2.750244140625000000e-01,6.087646484375000000e-01,6.004028320312500000e-01
-4.000000000000000000e+00,-2.000000000000000000e+00,-4.000000000000000000e+00,0.000000000000000000e+00,0.000000000000000000e+00,0.000000000000000000e+00,1.000000000000000000e+00,-1.000000000000000000e+00,-4.395141601562500000e-01,2.750244140625000000e-01,6.087646484375000000e-01,6.004028320312500000e-01
-1.000000000000000000e+00,-2.000000000000000000e+00,0.000000000000000000e+00,-2.000000000000000000e+00,-1.000000000000000000e+00,-4.000000000000000000e+00,-6.000000000000000000e+00,-2.000000000000000000e+00,-4.400024414062500000e-01,2.741699218750000000e-01,6.087036132812500000e-01,6.005249023437500000e-01
-3.000000000000000000e+00,0.000000000000000000e+00,-7.000000000000000000e+00,-2.000000000000000000e+00,-1.000000000000000000e+00,-2.000000000000000000e+00,-4.000000000000000000e+00,1.000000000000000000e+00,-4.400024414062500000e-01,2.741699218750000000e-01,6.087036132812500000e-01,6.005249023437500000e-01
0.000000000000000000e+00,0.000000000000000000e+00,1.000000000000000000e+00,-2.000000000000000000e+00,2.000000000000000000e+00,2.000000000000000000e+00,2.000000000000000000e+00,3.000000000000000000e+00,-4.400024414062500000e-01,2.741699218750000000e-01,6.087036132812500000e-01,6.005249023437500000e-01
-1.000000000000000000e+00,0.000000000000000000e+00,5.000000000000000000e+00,1.600000000000000000e+01,3.000000000000000000e+00,-1.000000000000000000e+00,1.000000000000000000e+00,1.000000000000000000e+00,-4.400024414062500000e-01,2.741699218750000000e-01,6.087036132812500000e-01,6.005249023437500000e-01
-3.000000000000000000e+00,-2.000000000000000000e+00,-1.000000000000000000e+01,-1.200000000000000000e+01,-4.000000000000000000e+00,2.000000000000000000e+00,-5.000000000000000000e+00,-4.000000000000000000e+00,-4.407958984375000000e-01,2.731933593750000000e-01,6.082763671875000000e-01,6.008300781250000000e-01
1.000000000000000000e+00,-1.000000000000000000e+00,1.000000000000000000e+00,-4.000000000000000000e+00,-1.000000000000000000e+00,-2.000000000000000000e+00,-5.000000000000000000e+00,-1.000000000000000000e+00,-4.407958984375000000e-01,2.731933593750000000e-01,6.082763671875000000e-01,6.008300781250000000e-01
-2.000000000000000000e+00,0.000000000000000000e+00,0.000000000000000000e+00,-2.000000000000000000e+00,1.000000000000000000e+00,-4.000000000000000000e+00,4.000000000000000000e+00,0.000000000000000000e+00,-4.407958984375000000e-01,2.731933593750000000e-01,6.082763671875000000e-01,6.008300781250000000e-01
-2.000000000000000000e+00,-2.000000000000000000e+00,-7.000000000000000000e+00,-5.000000000000000000e+00,-2.000000000000000000e+00,3.000000000000000000e+00,6.000000000000000000e+00,0.000000000000000000e+00,-4.407958984375000000e-01,2.731933593750000000e-01,6.082763671875000000e-01,6.008300781250000000e-01
2.000000000000000000e+00,1.000000000000000000e+00,6.000000000000000000e+00,5.000000000000000000e+00,-2.000000000000000000e+00,-4.000000000000000000e+00,-2.000000000000000000e+00,1.000000000000000000e+00,-4.409790039062500000e-01,2.721557617187500000e-01,6.080322265625000000e-01,6.015014648437500000e-01
0.000000000000000000e+00,0.000000000000000000e+00,-2.000000000000000000e+00,-1.000000000000000000e+00,0.000000000000000000e+00,0.000000000000000000e+00,7.000000000000000000e+00,0.000000000000000000e+00,-4.409790039062500000e-01,2.721557617187500000e-01,6.080322265625000000e-01,6.015014648437500000e-01
-2.000000000000000000e+00,1.000000000000000000e+00,-2.000000000000000000e+00,-2.000000000000000000e+00,-4.000000000000000000e+00,5.000000000000000000e+00,-1.700000000000000000e+01,2.000000000000000000e+00,-4.409790039062500000e-01,2.721557617187500000e-01,6.080322265625000000e-01,6.015014648437500000e-01
-2.000000000000000000e+00,-1.000000000000000000e+00,2.000000000000000000e+00,-3.000000000000000000e+00,-1.000000000000000000e+00,-1.300000000000000000e+01,-1.000000000000000000e+01,-2.000000000000000000e+00,-4.409790039062500000e-01,2.721557617187500000e-01,6.080322265625000000e-01,6.015014648437500000e-01
0.000000000000000000e+00,2.000000000000000000e+00,4.000000000000000000e+00,1.000000000000000000e+00,1.000000000000000000e+00,2.000000000000000000e+00,1.200000000000000000e+01,1.000000000000000000e+00,-4.399414062500000000e-01,2.713012695312500000e-01,6.082153320312500000e-01,6.023559570312500000e-01
-3.000000000000000000e+00,-4.000000000000000000e+00,0.000000000000000000e+00,-2.000000000000000000e+00,0.000000000000000000e+00,5.000000000000000000e+00,-1.300000000000000000e+01,-4.000000000000000000e+00,-4.399414062500000000e-01,2.713012695312500000e-01,6.082153320312500000e-01,6.023559570312500000e-01
1.000000000000000000e+00,-2.000000000000000000e+00,4.000000000000000000e+00,0.000000000000000000e+00,-1.000000000000000000e+00,3.000000000000000000e+00,3.000000000000000000e+00,-3.000000000000000000e+00,-4.399414062500000000e-01,2.713012695312500000e-01,6.082153320312500000e-01,6.023559570312500000e-01
-2.000000000000000000e+00,0.000000000000000000e+00,-2.000000000000000000e+00,0.000000000000000000e+00,-2.000000000000000000e+00,-3.000000000000000000e+00,3.000000000000000000e+00,-1.000000000000000000e+00,-4.399414062500000000e-01,2.713012695312500000e-01,6.082153320312500000e-01,6.023559570312500000e-01
-1.000000000000000000e+00,0.000000000000000000e+00,2.000000000000000000e+00,-2.000000000000000000e+00,-2.000000000000000000e+00,4.000000000000000000e+00,-3.000000000000000000e+00,-1.000000000000000000e+00,-4.389038085937500000e-01,2.697753906250000000e-01,6.088256835937500000e-01,6.032104492187500000e-01
-1.000000000000000000e+00,-4.000000000000000000e+00,-4.000000000000000000e+00,3.000000000000000000e+00,-1.000000000000000000e+00,-7.000000000000000000e+00,0.000000000000000000e+00,0.000000000000000000e+00,-4.389038085937500000e-01,2.697753906250000000e-01,6.088256835937500000e-01,6.032104492187500000e-01
-2.000000000000000000e+00,-1.000000000000000000e+00,0.000000000000000000e+00,2.000000000000000000e+00,-2.000000000000000000e+00,-2.000000000000000000e+00,0.000000000000000000e+00,-2.000000000000000000e+00,-4.389038085937500000e-01,2.697753906250000000e-01,6.088256835937500000e-01,6.032104492187500000e-01
0.000000000000000000e+00,-1.000000000000000000e+00,-1.000000000000000000e+00,-6.000000000000000000e+00,4.000000000000000000e+00,0.000000000000000000e+00,-1.300000000000000000e+01,-1.000000000000000000e+00,-4.389038085937500000e-01,2.697753906250000000e-01,6.088256835937500000e-01,6.032104492187500000e-01
-2.000000000000000000e+00,-2.000000000000000000e+00,2.000000000000000000e+00,-6.000000000000000000e+00,-3.000000000000000000e+00,-1.200000000000000000e+01,-4.000000000000000000e+00,-3.000000000000000000e+00,-4.382934570312500000e-01,2.674560546875000000e-01,6.090087890625000000e-01,6.044921875000000000e-01
0.000000000000000000e+00,-4.000000000000000000e+00,2.000000000000000000e+00,3.000000000000000000e+00,0.000000000000000000e+00,7.000000000000000000e+00,3.000000000000000000e+00,-1.000000000000000000e+00,-4.382934570312500000e-01,2.674560546875000000e-01,6.090087890625000000e-01,6.044921875000000000e-01
0.000000000000000000e+00,-4.000000000000000000e+00,-5.000000000000000000e+00,-3.000000000000000000e+00,1.000000000000000000e+00,0.000000000000000000e+00,2.000000000000000000e+00,0.000000000000000000e+00,-4.382934570312500000e-01,2.674560546875000000e-01,6.090087890625000000e-01,6.044921875000000000e-01
1.000000000000000000e+00,3.000000000000000000e+00,4.000000000000000000e+00,1.000000000000000000e+00,0.000000000000000000e+00,3.000000000000000000e+00,5.000000000000000000e+00,0.000000000000000000e+00,-4.382934570312500000e-01,2.674560546875000000e-01,6.090087890625000000e-01,6.044921875000000000e-01
1.000000000000000000e+00,3.000000000000000000e+00,0.000000000000000000e+00,3.000000000000000000e+00,1.000000000000000000e+00,-1.000000000000000000e+00,-2.000000000000000000e+00,-2.000000000000000000e+00,-4.381103515625000000e-01,2.654418945312500000e-01,6.087036132812500000e-01,6.058349609375000000e-01
-5.000000000000000000e+00,-2.000000000000000000e+00,-5.000000000000000000e+00,-1.200000000000000000e+01,-4.000000000000000000e+00,-6.000000000000000000e+00,-7.000000000000000000e+00,-4.000000000000000000e+00,-4.381103515625000000e-01,2.654418945312500000e-01,6.087036132812500000e-01,6.058349609375000000e-01
0.000000000000000000e+00,-2.000000000000000000e+00,2.000000000000000000e+00,7.000000000000000000e+00,1.000000000000000000e+00,-2.000000000000000000e+00,-4.000000000000000000e+00,-1.000000000000000000e+00,-4.381103515625000000e-01,2.654418945312500000e-01,6.087036132812500000e-01,6.058349609375000000e-01
-2.000000000000000000e+00,-1.000000000000000000e+00,3.000000000000000000e+00,0.000000000000000000e+00,-2.000000000000000000e+00,0.000000000000000000e+00,8.000000000000000000e+00,-2.000000000000000000e+00,-4.381103515625000000e-01,2.654418945312500000e-01,6.087036132812500000e-01,6.058349609375000000e-01
-1.000000000000000000e+00,-3.000000000000000000e+00,-5.000000000000000000e+00,-2.000000000000000000e+00,-1.000000000000000000e+00,3.000000000000000000e+00,-3.000000000000000000e+00,0.000000000000000000e+00,-4.380493164062500000e-01,2.643432617187500000e-01,6.083984375000000000e-01,6.066284179687500000e-01
-2.000000000000000000e+00,1.000000000000000000e+00,0.000000000000000000e+00,1.000000000000000000e+00,1.000000000000000000e+00,-9.000000000000000000e+00,0.000000000000000000e+00,-1.000000000000000000e+00,-4.380493164062500000e-01,2.643432617187500000e-01,6.083984375000000000e-01,6.066284179687500000e-01
2.000000000000000000e+00,2.000000000000000000e+00,4.000000000000000000e+00,-1.000000000000000000e+00,1.000000000000000000e+00,1.400000000000000000e+01,5.000000000000000000e+00,-1.000000000000000000e+00,-4.380493164062500000e-01,2.643432617187500000e-01,6.083984375000000000e-01,6.066284179687500000e-01
-4.000000000000000000e+00,-1.000000000000000000e+00,-4.000000000000000000e+00,-1.000000000000000000e+01,-5.000000000000000000e+00,-8.000000000000000000e+00,-1.000000000000000000e+01,-2.000000000000000000e+00,-4.380493164062500000e-01,2.643432617187500000e-01,6.083984375000000000e-01,6.066284179687500000e-01
-1.000000000000000000e+00,-2.000000000000000000e+00,-8.000000000000000000e+00,-1.000000000000000000e+00,-1.000000000000000000e+00,-3.000000000000000000e+00,-6.000000000000000000e+00,0.000000000000000000e+00,-4.376831054687500000e-01,2.639770507812500000e-01,6.078491210937500000e-01,6.076049804687500000e-01
-1.000000000000000000e+00,2.000000000000000000e+00,1.100000000000000000e+01,7.000000000000000000e+00,-1.000000000000000000e+00,-3.000000000000000000e+00,-1.000000000000000000e+00,-3.000000000000000000e+00,-4.376831054687500000e-01,2.639770507812500000e-01,6.078491210937500000e-01,6.076049804687500000e-01
-4.000000000000000000e+00,-3.000000000000000000e+00,-9.000000000000000000e+00,-7.000000000000000000e+00,-3.000000000000000000e+00,-8.000000000000000000e+00,0.000000000000000000e+00,0.000000000000000000e+00,-4.376831054687500000e-01,2.639770507812500000e-01,6.078491210937500000e-01,6.076049804687500000e-01
-1.000000000000000000e+00,-2.000000000000000000e+00,2.000000000000000000e+00,1.000000000000000000e+00,-1.000000000000000000e+00,3.000000000000000000e+00,-4.000000000000000000e+00,-1.500000000000000000e+01,-4.376831054687500000e-01,2.639770507812500000e-01,6.078491210937500000e-01,6.076049804687500000e-01
-1.000000000000000000e+00,2.000000000000000000e+00,1.000000000000000000e+00,-2.000000000000000000e+00,1.000000000000000000e+00,7.000000000000000000e+00,1.600000000000000000e+01,1.500000000000000000e+01,-4.373779296875000000e-01,2.628173828125000000e-01,6.077270507812500000e-01,6.084594726562500000e-01
0.000000000000000000e+00,0.000000000000000000e+00,-5.000000000000000000e+00,-2.000000000000000000e+00,-3.000000000000000000e+00,-2.000000000000000000e+00,-6.000000000000000000e+00,-3.000000000000000000e+00,-4.373779296875000000e-01,2.628173828125000000e-01,6.077270507812500000e-01,6.084594726562500000e-01
-1.000000000000000000e+00,-1.000000000000000000e+00,1.000000000000000000e+00,0.000000000000000000e+00,-1.000000000000000000e+00,0.000000000000000000e+00,1.000000000000000000e+00,-2.000000000000000000e+00,-4.373779296875000000e-01,2.628173828125000000e-01,6.077270507812500000e-01,6.084594726562500000e-01
0.000000000000000000e+00,4.000000000000000000e+00,5.000000000000000000e+00,-1.000000000000000000e+00,-3.000000000000000000e+00,-1.000000000000000000e+00,-5.000000000000000000e+00,-2.000000000000000000e+00,-4.373779296875000000e-01,2.628173828125000000e-01,6.077270507812500000e-01,6.084594726562500000e-01
-3.000000000000000000e+00,-2.000000000000000000e+00,1.000000000000000000e+00,0.000000000000000000e+00,-2.000000000000000000e+00,-2.000000000000000000e+01,-1.500000000000000000e+01,-6.000000000000000000e+00,-4.360351562500000000e-01,2.617187500000000000e-01,6.082763671875000000e-01,6.093750000000000000e-01
0.000000000000000000e+00,-1.000000000000000000e+00,0.000000000000000000e+00,1.000000000000000000e+00,6.000000000000000000e+00,1.900000000000000000e+01,8.000000000000000000e+00,3.000000000000000000e+00,-4.360351562500000000e-01,2.617187500000000000e-01,6.082763671875000000e-01,6.093750000000000000e-01
-2.000000000000000000e+00,-1.000000000000000000e+00,5.000000000000000000e+00,5.000000000000000000e+00,-2.000000000000000000e+00,-7.000000000000000000e+00,0.000000000000000000e+00,-1.000000000000000000e+00,-4.360351562500000000e-01,2.617187500000000000e-01,6.082763671875000000e-01,6.093750000000000000e-01
-1.000000000000000000e+00,-1.000000000000000000e+00,-5.000000000000000000e+00,-6.000000000000000000e+00,-2.000000000000000000e+00,9.000000000000000000e+00,5.000000000000000000e+00,4.000000000000000000e+00,-4.360351562500000000e-01,2.617187500000000000e-01,6.082763671875000000e-01,6.093750000000000000e-01
0.000000000000000000e+00,0.000000000000000000e+00,3.000000000000000000e+00,-2.000000000000000000e+00,-2.000000000000000000e+00,-2.000000000000000000e+00,-1.000000000000000000e+00,-2.000000000000000000e+00,-4.353637695312500000e-01,2.592163085937500000e-01,6.097412109375000000e-01,6.094360351562500000e-01
1.000000000000000000e+00,-1.000000000000000000e+00,2.000000000000000000e+00,1.000000000000000000e+00,0.000000000000000000e+00,-3.000000000000000000e+00,-1.000000000000000000e+00,5.000000000000000000e+00,-4.353637695312500000e-01,2.592163085937500000e-01,6.097412109375000000e-01,6.094360351562500000e-01
1.000000000000000000e+00,0.000000000000000000e+00,-4.000000000000000000e+00,-1.000000000000000000e+00,-2.000000000000000000e+00,-2.000000000000000000e+00,-2.000000000000000000e+00,-4.000000000000000000e+00,-4.353637695312500000e-01,2.592163085937500000e-01,6.097412109375000000e-01,6.094360351562500000e-01
0.000000000000000000e+00,-6.000000000000000000e+00,0.000000000000000000e+00,1.000000000000000000e+00,-2.000000000000000000e+00,-4.000000000000000000e+00,-1.000000000000000000e+00,2.000000000000000000e+00,-4.353637695312500000e-01,2.592163085937500000e-01,6.097412109375000000e-01,6.094360351562500000e-01
-2.000000000000000000e+00,0.000000000000000000e+00,2.000000000000000000e+00,0.000000000000000000e+00,0.000000000000000000e+00,3.000000000000000000e+00,-3.000000000000000000e+00,-2.000000000000000000e+00,-4.365844726562500000e-01,2.550048828125000000e-01,6.118774414062500000e-01,6.081542968750000000e-01
-2.000000000000000000e+00,-2.000000000000000000e+00,-1.000000000000000000e+00,-5.000000000000000000e+00,-4.000000000000000000e+00,-1.000000000000000000e+00,-4.000000000000000000e+00,-3.000000000000000000e+00,-4.365844726562500000e-01,2.550048828125000000e-01,6.118774414062500000e-01,6.081542968750000000e-01
0.000000000000000000e+00,-2.000000000000000000e+00,-4.000000000000000000e+00,1.000000000000000000e+00,2.000000000000000000e+00,-2.000000000000000000e+00,4.000000000000000000e+00,0.000000000000000000e+00,-4.365844726562500000e-01,2.550048828125000000e-01,6.118774414062500000e-01,6.081542968750000000e-01
1.000000000000000000e+00,0.000000000000000000e+00,-1.000000000000000000e+00,2.000000000000000000e+00,1.000000000000000000e+00,0.000000000000000000e+00,1.000000000000000000e+00,2.000000000000000000e+00,-4.365844726562500000e-01,2.550048828125000000e-01,6.118774414062500000e-01,6.081542968750000000e-01
2.000000000000000000e+00,2.000000000000000000e+00,2.000000000000000000e+00,-5.000000000000000000e+00,-4.000000000000000000e+00,0.000000000000000000e+00,-3.000000000000000000e+00,-2.000000000000000000e+00,-4.384155273437500000e-01,2.516479492187500000e-01,6.130981445312500000e-01,6.069946289062500000e-01
-4.000000000000000000e+00,-3.000000000000000000e+00,-1.000000000000000000e+01,-4.000000000000000000e+00,-2.000000000000000000e+00,-4.000000000000000000e+00,-6.000000000000000000e+00,-1.000000000000000000e+00,-4.384155273437500000e-01,2.516479492187500000e-01,6.130981445312500000e-01,6.069946289062500000e-01
-1.000000000000000000e+00,1.000000000000000000e+00,2.000000000000000000e+00,-1.000000000000000000e+00,-1.000000000000000000e+00,-4.000000000000000000e+00,-3.000000000000000000e+00,-2.000000000000000000e+00,-4.384155273437500000e-01,2.516479492187500000e-01,6.130981445312500000e-01,6.069946289062500000e-01
0.000000000000000000e+00,-4.000000000000000000e+00,-2.000000000000000000e+00,6.000000000000000000e+00,2.000000000000000000e+00,2.000000000000000000e+00,1.000000000000000000e+00,3.000000000000000000e+00,-4.384155273437500000e-01,2.516479492187500000e-01,6.130981445312500000e-01,6.069946289062500000e-01
2.000000000000000000e+00,7.000000000000000000e+00,-8.000000000000000000e+00,-1.000000000000000000e+00,-1.000000000000000000e+00,5.000000000000000000e+00,1.000000000000000000e+00,-2.000000000000000000e+00,-4.391479492187500000e-01,2.496337890625000000e-01,6.131591796875000000e-01,6.072998046875000000e-01
-1.000000000000000000e+00,-2.000000000000000000e+00,-6.000000000000000000e+00,-3.000000000000000000e+00,-1.000000000000000000e+00,-5.000000000000000000e+00,0.000000000000000000e+00,1.000000000000000000e+00,-4.391479492187500000e-01,2.496337890625000000e-01,6.131591796875000000e-01,6.072998046875000000e-01
-2.000000000000000000e+00,-3.000000000000000000e+00,0.000000000000000000e+00,-6.000000000000000000e+00,-3.000000000000000000e+00,0.000000000000000000e+00,-2.000000000000000000e+00,2.000000000000000000e+00,-4.391479492187500000e-01,2.496337890625000000e-01,6.131591796875000000e-01,6.072998046875000000e-01
-1.000000000000000000e+00,0.000000000000000000e+00,1.000000000000000000e+00,3.000000000000000000e+00,2.000000000000000000e+00,2.000000000000000000e+00,2.000000000000000000e+00,0.000000000000000000e+00,-4.391479492187500000e-01,2.496337890625000000e-01,6.131591796875000000e-01,6.072998046875000000e-01
-3.000000000000000000e+00,-6.000000000000000000e+00,-1.000000000000000000e+00,-1.000000000000000000e+00,-2.000000000000000000e+00,-1.000000000000000000e+00,-3.000000000000000000e+00,-2.000000000000000000e+00,-4.376220703125000000e-01,2.501220703125000000e-01,6.118164062500000000e-01,6.095581054687500000e-01
0.000000000000000000e+00,4.000000000000000000e+00,-9.000000000000000000e+00,-1.000000000000000000e+00,-2.000000000000000000e+00,-4.000000000000000000e+00,-4.000000000000000000e+00,-3.000000000000000000e+00,-4.376220703125000000e-01,2.501220703125000000e-01,6.118164062500000000e-01,6.095581054687500000e-01
-3.000000000000000000e+00,0.000000000000000000e+00,1.000000000000000000e+00,-5.000000000000000000e+00,-1.000000000000000000e+00,1.000000000000000000e+00,1.000000000000000000e+00,-3.000000000000000000e+00,-4.376220703125000000e-01,2.501220703125000000e-01,6.118164062500000000e-01,6.095581054687500000e-01
-2.000000000000000000e+00,-3.000000000000000000e+00,0.000000000000000000e+00,6.000000000000000000e+00,-5.000000000000000000e+00,0.000000000000000000e+00,4.000000000000000000e+00,-1.000000000000000000e+00,-4.376220703125000000e-01,2.501220703125000000e-01,6.118164062500000000e-01,6.095581054687500000e-01
-3.000000000000000000e+00,-1.000000000000000000e+00,0.000000000000000000e+00,0.000000000000000000e+00,1.000000000000000000e+00,4.000000000000000000e+00,-1.500000000000000000e+01,-3.000000000000000000e+00,-4.346923828125000000e-01,2.516479492187500000e-01,6.104125976562500000e-01,6.123657226562500000e-01
1.000000000000000000e+00,2.000000000000000000e+00,3.000000000000000000e+00,-1.000000000000000000e+00,-2.000000000000000000e+00,-4.000000000000000000e+00,-6.000000000000000000e+00,0.000000000000000000e+00,-4.346923828125000000e-01,2.516479492187500000e-01,6.104125976562500000e-01,6.123657226562500000e-01
0.000000000000000000e+00,0.000000000000000000e+00,3.000000000000000000e+00,3.000000000000000000e+00,3.000000000000000000e+00,0.000000000000000000e+00,4.000000000000000000e+00,1.000000000000000000e+00,-4.346923828125000000e-01,2.516479492187500000e-01,6.104125976562500000e-01,6.123657226562500000e-01
0.000000000000000000e+00,-2.000000000000000000e+00,-1.000000000000000000e+01,-1.000000000000000000e+01,-5.000000000000000000e+00,-1.200000000000000000e+01,-1.800000000000000000e+01,-3.000000000000000000e+00,-4.346923828125000000e-01,2.516479492187500000e-01,6.104125976562500000e-01,6.123657226562500000e-01
-1.000000000000000000e+00,-5.000000000000000000e+00,-3.000000000000000000e+00,2.000000000000000000e+00,-3.000000000000000000e+00,1.100000000000000000e+01,6.000000000000000000e+00,-1.000000000000000000e+00,-4.331054687500000000e-01,2.511596679687500000e-01,6.102905273437500000e-01,6.138916015625000000e-01
-3.000000000000000000e+00,-1.000000000000000000e+00,2.000000000000000000e+00,4.000000000000000000e+00,1.000000000000000000e+00,-5.000000000000000000e+00,0.000000000000000000e+00,-5.000000000000000000e+00,-4.331054687500000000e-01,2.511596679687500000e-01,6.102905273437500000e-01,6.138916015625000000e-01
0.000000000000000000e+00,-1.000000000000000000e+00,-1.000000000000000000e+00,-2.000000000000000000e+00,-2.000000000000000000e+00,-1.000000000000000000e+00,-2.000000000000000000e+00,3.000000000000000000e+00,-4.331054687500000000e-01,2.511596679687500000e-01,6.102905273437500000e-01,6.138916015625000000e-01
1.000000000000000000e+00,2.000000000000000000e+00,0.000000000000000000e+00,-6.000000000000000000e+00,-4.000000000000000000e+00,-6.000000000000000000e+00,1.000000000000000000e+00,1.000000000000000000e+00,-4.331054687500000000e-01,2.511596679687500000e-01,6.102905273437500000e-01,6.138916015625000000e-01
2.000000000000000000e+00,1.000000000000000000e+00,1.000000000000000000e+00,5.000000000000000000e+00,2.000000000000000000e+00,-3.000000000000000000e+00,1.000000000000000000e+00,-1.000000000000000000e+00,-4.340209960937500000e-01,2.484741210937500000e-01,6.110839843750000000e-01,6.135253906250000000e-01
-3.000000000000000000e+00,-6.000000000000000000e+00,-3.000000000000000000e+00,-3.000000000000000000e+00,-3.000000000000000000e+00,0.000000000000000000e+00,-6.000000000000000000e+00,1.000000000000000000e+00,-4.340209960937500000e-01,2.484741210937500000e-01,6.110839843750000000e-01,6.135253906250000000e-01
1.000000000000000000e+00,0.000000000000000000e+00,-3.000000000000000000e+00,-5.000000000000000000e+00,-3.000000000000000000e+00,-6.000000000000000000e+00,-4.000000000000000000e+00,-1.000000000000000000e+00,-4.340209960937500000e-01,2.484741210937500000e-01,6.110839843750000000e-01,6.135253906250000000e-01
-3.000000000000000000e+00,0.000000000000000000e+00,-4.000000000000000000e+00,4.000000000000000000e+00,0.000000000000000000e+00,4.000000000000000000e+00,4.000000000000000000e+00,0.000000000000000000e+00,-4.340209960937500000e-01,2.484741210937500000e-01,6.110839843750000000e-01,6.135253906250000000e-01
0.000000000000000000e+00,0.000000000000000000e+00,2.000000000000000000e+00,0.000000000000000000e+00,0.000000000000000000e+00,0.000000000000000000e+00,7.000000000000000000e+00,1.000000000000000000e+00,-4.359130859375000000e-01,2.456665039062500000e-01,6.116943359375000000e-01,6.126708984375000000e-01
1.700000000000000000e+01,3.000000000000000000e+00,1.000000000000000000e+00,-3.000000000000000000e+00,3.000000000000000000e+00,7.000000000000000000e+00,8.000000000000000000e+00,1.000000000000000000e+00,-4.359130859375000000e-01,2.456665039062500000e-01,6.116943359375000000e-01,6.126708984375000000e-01
-2.600000000000000000e+01,-5.000000000000000000e+00,-1.000000000000000000e+00,0.000000000000000000e+00,-5.000000000000000000e+00,-5.000000000000000000e+00,-6.000000000000000000e+00,-3.000000000000000000e+00,-4.359130859375000000e-01,2.456665039062500000e-01,6.116943359375000000e-01,6.126708984375000000e-01
1.000000000000000000e+00,-8.000000000000000000e+00,-2.000000000000000000e+00,-1.000000000000000000e+00,0.000000000000000000e+00,-2.000000000000000000e+00,-2.000000000000000000e+00,1.000000000000000000e+00,-4.359130859375000000e-01,2.456665039062500000e-01,6.116943359375000000e-01,6.126708984375000000e-01
2.000000000000000000e+00,-5.000000000000000000e+00,3.000000000000000000e+00,-6.000000000000000000e+00,-1.000000000000000000e+00,-5.000000000000000000e+00,-3.000000000000000000e+00,-5.000000000000000000e+00,-4.369506835937500000e-01,2.448730468750000000e-01,6.105957031250000000e-01,6.133422851562500000e-01
8.000000000000000000e+00,5.000000000000000000e+00,-1.000000000000000000e+00,1.000000000000000000e+00,-3.000000000000000000e+00,1.000000000000000000e+00,-1.000000000000000000e+00,2.000000000000000000e+00,-4.369506835937500000e-01,2.448730468750000000e-01,6.105957031250000000e-01,6.133422851562500000e-01
2.000000000000000000e+00,-6.000000000000000000e+00,-7.000000000000000000e+00,-7.000000000000000000e+00,-5.000000000000000000e+00,1.000000000000000000e+00,1.000000000000000000e+00,0.000000000000000000e+00,-4.369506835937500000e-01,2.448730468750000000e-01,6.105957031250000000e-01,6.133422851562500000e-01
-6.000000000000000000e+00,0.000000000000000000e+00,7.000000000000000000e+00,-1.000000000000000000e+00,1.000000000000000000e+00,-1.000000000000000000e+00,0.000000000000000000e+00,-2.000000000000000000e+00,-4.369506835937500000e-01,2.448730468750000000e-01,6.105957031250000000e-01,6.133422851562500000e-01
-5.000000000000000000e+00,-3.000000000000000000e+00,-2.000000000000000000e+00,9.000000000000000000e+00,2.000000000000000000e+00,-5.000000000000000000e+00,-5.000000000000000000e+00,-6.000000000000000000e+00,-4.364624023437500000e-01,2.457275390625000000e-01,6.087036132812500000e-01,6.152343750000000000e-01
-2.000000000000000000e+00,-8.000000000000000000e+00,4.000000000000000000e+00,-3.000000000000000000e+00,-2.000000000000000000e+00,-1.000000000000000000e+00,1.000000000000000000e+00,7.000000000000000000e+00,-4.364624023437500000e-01,2.457275390625000000e-01,6.087036132812500000e-01,6.152343750000000000e-01
1.700000000000000000e+01,2.000000000000000000e+00,-3.000000000000000000e+00,-3.000000000000000000e+00,0.000000000000000000e+00,0.000000000000000000e+00,-3.000000000000000000e+00,-9.000000000000000000e+00,-4.364624023437500000e-01,2.457275390625000000e-01,6.087036132812500000e-01,6.152343750000000000e-01
5.000000000000000000e+00,2.000000000000000000e+00,3.000000000000000000e+00,5.000000000000000000e+00,-2.000000000000000000e+00,0.000000000000000000e+00,-1.000000000000000000e+00,4.000000000000000000e+00,-4.364624023437500000e-01,2.457275390625000000e-01,6.087036132812500000e-01,6.152343750000000000e-01
-2.000000000000000000e+00,0.000000000000000000e+00,-7.000000000000000000e+00,-1.100000000000000000e+01,-5.000000000000000000e+00,-6.000000000000000000e+00,1.000000000000000000e+00,1.000000000000000000e+00,-4.348754882812500000e-01,2.471313476562500000e-01,6.076660156250000000e-01,6.168212890625000000e-01
-1.000000000000000000e+01,1.000000000000000000e+00,9.000000000000000000e+00,-4.000000000000000000e+00,2.000000000000000000e+00,4.000000000000000000e+00,-1.000000000000000000e+00,-5.000000000000000000e+00,-4.348754882812500000e-01,2.471313476562500000e-01,6.076660156250000000e-01,6.168212890625000000e-01
1.900000000000000000e+01,5.000000000000000000e+00,0.000000000000000000e+00,1.600000000000000000e+01,6.000000000000000000e+00,4.000000000000000000e+00,1.000000000000000000e+01,1.000000000000000000e+00,-4.348754882812500000e-01,2.471313476562500000e-01,6.076660156250000000e-01,6.168212890625000000e-01
-1.200000000000000000e+01,-3.000000000000000000e+00,-1.900000000000000000e+01,-6.000000000000000000e+00,-1.000000000000000000e+00,5.000000000000000000e+00,0.000000000000000000e+00,-8.000000000000000000e+00,-4.348754882812500000e-01,2.471313476562500000e-01,6.076660156250000000e-01,6.168212890625000000e-01
4.000000000000000000e+00,4.000000000000000000e+00,1.500000000000000000e+01,-1.000000000000000000e+00,-3.000000000000000000e+00,0.000000000000000000e+00,4.000000000000000000e+00,2.000000000000000000e+00,-4.348754882812500000e-01,2.476196289062500000e-01,6.072998046875000000e-01,6.170043945312500000e-01
-4.000000000000000000e+00,-3.000000000000000000e+00,-1.200000000000000000e+01,-5.000000000000000000e+00,-2.000000000000000000e+00,-2.000000000000000000e+00,-2.000000000000000000e+00,0.000000000000000000e+00,-4.348754882812500000e-01,2.476196289062500000e-01,6.072998046875000000e-01,6.170043945312500000e-01
-1.000000000000000000e+00,-5.000000000000000000e+00,1.200000000000000000e+01,-6.000000000000000000e+00,-5.000000000000000000e+00,-5.000000000000000000e+00,-3.000000000000000000e+00,5.000000000000000000e+00,-4.348754882812500000e-01,2.476196289062500000e-01,6.072998046875000000e-01,6.170043945312500000e-01
7.000000000000000000e+00,7.000000000000000000e+00,2.000000000000000000e+00,2.000000000000000000e+00,-1.000000000000000000e+00,-9.000000000000000000e+00,2.000000000000000000e+00,2.000000000000000000e+00,-4.348754882812500000e-01,2.476196289062500000e-01,6.072998046875000000e-01,6.170043945312500000e-01
-6.000000000000000000e+00,-4.000000000000000000e+00,-4.000000000000000000e+00,5.000000000000000000e+00,9.000000000000000000e+00,2.100000000000000000e+01,9.000000000000000000e+00,3.000000000000000000e+00,-4.363403320312500000e-01,2.457275390625000000e-01,6.071166992187500000e-01,6.168823242187500000e-01
-7.000000000000000000e+00,-8.000000000000000000e+00,-6.000000000000000000e+00,-5.000000000000000000e+00,-1.000000000000000000e+01,-3.000000000000000000e+00,7.000000000000000000e+00,-1.000000000000000000e+00,-4.363403320312500000e-01,2.457275390625000000e-01,6.071166992187500000e-01,6.168823242187500000e-01
8.000000000000000000e+00,7.000000000000000000e+00,-2.000000000000000000e+00,-2.000000000000000000e+00,7.000000000000000000e+00,3.000000000000000000e+00,-3.000000000000000000e+00,1.000000000000000000e+00,-4.363403320312500000e-01,2.457275390625000000e-01,6.071166992187500000e-01,6.168823242187500000e-01
-1.000000000000000000e+00,0.000000000000000000e+00,-1.000000000000000000e+00,6.000000000000000000e+00,1.000000000000000000e+00,6.000000000000000000e+00,3.000000000000000000e+00,-3.000000000000000000e+00,-4.363403320312500000e-01,2.457275390625000000e-01,6.071166992187500000e-01,6.168823242187500000e-01
5.000000000000000000e+00,-1.000000000000000000e+00,-1.000000000000000000e+00,-7.000000000000000000e+00,-4.000000000000000000e+00,-1.200000000000000000e+01,-3.000000000000000000e+00,-1.000000000000000000e+00,-4.362792968750000000e-01,2.440185546875000000e-01,6.068725585937500000e-01,6.179199218750000000e-01
5.000000000000000000e+00,-1.300000000000000000e+01,1.000000000000000000e+00,3.000000000000000000e+00,3.000000000000000000e+00,0.000000000000000000e+00,-3.000000000000000000e+00,-2.000000000000000000e+00,-4.362792968750000000e-01,2.440185546875000000e-01,6.068725585937500000e-01,6.179199218750000000e-01
-1.700000000000000000e+01,-3.000000000000000000e+00,-6.000000000000000000e+00,-2.000000000000000000e+00,-6.000000000000000000e+00,1.000000000000000000e+00,-4.000000000000000000e+00,-4.000000000000000000e+00,-4.362792968750000000e-01,2.440185546875000000e-01,6.068725585937500000e-01,6.179199218750000000e-01
-4.000000000000000000e+00,-8.000000000000000000e+00,0.000000000000000000e+00,-3.000000000000000000e+00,5.000000000000000000e+00,1.000000000000000000e+00,-4.000000000000000000e+00,-4.000000000000000000e+00,-4.362792968750000000e-01,2.440185546875000000e-01,6.068725585937500000e-01,6.179199218750000000e-01
3.000000000000000000e+00,6.000000000000000000e+00,-3.000000000000000000e+00,-5.000000000000000000e+00,-1.000000000000000000e+00,-4.000000000000000000e+00,-2.000000000000000000e+00,-1.000000000000000000e+00,-4.365844726562500000e-01,2.435913085937500000e-01,6.049804687500000000e-01,6.196289062500000000e-01
2.000000000000000000e+00,5.000000000000000000e+00,2.000000000000000000e+00,3.000000000000000000e+00,-3.000000000000000000e+00,-2.000000000000000000e+00,-3.000000000000000000e+00,-2.000000000000000000e+00,-4.365844726562500000e-01,2.435913085937500000e-01,6.049804687500000000e-01,6.196289062500000000e-01
1.000000000000000000e+00,-3.000000000000000000e+00,-1.200000000000000000e+01,5.000000000000000000e+00,-4.000000000000000000e+00,-3.000000000000000000e+00,-2.000000000000000000e+00,1.000000000000000000e+00,-4.365844726562500000e-01,2.435913085937500000e-01,6.049804687500000000e-01,6.196289062500000000e-01
-3.000000000000000000e+00,-4.000000000000000000e+00,-6.000000000000000000e+00,-1.500000000000000000e+01,-1.000000000000000000e+00,0.000000000000000000e+00,-2.000000000000000000e+00,-1.000000000000000000e+00,-4.365844726562500000e-01,2.435913085937500000e-01,6.049804687500000000e-01,6.196289062500000000e-01
-4.000000000000000000e+00,-4.000000000000000000e+00,-2.000000000000000000e+00,2.000000000000000000e+00,-1.000000000000000000e+00,0.000000000000000000e+00,-7.000000000000000000e+00,-3.000000000000000000e+00,-4.385375976562500000e-01,2.434692382812500000e-01,6.019287109375000000e-01,6.212768554687500000e-01
6.000000000000000000e+00,9.000000000000000000e+00,4.000000000000000000e+00,4.000000000000000000e+00,0.000000000000000000e+00,-1.000000000000000000e+00,4.000000000000000000e+00,-1.000000000000000000e+00,-4.385375976562500000e-01,2.434692382812500000e-01,6.019287109375000000e-01,6.212768554687500000e-01
-9.000000000000000000e+00,-5.000000000000000000e+00,-1.000000000000000000e+00,-8.000000000000000000e+00,0.000000000000000000e+00,1.000000000000000000e+00,0.000000000000000000e+00,-2.000000000000000000e+00,-4.385375976562500000e-01,2.434692382812500000e-01,6.019287109375000000e-01,6.212768554687500000e-01
-4.000000000000000000e+00,-1.000000000000000000e+01,1.000000000000000000e+00,-2.000000000000000000e+00,-1.000000000000000000e+00,-4.000000000000000000e+00,3.000000000000000000e+00,2.000000000000000000e+00,-4.385375976562500000e-01,2.434692382812500000e-01,6.019287109375000000e-01,6.212768554687500000e-01
1.000000000000000000e+00,1.000000000000000000e+00,-1.000000000000000000e+00,1.300000000000000000e+01,-1.000000000000000000e+00,-2.800000000000000000e+01,2.000000000000000000e+00,1.000000000000000000e+00,-4.405517578125000000e-01,2.434082031250000000e-01,5.986328125000000000e-01,6.231079101562500000e-01
0.000000000000000000e+00,1.000000000000000000e+00,-9.000000000000000000e+00,-1.000000000000000000e+01,2.000000000000000000e+00,4.500000000000000000e+01,0.000000000000000000e+00,5.000000000000000000e+00,-4.405517578125000000e-01,2.434082031250000000e-01,5.986328125000000000e-01,6.231079101562500000e-01
-1.000000000000000000e+00,-9.000000000000000000e+00,2.000000000000000000e+00,4.000000000000000000e+00,1.000000000000000000e+00,-6.000000000000000000e+00,0.000000000000000000e+00,-3.000000000000000000e+00,-4.405517578125000000e-01,2.434082031250000000e-01,5.986328125000000000e-01,6.231079101562500000e-01
3.000000000000000000e+00,2.200000000000000000e+01,3.000000000000000000e+00,0.000000000000000000e+00,-3.000000000000000000e+00,-2.000000000000000000e+00,-1.000000000000000000e+00,-1.000000000000000000e+00,-4.405517578125000000e-01,2.434082031250000000e-01,5.986328125000000000e-01,6.231079101562500000e-01
0.000000000000000000e+00,-1.100000000000000000e+01,3.000000000000000000e+00,-9.000000000000000000e+00,0.000000000000000000e+00,-6.000000000000000000e+00,1.000000000000000000e+00,-3.000000000000000000e+00,-4.417724609375000000e-01,2.438354492187500000e-01,5.963134765625000000e-01,6.242675781250000000e-01
-1.000000000000000000e+01,2.000000000000000000e+00,-3.000000000000000000e+00,1.100000000000000000e+01,-1.000000000000000000e+00,-1.500000000000000000e+01,3.000000000000000000e+00,7.000000000000000000e+00,-4.417724609375000000e-01,2.438354492187500000e-01,5.963134765625000000e-01,6.242675781250000000e-01
1.200000000000000000e+01,0.000000000000000000e+00,-8.000000000000000000e+00,-9.000000000000000000e+00,-3.000000000000000000e+00,6.000000000000000000e+00,5.000000000000000000e+00,-2.000000000000000000e+00,-4.417724609375000000e-01,2.438354492187500000e-01,5.963134765625000000e-01,6.242675781250000000e-01
-1.000000000000000000e+00,-6.000000000000000000e+00,2.000000000000000000e+00,-4.000000000000000000e+00,-3.000000000000000000e+00,3.000000000000000000e+00,-3.000000000000000000e+00,6.000000000000000000e+00,-4.417724609375000000e-01,2.438354492187500000e-01,5.963134765625000000e-01,6.242675781250000000e-01
-1.000000000000000000e+00,3.000000000000000000e+00,4.000000000000000000e+00,9.000000000000000000e+00,4.000000000000000000e+00,7.000000000000000000e+00,-3.000000000000000000e+00,-4.000000000000000000e+00,-4.436645507812500000e-01,2.446289062500000000e-01,5.941162109375000000e-01,6.247558593750000000e-01
-3.000000000000000000e+00,-7.000000000000000000e+00,1.000000000000000000e+01,-6.000000000000000000e+00,-5.000000000000000000e+00,-2.000000000000000000e+01,-1.400000000000000000e+01,-7.000000000000000000e+00,-4.436645507812500000e-01,2.446289062500000000e-01,5.941162109375000000e-01,6.247558593750000000e-01
-4.000000000000000000e+00,1.000000000000000000e+00,-7.000000000000000000e+00,-2.000000000000000000e+00,1.000000000000000000e+00,4.000000000000000000e+00,-5.000000000000000000e+00,0.000000000000000000e+00,-4.436645507812500000e-01,2.446289062500000000e-01,5.941162109375000000e-01,6.247558593750000000e-01
6.000000000000000000e+00,5.000000000000000000e+00,1.400000000000000000e+01,1.200000000000000000e+01,-1.000000000000000000e+00,-2.000000000000000000e+00,2.000000000000000000e+00,-2.000000000000000000e+00,-4.436645507812500000e-01,2.446289062500000000e-01,5.941162109375000000e-01,6.247558593750000000e-01
-1.300000000000000000e+01,-7.000000000000000000e+00,-2.000000000000000000e+00,-4.000000000000000000e+00,-2.000000000000000000e+00,9.000000000000000000e+00,2.000000000000000000e+00,4.000000000000000000e+00,-4.445800781250000000e-01,2.463378906250000000e-01,5.924682617187500000e-01,6.250000000000000000e-01
-8.000000000000000000e+00,-3.000000000000000000e+00,1.000000000000000000e+00,-4.000000000000000000e+00,-2.000000000000000000e+00,-3.000000000000000000e+00,4.000000000000000000e+00,-6.000000000000000000e+00,-4.445800781250000000e-01,2.463378906250000000e-01,5.924682617187500000e-01,6.250000000000000000e-01
1.000000000000000000e+00,-1.000000000000000000e+00,-6.000000000000000000e+00,-5.000000000000000000e+00,-4.000000000000000000e+00,-1.400000000000000000e+01,-2.600000000000000000e+01,-1.000000000000000000e+00,-4.445800781250000000e-01,2.463378906250000000e-01,5.924682617187500000e-01,6.250000000000000000e-01
4.000000000000000000e+00,0.000000000000000000e+00,3.000000000000000000e+00,-5.000000000000000000e+00,1.000000000000000000e+00,5.000000000000000000e+00,4.000000000000000000e+00,-3.000000000000000000e+00,-4.445800781250000000e-01,2.463378906250000000e-01,5.924682617187500000e-01,6.250000000000000000e-01
1.000000000000000000e+00,4.000000000000000000e+00,0.000000000000000000e+00,3.000000000000000000e+00,-4.000000000000000000e+00,-1.000000000000000000e+00,-1.600000000000000000e+01,-3.000000000000000000e+00,-4.452514648437500000e-01,2.470703125000000000e-01,5.914916992187500000e-01,6.251220703125000000e-01
0.000000000000000000e+00,-3.000000000000000000e+00,3.000000000000000000e+00,-4.000000000000000000e+00,0.000000000000000000e+00,-2.000000000000000000e+00,2.000000000000000000e+00,-2.000000000000000000e+00,-4.452514648437500000e-01,2.470703125000000000e-01,5.914916992187500000e-01,6.251220703125000000e-01
-6.000000000000000000e+00,2.000000000000000000e+00,-5.000000000000000000e+00,2.000000000000000000e+00,4.000000000000000000e+00,4.000000000000000000e+00,7.000000000000000000e+00,-2.000000000000000000e+00,-4.452514648437500000e-01,2.470703125000000000e-01,5.914916992187500000e-01,6.251220703125000000e-01
-2.000000000000000000e+00,0.000000000000000000e+00,-3.000000000000000000e+00,0.000000000000000000e+00,-3.000000000000000000e+00,-8.000000000000000000e+00,-6.000000000000000000e+00,1.000000000000000000e+00,-4.452514648437500000e-01,2.470703125000000000e-01,5.914916992187500000e-01,6.251220703125000000e-01
-3.000000000000000000e+00,-4.000000000000000000e+00,-5.000000000000000000e+00,-9.000000000000000000e+00,-5.000000000000000000e+00,-1.200000000000000000e+01,-4.000000000000000000e+00,-5.000000000000000000e+00,-4.463500976562500000e-01,2.472534179687500000e-01,5.913696289062500000e-01,6.243286132812500000e-01
-1.500000000000000000e+01,6.000000000000000000e+00,1.000000000000000000e+01,1.000000000000000000e+00,0.000000000000000000e+00,3.000000000000000000e+00,0.000000000000000000e+00,-1.000000000000000000e+00,-4.463500976562500000e-01,2.472534179687500000e-01,5.913696289062500000e-01,6.243286132812500000e-01
7.000000000000000000e+00,2.000000000000000000e+00,-1.200000000000000000e+01,7.000000000000000000e+00,-2.000000000000000000e+00,-5.000000000000000000e+00,-2.000000000000000000e+00,3.000000000000000000e+00,-4.463500976562500000e-01,2.472534179687500000e-01,5.913696289062500000e-01,6.243286132812500000e-01
1.000000000000000000e+00,-8.000000000000000000e+00,1.100000000000000000e+01,-3.000000000000000000e+00,-1.000000000000000000e+00,0.000000000000000000e+00,5.000000000000000000e+00,1.000000000000000000e+00,-4.463500976562500000e-01,2.472534179687500000e-01,5.913696289062500000e-01,6.243286132812500000e-01
-5.000000000000000000e+00,4.000000000000000000e+00,-3.000000000000000000e+00,-5.000000000000000000e+00,-5.000000000000000000e+00,-5.000000000000000000e+00,-1.000000000000000000e+00,-2.000000000000000000e+00,-4.475097656250000000e-01,2.476196289062500000e-01,5.913696289062500000e-01,6.234130859375000000e-01
-1.000000000000000000e+00,-1.100000000000000000e+01,-5.000000000000000000e+00,-1.000000000000000000e+00,2.000000000000000000e+00,-8.000000000000000000e+00,-2.000000000000000000e+00,-2.000000000000000000e+00,-4.475097656250000000e-01,2.476196289062500000e-01,5.913696289062500000e-01,6.234130859375000000e-01
-4.000000000000000000e+00,3.000000000000000000e+00,1.000000000000000000e+00,2.000000000000000000e+00,2.000000000000000000e+00,1.600000000000000000e+01,3.300000000000000000e+01,1.000000000000000000e+00,-4.475097656250000000e-01,2.476196289062500000e-01,5.913696289062500000e-01,6.234130859375000000e-01
-1.100000000000000000e+01,-3.000000000000000000e+00,-5.000000000000000000e+00,-1.000000000000000000e+00,-4.000000000000000000e+00,-5.000000000000000000e+00,-1.600000000000000000e+01,-6.000000000000000000e+00,-4.475097656250000000e-01,2.476196289062500000e-01,5.913696289062500000e-01,6.234130859375000000e-01
4.000000000000000000e+00,2.000000000000000000e+00,-1.000000000000000000e+00,1.000000000000000000e+00,0.000000000000000000e+00,2.000000000000000000e+00,-1.100000000000000000e+01,-1.000000000000000000e+00,-4.478149414062500000e-01,2.489013671875000000e-01,5.913696289062500000e-01,6.226806640625000000e-01
4.000000000000000000e+00,0.000000000000000000e+00,-6.000000000000000000e+00,0.000000000000000000e+00,-2.000000000000000000e+00,-6.000000000000000000e+00,2.000000000000000000e+00,-1.000000000000000000e+00,-4.478149414062500000e-01,2.489013671875000000e-01,5.913696289062500000e-01,6.226806640625000000e-01
-8.000000000000000000e+00,-1.000000000000000000e+00,1.200000000000000000e+01,4.000000000000000000e+00,4.000000000000000000e+00,3.000000000000000000e+00,0.000000000000000000e+00,-2.000000000000000000e+00,-4.478149414062500000e-01,2.489013671875000000e-01,5.913696289062500000e-01,6.226806640625000000e-01
4.000000000000000000e+00,-5.000000000000000000e+00,-7.000000000000000000e+00,-6.000000000000000000e+00,-6.000000000000000000e+00,-6.000000000000000000e+00,0.000000000000000000e+00,-1.000000000000000000e+00,-4.478149414062500000e-01,2.489013671875000000e-01,5.913696289062500000e-01,6.226806640625000000e-01
4.000000000000000000e+00,0.000000000000000000e+00,3.000000000000000000e+00,-2.000000000000000000e+00,3.000000000000000000e+00,8.000000000000000000e+00,3.000000000000000000e+00,-4.000000000000000000e+00,-4.467163085937500000e-01,2.510375976562500000e-01,5.910644531250000000e-01,6.229248046875000000e-01
1.000000000000000000e+00,2.000000000000000000e+00,-5.000000000000000000e+00,1.000000000000000000e+00,-5.000000000000000000e+00,1.000000000000000000e+00,0.000000000000000000e+00,-1.000000000000000000e+00,-4.467163085937500000e-01,2.510375976562500000e-01,5.910644531250000000e-01,6.229248046875000000e-01
2.000000000000000000e+00,-5.000000000000000000e+00,1.000000000000000000e+00,-6.000000000000000000e+00,-6.000000000000000000e+00,-7.000000000000000000e+00,-6.000000000000000000e+00,1.000000000000000000e+00,-4.467163085937500000e-01,2.510375976562500000e-01,5.910644531250000000e-01,6.229248046875000000e-01
-1.000000000000000000e+00,2.000000000000000000e+00,5.000000000000000000e+00,-1.000000000000000000e+00,0.000000000000000000e+00,-1.000000000000000000e+00,-3.000000000000000000e+00,0.000000000000000000e+00,-4.467163085937500000e-01,2.510375976562500000e-01,5.910644531250000000e-01,6.229248046875000000e-01
-4.000000000000000000e+00,-5.000000000000000000e+00,-1.100000000000000000e+01,-4.000000000000000000e+00,-3.000000000000000000e+00,0.000000000000000000e+00,2.000000000000000000e+00,0.000000000000000000e+00,-4.456787109375000000e-01,2.524414062500000000e-01,5.914916992187500000e-01,6.226806640625000000e-01
-1.000000000000000000e+00,-3.000000000000000000e+00,-3.000000000000000000e+00,3.000000000000000000e+00,1.000000000000000000e+00,-2.000000000000000000e+00,-3.000000000000000000e+00,-4.000000000000000000e+00,-4.456787109375000000e-01,2.524414062500000000e-01,5.914916992187500000e-01,6.226806640625000000e-01
5.000000000000000000e+00,3.000000000000000000e+00,-1.000000000000000000e+00,3.000000000000000000e+00,0.000000000000000000e+00,3.000000000000000000e+00,5.000000000000000000e+00,-2.000000000000000000e+00,-4.456787109375000000e-01,2.524414062500000000e-01,5.914916992187500000e-01,6.226806640625000000e-01
4.000000000000000000e+00,1.000000000000000000e+00,-1.000000000000000000e+00,-2.000000000000000000e+00,3.000000000000000000e+00,1.000000000000000000e+00,1.000000000000000000e+00,2.000000000000000000e+00,-4.456787109375000000e-01,2.524414062500000000e-01,5.914916992187500000e-01,6.226806640625000000e-01
2.000000000000000000e+00,-5.000000000000000000e+00,-3.000000000000000000e+00,-2.000000000000000000e+00,2.000000000000000000e+00,3.000000000000000000e+00,6.000000000000000000e+00,2.000000000000000000e+00,-4.450683593750000000e-01,2.524414062500000000e-01,5.929565429687500000e-01,6.217041015625000000e-01
-1.000000000000000000e+00,-4.000000000000000000e+00,-1.000000000000000000e+00,-5.000000000000000000e+00,-1.000000000000000000e+00,-4.000000000000000000e+00,-5.000000000000000000e+00,-1.000000000000000000e+00,-4.450683593750000000e-01,2.524414062500000000e-01,5.929565429687500000e-01,6.217041015625000000e-01
-9.000000000000000000e+00,5.000000000000000000e+00,-8.000000000000000000e+00,-4.000000000000000000e+00,0.000000000000000000e+00,0.000000000000000000e+00,-3.000000000000000000e+00,-2.000000000000000000e+00,-4.450683593750000000e-01,2.524414062500000000e-01,5.929565429687500000e-01,6.217041015625000000e-01
-4.000000000000000000e+00,-4.000000000000000000e+00,-4.000000000000000000e+00,-4.000000000000000000e+00,-1.000000000000000000e+00,-4.000000000000000000e+00,-3.000000000000000000e+00,-4.000000000000000000e+00,-4.450683593750000000e-01,2.524414062500000000e-01,5.929565429687500000e-01,6.217041015625000000e-01
1.000000000000000000e+00,2.000000000000000000e+00,1.100000000000000000e+01,3.000000000000000000e+00,-2.000000000000000000e+00,-3.000000000000000000e+00,-2.000000000000000000e+00,0.000000000000000000e+00,-4.452514648437500000e-01,2.514648437500000000e-01,5.944824218750000000e-01,6.205444335937500000e-01
-2.000000000000000000e+00,2.000000000000000000e+00,-1.000000000000000000e+01,9.000000000000000000e+00,2.000000000000000000e+00,0.000000000000000000e+00,2.000000000000000000e+00,-2.000000000000000000e+00,-4.452514648437500000e-01,2.514648437500000000e-01,5.944824218750000000e-01,6.205444335937500000e-01
-7.000000000000000000e+00,-9.000000000000000000e+00,-9.000000000000000000e+00,-1.100000000000000000e+01,-7.000000000000000000e+00,-8.000000000000000000e+00,1.000000000000000000e+01,-1.000000000000000000e+00,-4.452514648437500000e-01,2.514648437500000000e-01,5.944824218750000000e-01,6.205444335937500000e-01
-1.000000000000000000e+00,1.000000000000000000e+00,-1.000000000000000000e+00,6.000000000000000000e+00,2.000000000000000000e+00,9.000000000000000000e+00,-1.000000000000000000e+01,2.000000000000000000e+00,-4.452514648437500000e-01,2.514648437500000000e-01,5.944824218750000000e-01,6.205444335937500000e-01
6.000000000000000000e+00,1.000000000000000000e+00,1.000000000000000000e+00,1.000000000000000000e+00,3.000000000000000000e+00,-2.000000000000000000e+00,3.000000000000000000e+00,-1.400000000000000000e+01,-4.460449218750000000e-01,2.499389648437500000e-01,5.946655273437500000e-01,6.203613281250000000e-01
-1.000000000000000000e+01,-1.000000000000000000e+00,0.000000000000000000e+00,-6.000000000000000000e+00,-5.000000000000000000e+00,-8.000000000000000000e+00,-3.000000000000000000e+00,-1.000000000000000000e+00,-4.460449218750000000e-01,2.499389648437500000e-01,5.946655273437500000e-01,6.203613281250000000e-01
4.000000000000000000e+00,-5.000000000000000000e+00,2.000000000000000000e+00,2.000000000000000000e+00,2.000000000000000000e+00,2.300000000000000000e+01,1.100000000000000000e+01,-1.000000000000000000e+00,-4.460449218750000000e-01,2.499389648437500000e-01,5.946655273437500000e-01,6.203613281250000000e-01
-5.000000000000000000e+00,-2.000000000000000000e+00,0.000000000000000000e+00,5.000000000000000000e+00,-5.000000000000000000e+00,-7.000000000000000000e+00,-8.000000000000000000e+00,-4.000000000000000000e+00,-4.460449218750000000e-01,2.499389648437500000e-01,5.946655273437500000e-01,6.203613281250000000e-01
-4.000000000000000000e+00,-4.000000000000000000e+00,0.000000000000000000e+00,-1.300000000000000000e+01,-3.000000000000000000e+00,4.000000000000000000e+00,1.300000000000000000e+01,5.000000000000000000e+00,-4.461059570312500000e-01,2.492675781250000000e-01,5.936279296875000000e-01,6.215820312500000000e-01
3.000000000000000000e+00,3.000000000000000000e+00,1.000000000000000000e+00,3.000000000000000000e+00,0.000000000000000000e+00,-2.000000000000000000e+00,-7.000000000000000000e+00,-2.000000000000000000e+00,-4.461059570312500000e-01,2.492675781250000000e-01,5.936279296875000000e-01,6.215820312500000000e-01
0.000000000000000000e+00,2.000000000000000000e+00,-1.200000000000000000e+01,-4.000000000000000000e+00,1.000000000000000000e+00,-7.000000000000000000e+00,-5.000000000000000000e+00,-3.000000000000000000e+00,-4.461059570312500000e-01,2.492675781250000000e-01,5.936279296875000000e-01,6.215820312500000000e-01
-8.000000000000000000e+00,-1.500000000000000000e+01,-2.000000000000000000e+00,-4.000000000000000000e+00,-2.000000000000000000e+00,-3.000000000000000000e+00,0.000000000000000000e+00,3.000000000000000000e+00,-4.461059570312500000e-01,2.492675781250000000e-01,5.936279296875000000e-01,6.215820312500000000e-01
0.000000000000000000e+00,-1.000000000000000000e+00,2.000000000000000000e+00,8.000000000000000000e+00,-1.000000000000000000e+00,2.000000000000000000e+00,-1.000000000000000000e+00,0.000000000000000000e+00,-4.461669921875000000e-01,2.498779296875000000e-01,5.923461914062500000e-01,6.225585937500000000e-01
1.300000000000000000e+01,5.000000000000000000e+00,-3.000000000000000000e+00,-6.000000000000000000e+00,0.000000000000000000e+00,-1.000000000000000000e+00,3.000000000000000000e+00,-3.000000000000000000e+00,-4.461669921875000000e-01,2.498779296875000000e-01,5.923461914062500000e-01,6.225585937500000000e-01
-1.200000000000000000e+01,-7.000000000000000000e+00,9.000000000000000000e+00,6.000000000000000000e+00,0.000000000000000000e+00,-5.000000000000000000e+00,-1.300000000000000000e+01,-1.000000000000000000e+00,-4.461669921875000000e-01,2.498779296875000000e-01,5.923461914062500000e-01,6.225585937500000000e-01
1.200000000000000000e+01,2.000000000000000000e+00,0.000000000000000000e+00,-2.000000000000000000e+00,0.000000000000000000e+00,2.000000000000000000e+00,3.000000000000000000e+00,0.000000000000000000e+00,-4.461669921875000000e-01,2.498779296875000000e-01,5.923461914062500000e-01,6.225585937500000000e-01
-1.000000000000000000e+01,-4.000000000000000000e+00,-2.000000000000000000e+00,-5.000000000000000000e+00,-2.000000000000000000e+00,-5.000000000000000000e+00,0.000000000000000000e+00,0.000000000000000000e+00,-4.469604492187500000e-01,2.509765625000000000e-01,5.912475585937500000e-01,6.225585937500000000e-01
-4.000000000000000000e+00,0.000000000000000000e+00,-1.000000000000000000e+00,5.000000000000000000e+00,2.000000000000000000e+00,1.000000000000000000e+00,2.000000000000000000e+00,-2.000000000000000000e+00,-4.469604492187500000e-01,2.509765625000000000e-01,5.912475585937500000e-01,6.225585937500000000e-01
1.300000000000000000e+01,1.000000000000000000e+00,4.000000000000000000e+00,1.000000000000000000e+00,-3.000000000000000000e+00,5.000000000000000000e+00,6.000000000000000000e+00,2.000000000000000000e+00,-4.469604492187500000e-01,2.509765625000000000e-01,5.912475585937500000e-01,6.225585937500000000e-01
-2.100000000000000000e+01,1.000000000000000000e+00,-1.000000000000000000e+00,-4.000000000000000000e+00,0.000000000000000000e+00,-6.000000000000000000e+00,-1.800000000000000000e+01,-5.000000000000000000e+00,-4.469604492187500000e-01,2.509765625000000000e-01,5.912475585937500000e-01,6.225585937500000000e-01
0.000000000000000000e+00,-6.000000000000000000e+00,-4.000000000000000000e+00,-3.000000000000000000e+00,-2.000000000000000000e+00,0.000000000000000000e+00,-1.000000000000000000e+00,-1.000000000000000000e+00,-4.491577148437500000e-01,2.514648437500000000e-01,5.902709960937500000e-01,6.217041015625000000e-01
1.300000000000000000e+01,5.000000000000000000e+00,9.000000000000000000e+00,3.000000000000000000e+00,-2.000000000000000000e+00,-1.900000000000000000e+01,-7.000000000000000000e+00,2.000000000000000000e+00,-4.491577148437500000e-01,2.514648437500000000e-01,5.902709960937500000e-01,6.217041015625000000e-01
2.000000000000000000e+00,4.000000000000000000e+00,-6.000000000000000000e+00,-5.000000000000000000e+00,-1.000000000000000000e+00,1.000000000000000000e+01,-1.000000000000000000e+00,1.000000000000000000e+00,-4.491577148437500000e-01,2.514648437500000000e-01,5.902709960937500000e-01,6.217041015625000000e-01
4.000000000000000000e+00,2.000000000000000000e+00,-1.000000000000000000e+00,3.000000000000000000e+00,-1.000000000000000000e+00,5.000000000000000000e+00,1.900000000000000000e+01,0.000000000000000000e+00,-4.491577148437500000e-01,2.514648437500000000e-01,5.902709960937500000e-01,6.217041015625000000e-01
-7.000000000000000000e+00,1.000000000000000000e+00,-2.000000000000000000e+00,0.000000000000000000e+00,2.000000000000000000e+00,0.000000000000000000e+00,-1.000000000000000000e+01,-1.000000000000000000e+00,-4.519042968750000000e-01,2.515258789062500000e-01,5.892944335937500000e-01,6.206665039062500000e-01
-1.000000000000000000e+00,-7.000000000000000000e+00,-5.000000000000000000e+00,-7.000000000000000000e+00,-4.000000000000000000e+00,-9.000000000000000000e+00,-6.000000000000000000e+00,-2.000000000000000000e+00,-4.519042968750000000e-01,2.515258789062500000e-01,5.892944335937500000e-01,6.206665039062500000e-01
-7.000000000000000000e+00,6.000000000000000000e+00,1.000000000000000000e+01,0.000000000000000000e+00,-2.000000000000000000e+00,-1.100000000000000000e+01,-6.000000000000000000e+00,-2.000000000000000000e+00,-4.519042968750000000e-01,2.515258789062500000e-01,5.892944335937500000e-01,6.206665039062500000e-01
-2.000000000000000000e+00,-7.000000000000000000e+00,-3.000000000000000000e+00,7.000000000000000000e+00,5.000000000000000000e+00,7.000000000000000000e+00,8.000000000000000000e+00,-3.000000000000000000e+00,-4.519042968750000000e-01,2.515258789062500000e-01,5.892944335937500000e-01,6.206665039062500000e-01
-1.400000000000000000e+01,3.000000000000000000e+00,7.000000000000000000e+00,8.000000000000000000e+00,0.000000000000000000e+00,-3.000000000000000000e+00,-7.000000000000000000e+00,0.000000000000000000e+00,-4.544067382812500000e-01,2.518920898437500000e-01,5.883178710937500000e-01,6.195678710937500000e-01
2.000000000000000000e+00,0.000000000000000000e+00,-3.000000000000000000e+00,-4.000000000000000000e+00,-2.000000000000000000e+00,1.100000000000000000e+01,2.000000000000000000e+00,-2.000000000000000000e+00,-4.544067382812500000e-01,2.518920898437500000e-01,5.883178710937500000e-01,6.195678710937500000e-01
3.000000000000000000e+00,0.000000000000000000e+00,5.000000000000000000e+00,-4.000000000000000000e+00,-2.000000000000000000e+00,-8.000000000000000000e+00,-6.000000000000000000e+00,0.000000000000000000e+00,-4.544067382812500000e-01,2.518920898437500000e-01,5.883178710937500000e-01,6.195678710937500000e-01
6.000000000000000000e+00,5.000000000000000000e+00,-1.000000000000000000e+01,-7.000000000000000000e+00,-1.000000000000000000e+00,1.000000000000000000e+00,0.000000000000000000e+00,1.000000000000000000e+00,-4.544067382812500000e-01,2.518920898437500000e-01,5.883178710937500000e-01,6.195678710937500000e-01
6.000000000000000000e+00,4.000000000000000000e+00,3.000000000000000000e+00,7.000000000000000000e+00,-1.000000000000000000e+00,-6.000000000000000000e+00,-3.000000000000000000e+00,-1.000000000000000000e+00,-4.553833007812500000e-01,2.530517578125000000e-01,5.877075195312500000e-01,6.189575195312500000e-01
-3.000000000000000000e+00,-4.000000000000000000e+00,-1.000000000000000000e+00,-9.000000000000000000e+00,0.000000000000000000e+00,3.000000000000000000e+00,-2.000000000000000000e+00,0.000000000000000000e+00,-4.553833007812500000e-01,2.530517578125000000e-01,5.877075195312500000e-01,6.189575195312500000e-01
-1.000000000000000000e+01,1.000000000000000000e+00,-1.000000000000000000e+00,-2.000000000000000000e+00,-1.000000000000000000e+00,-1.000000000000000000e+00,-9.000000000000000000e+00,-8.000000000000000000e+00,-4.553833007812500000e-01,2.530517578125000000e-01,5.877075195312500000e-01,6.189575195312500000e-01
-3.000000000000000000e+00,-4.000000000000000000e+00,-1.000000000000000000e+00,0.000000000000000000e+00,-1.000000000000000000e+00,-6.000000000000000000e+00,-1.000000000000000000e+00,5.000000000000000000e+00,-4.553833007812500000e-01,2.530517578125000000e-01,5.877075195312500000e-01,6.189575195312500000e-01
3.000000000000000000e+00,1.000000000000000000e+00,0.000000000000000000e+00,-7.000000000000000000e+00,-4.000000000000000000e+00,1.000000000000000000e+00,9.000000000000000000e+00,-4.000000000000000000e+00,-4.550170898437500000e-01,2.539672851562500000e-01,5.874633789062500000e-01,6.190795898437500000e-01
-4.000000000000000000e+00,-3.000000000000000000e+00,-6.000000000000000000e+00,5.000000000000000000e+00,-1.000000000000000000e+00,7.000000000000000000e+00,5.000000000000000000e+00,1.500000000000000000e+01,-4.550170898437500000e-01,2.539672851562500000e-01,5.874633789062500000e-01,6.190795898437500000e-01
-2.000000000000000000e+00,-4.000000000000000000e+00,6.000000000000000000e+00,0.000000000000000000e+00,0.000000000000000000e+00,-9.000000000000000000e+00,-8.000000000000000000e+00,1.000000000000000000e+00,-4.550170898437500000e-01,2.539672851562500000e-01,5.874633789062500000e-01,6.190795898437500000e-01
4.000000000000000000e+00,4.000000000000000000e+00,-1.000000000000000000e+00,9.000000000000000000e+00,1.000000000000000000e+00,0.000000000000000000e+00,2.200000000000000000e+01,-6.000000000000000000e+00,-4.550170898437500000e-01,2.539672851562500000e-01,5.874633789062500000e-01,6.190795898437500000e-01
5.000000000000000000e+00,4.000000000000000000e+00,-4.000000000000000000e+00,-7.000000000000000000e+00,-1.000000000000000000e+00,-3.000000000000000000e+00,-9.000000000000000000e+00,4.000000000000000000e+00,-4.545288085937500000e-01,2.536010742187500000e-01,5.877685546875000000e-01,6.193237304687500000e-01
1.000000000000000000e+00,1.000000000000000000e+00,0.000000000000000000e+00,4.000000000000000000e+00,-1.000000000000000000e+00,9.000000000000000000e+00,3.000000000000000000e+00,-8.000000000000000000e+00,-4.545288085937500000e-01,2.536010742187500000e-01,5.877685546875000000e-01,6.193237304687500000e-01
-3.000000000000000000e+00,-8.000000000000000000e+00,7.000000000000000000e+00,1.200000000000000000e+01,3.000000000000000000e+00,-4.000000000000000000e+00,1.000000000000000000e+00,9.000000000000000000e+00,-4.545288085937500000e-01,2.536010742187500000e-01,5.877685546875000000e-01,6.193237304687500000e-01
1.000000000000000000e+00,-2.000000000000000000e+00,-7.000000000000000000e+00,-9.000000000000000000e+00,-5.000000000000000000e+00,-4.000000000000000000e+00,-2.000000000000000000e+00,-1.000000000000000000e+00,-4.545288085937500000e-01,2.536010742187500000e-01,5.877685546875000000e-01,6.193237304687500000e-01
2.000000000000000000e+00,-4.000000000000000000e+00,-4.000000000000000000e+00,0.000000000000000000e+00,-3.000000000000000000e+00,1.000000000000000000e+00,4.000000000000000000e+00,3.000000000000000000e+00,-4.547119140625000000e-01,2.528076171875000000e-01,5.881347656250000000e-01,6.192016601562500000e-01
-1.000000000000000000e+00,5.000000000000000000e+00,-4.000000000000000000e+00,-1.100000000000000000e+01,-3.000000000000000000e+00,-8.000000000000000000e+00,-6.000000000000000000e+00,-9.000000000000000000e+00,-4.547119140625000000e-01,2.528076171875000000e-01,5.881347656250000000e-01,6.192016601562500000e-01
1.000000000000000000e+00,-4.000000000000000000e+00,-9.000000000000000000e+00,-3.000000000000000000e+00,0.000000000000000000e+00,-5.000000000000000000e+00,2.000000000000000000e+00,6.000000000000000000e+00,-4.547119140625000000e-01,2.528076171875000000e-01,5.881347656250000000e-01,6.192016601562500000e-01
1.000000000000000000e+00,6.000000000000000000e+00,-2.000000000000000000e+00,3.000000000000000000e+00,3.000000000000000000e+00,-1.000000000000000000e+00,-7.000000000000000000e+00,-3.000000000000000000e+00,-4.547119140625000000e-01,2.528076171875000000e-01,5.881347656250000000e-01,6.192016601562500000e-01
0.000000000000000000e+00,-3.000000000000000000e+00,-4.000000000000000000e+00,-2.000000000000000000e+00,-3.000000000000000000e+00,0.000000000000000000e+00,-2.000000000000000000e+00,-2.000000000000000000e+00,-4.541625976562500000e-01,2.525634765625000000e-01,5.883178710937500000e-01,6.195068359375000000e-01
-4.000000000000000000e+00,-2.000000000000000000e+00,-3.000000000000000000e+00,2.000000000000000000e+00,3.000000000000000000e+00,-3.000000000000000000e+00,-4.000000000000000000e+00,1.000000000000000000e+00,-4.541625976562500000e-01,2.525634765625000000e-01,5.883178710937500000e-01,6.195068359375000000e-01
-1.000000000000000000e+00,-4.000000000000000000e+00,-1.000000000000000000e+01,-1.000000000000000000e+00,-5.000000000000000000e+00,-5.000000000000000000e+00,2.000000000000000000e+00,-7.000000000000000000e+00,-4.541625976562500000e-01,2.525634765625000000e-01,5.883178710937500000e-01,6.195068359375000000e-01
-4.000000000000000000e+00,-4.000000000000000000e+00,-1.100000000000000000e+01,-8.000000000000000000e+00,-8.000000000000000000e+00,1.000000000000000000e+00,-4.000000000000000000e+00,-2.000000000000000000e+00,-4.541625976562500000e-01,2.525634765625000000e-01,5.883178710937500000e-01,6.195068359375000000e-01
2.000000000000000000e+00,-3.000000000000000000e+00,2.000000000000000000e+00,-7.000000000000000000e+00,-1.000000000000000000e+00,-2.000000000000000000e+00,-5.000000000000000000e+00,0.000000000000000000e+00,-4.531250000000000000e-01,2.517700195312500000e-01,5.892333984375000000e-01,6.196899414062500000e-01
-4.000000000000000000e+00,0.000000000000000000e+00,1.000000000000000000e+00,7.000000000000000000e+00,4.000000000000000000e+00,0.000000000000000000e+00,9.000000000000000000e+00,0.000000000000000000e+00,-4.531250000000000000e-01,2.517700195312500000e-01,5.892333984375000000e-01,6.196899414062500000e-01
