2.000000000000000000e+00,-1.000000000000000000e+00,4.000000000000000000e+00,7.000000000000000000e+00,-2.000000000000000000e+00,-5.000000000000000000e+00,-9.000000000000000000e+00,0.000000000000000000e+00,-4.492797851562500000e-01,3.411865234375000000e-01,6.357421875000000000e-01,5.267944335937500000e-01
-5.000000000000000000e+00,-3.000000000000000000e+00,-3.000000000000000000e+00,-1.200000000000000000e+01,-5.000000000000000000e+00,-4.000000000000000000e+00,8.000000000000000000e+00,-7.000000000000000000e+00,-4.492797851562500000e-01,3.411865234375000000e-01,6.357421875000000000e-01,5.267944335937500000e-01
-1.000000000000000000e+00,3.000000000000000000e+00,1.500000000000000000e+01,1.000000000000000000e+00,-7.000000000000000000e+00,-2.000000000000000000e+01,0.000000000000000000e+00,2.000000000000000000e+00,-4.479370117187500000e-01,3.378906250000000000e-01,6.353759765625000000e-01,5.304565429687500000e-01
9.000000000000000000e+00,7.000000000000000000e+00,2.000000000000000000e+00,-2.000000000000000000e+00,3.000000000000000000e+00,1.100000000000000000e+01,-3.000000000000000000e+00,5.000000000000000000e+00,-4.479370117187500000e-01,3.378906250000000000e-01,6.353759765625000000e-01,5.304565429687500000e-01
-8.000000000000000000e+00,-9.000000000000000000e+00,-6.000000000000000000e+00,-6.000000000000000000e+00,0.000000000000000000e+00,-1.200000000000000000e+01,-5.500000000000000000e+01,-8.000000000000000000e+00,-4.479370117187500000e-01,3.378906250000000000e-01,6.353759765625000000e-01,5.304565429687500000e-01
3.000000000000000000e+00,4.000000000000000000e+00,5.000000000000000000e+00,3.000000000000000000e+00,-1.000000000000000000e+01,-4.500000000000000000e+01,-2.000000000000000000e+01,-3.000000000000000000e+00,-4.479370117187500000e-01,3.378906250000000000e-01,6.353759765625000000e-01,5.304565429687500000e-01
3.000000000000000000e+00,-2.000000000000000000e+00,1.100000000000000000e+01,-4.000000000000000000e+00,1.300000000000000000e+01,2.900000000000000000e+01,3.200000000000000000e+01,7.000000000000000000e+00,-4.472656250000000000e-01,3.336181640625000000e-01,6.364746093750000000e-01,5.324096679687500000e-01
2.000000000000000000e+00,5.000000000000000000e+00,9.000000000000000000e+00,5.000000000000000000e+00,-4.000000000000000000e+00,-8.000000000000000000e+00,-2.000000000000000000e+01,0.000000000000000000e+00,-4.472656250000000000e-01,3.336181640625000000e-01,6.364746093750000000e-01,5.324096679687500000e-01
-1.200000000000000000e+01,-1.000000000000000000e+01,-1.100000000000000000e+01,-2.200000000000000000e+01,-1.700000000000000000e+01,-4.000000000000000000e+01,4.000000000000000000e+00,-1.300000000000000000e+01,-4.472656250000000000e-01,3.336181640625000000e-01,6.364746093750000000e-01,5.324096679687500000e-01
-3.000000000000000000e+00,1.000000000000000000e+00,2.300000000000000000e+01,0.000000000000000000e+00,-6.000000000000000000e+00,-1.300000000000000000e+01,-1.000000000000000000e+00,-2.000000000000000000e+00,-4.472656250000000000e-01,3.336181640625000000e-01,6.364746093750000000e-01,5.324096679687500000e-01
7.000000000000000000e+00,-5.000000000000000000e+00,-3.300000000000000000e+01,-7.000000000000000000e+00,-3.000000000000000000e+00,-2.000000000000000000e+00,1.000000000000000000e+01,1.700000000000000000e+01,-4.479370117187500000e-01,3.283691406250000000e-01,6.372680664062500000e-01,5.341796875000000000e-01
-1.500000000000000000e+01,1.000000000000000000e+00,2.000000000000000000e+00,1.000000000000000000e+00,3.000000000000000000e+00,8.000000000000000000e+00,1.000000000000000000e+01,-8.000000000000000000e+00,-4.479370117187500000e-01,3.283691406250000000e-01,6.372680664062500000e-01,5.341796875000000000e-01
5.000000000000000000e+00,-3.000000000000000000e+00,0.000000000000000000e+00,1.000000000000000000e+00,0.000000000000000000e+00,-4.000000000000000000e+00,1.000000000000000000e+00,-1.400000000000000000e+01,-4.479370117187500000e-01,3.283691406250000000e-01,6.372680664062500000e-01,5.341796875000000000e-01
-1.000000000000000000e+00,-4.000000000000000000e+00,-3.000000000000000000e+00,5.000000000000000000e+00,5.000000000000000000e+00,1.800000000000000000e+01,1.900000000000000000e+01,1.300000000000000000e+01,-4.479370117187500000e-01,3.283691406250000000e-01,6.372680664062500000e-01,5.341796875000000000e-01
-1.100000000000000000e+01,-5.000000000000000000e+00,-4.000000000000000000e+00,-1.000000000000000000e+00,0.000000000000000000e+00,4.000000000000000000e+00,8.000000000000000000e+00,-6.000000000000000000e+00,-4.489746093750000000e-01,3.253784179687500000e-01,6.361083984375000000e-01,5.364990234375000000e-01
7.000000000000000000e+00,-1.000000000000000000e+01,-1.000000000000000000e+00,-5.000000000000000000e+00,-3.000000000000000000e+00,-9.000000000000000000e+00,-4.000000000000000000e+00,4.000000000000000000e+00,-4.489746093750000000e-01,3.253784179687500000e-01,6.361083984375000000e-01,5.364990234375000000e-01
-3.000000000000000000e+00,-4.000000000000000000e+00,-1.000000000000000000e+00,1.200000000000000000e+01,3.000000000000000000e+00,1.200000000000000000e+01,1.100000000000000000e+01,1.000000000000000000e+00,-4.489746093750000000e-01,3.253784179687500000e-01,6.361083984375000000e-01,5.364990234375000000e-01
-3.000000000000000000e+00,1.000000000000000000e+01,-8.000000000000000000e+00,-8.000000000000000000e+00,-1.000000000000000000e+00,5.000000000000000000e+00,-1.000000000000000000e+01,-5.000000000000000000e+00,-4.489746093750000000e-01,3.253784179687500000e-01,6.361083984375000000e-01,5.364990234375000000e-01
-1.000000000000000000e+00,-1.000000000000000000e+00,1.000000000000000000e+01,2.000000000000000000e+00,-3.000000000000000000e+00,1.000000000000000000e+00,-2.000000000000000000e+00,-1.000000000000000000e+00,-4.481201171875000000e-01,3.261108398437500000e-01,6.340942382812500000e-01,5.391845703125000000e-01
-4.000000000000000000e+00,4.000000000000000000e+00,2.000000000000000000e+00,2.000000000000000000e+00,1.000000000000000000e+00,0.000000000000000000e+00,-1.700000000000000000e+01,-1.000000000000000000e+00,-4.481201171875000000e-01,3.261108398437500000e-01,6.340942382812500000e-01,5.391845703125000000e-01
3.000000000000000000e+00,3.000000000000000000e+00,2.000000000000000000e+00,5.000000000000000000e+00,1.100000000000000000e+01,1.100000000000000000e+01,6.000000000000000000e+00,7.000000000000000000e+00,-4.481201171875000000e-01,3.261108398437500000e-01,6.340942382812500000e-01,5.391845703125000000e-01
-5.000000000000000000e+00,-9.000000000000000000e+00,-1.000000000000000000e+00,5.000000000000000000e+00,-2.000000000000000000e+00,1.700000000000000000e+01,-1.000000000000000000e+01,-7.000000000000000000e+00,-4.481201171875000000e-01,3.261108398437500000e-01,6.340942382812500000e-01,5.391845703125000000e-01
-6.000000000000000000e+00,-3.000000000000000000e+00,-2.000000000000000000e+00,-5.000000000000000000e+00,-5.000000000000000000e+00,-3.300000000000000000e+01,-4.400000000000000000e+01,-5.000000000000000000e+00,-4.465332031250000000e-01,3.284301757812500000e-01,6.328125000000000000e-01,5.405883789062500000e-01
2.000000000000000000e+00,2.000000000000000000e+00,2.000000000000000000e+00,-1.000000000000000000e+00,-5.000000000000000000e+00,4.000000000000000000e+00,4.000000000000000000e+01,0.000000000000000000e+00,-4.465332031250000000e-01,3.284301757812500000e-01,6.328125000000000000e-01,5.405883789062500000e-01
3.000000000000000000e+00,4.000000000000000000e+00,-1.100000000000000000e+01,-7.000000000000000000e+00,4.000000000000000000e+00,2.900000000000000000e+01,-2.000000000000000000e+00,5.000000000000000000e+00,-4.465332031250000000e-01,3.284301757812500000e-01,6.328125000000000000e-01,5.405883789062500000e-01
0.000000000000000000e+00,2.000000000000000000e+00,-2.000000000000000000e+00,6.000000000000000000e+00,0.000000000000000000e+00,7.000000000000000000e+00,9.000000000000000000e+00,2.000000000000000000e+00,-4.465332031250000000e-01,3.284301757812500000e-01,6.328125000000000000e-01,5.405883789062500000e-01
3.000000000000000000e+00,1.000000000000000000e+00,-2.000000000000000000e+00,-7.000000000000000000e+00,-7.000000000000000000e+00,-1.600000000000000000e+01,9.000000000000000000e+00,-8.000000000000000000e+00,-4.453125000000000000e-01,3.299560546875000000e-01,6.325073242187500000e-01,5.410156250000000000e-01
0.000000000000000000e+00,0.000000000000000000e+00,6.000000000000000000e+00,-3.000000000000000000e+00,0.000000000000000000e+00,-1.100000000000000000e+01,-3.400000000000000000e+01,-3.000000000000000000e+00,-4.453125000000000000e-01,3.299560546875000000e-01,6.325073242187500000e-01,5.410156250000000000e-01
-8.000000000000000000e+00,-3.000000000000000000e+00,-4.000000000000000000e+00,-4.000000000000000000e+00,-7.000000000000000000e+00,-8.000000000000000000e+00,1.500000000000000000e+01,5.000000000000000000e+00,-4.453125000000000000e-01,3.299560546875000000e-01,6.325073242187500000e-01,5.410156250000000000e-01
1.000000000000000000e+00,4.000000000000000000e+00,-2.000000000000000000e+00,-2.000000000000000000e+00,6.000000000000000000e+00,7.000000000000000000e+00,8.000000000000000000e+00,0.000000000000000000e+00,-4.453125000000000000e-01,3.299560546875000000e-01,6.325073242187500000e-01,5.410156250000000000e-01
0.000000000000000000e+00,2.000000000000000000e+00,4.000000000000000000e+00,7.000000000000000000e+00,0.000000000000000000e+00,-2.000000000000000000e+00,-4.000000000000000000e+00,-7.000000000000000000e+00,-4.453125000000000000e-01,3.295288085937500000e-01,6.334228515625000000e-01,5.401611328125000000e-01
9.000000000000000000e+00,2.000000000000000000e+00,-5.000000000000000000e+00,0.000000000000000000e+00,1.000000000000000000e+00,4.000000000000000000e+00,0.000000000000000000e+00,8.000000000000000000e+00,-4.453125000000000000e-01,3.295288085937500000e-01,6.334228515625000000e-01,5.401611328125000000e-01
-1.000000000000000000e+00,-3.000000000000000000e+00,-5.000000000000000000e+00,-2.000000000000000000e+00,-4.000000000000000000e+00,0.000000000000000000e+00,9.000000000000000000e+00,0.000000000000000000e+00,-4.453125000000000000e-01,3.295288085937500000e-01,6.334228515625000000e-01,5.401611328125000000e-01
-3.000000000000000000e+00,-7.000000000000000000e+00,-6.000000000000000000e+00,-6.000000000000000000e+00,2.000000000000000000e+00,1.800000000000000000e+01,1.400000000000000000e+01,-2.000000000000000000e+00,-4.453125000000000000e-01,3.295288085937500000e-01,6.334228515625000000e-01,5.401611328125000000e-01
1.000000000000000000e+00,4.000000000000000000e+00,4.000000000000000000e+00,1.000000000000000000e+01,3.000000000000000000e+00,1.000000000000000000e+00,-4.000000000000000000e+00,2.000000000000000000e+00,-4.459838867187500000e-01,3.283691406250000000e-01,6.343383789062500000e-01,5.393066406250000000e-01
0.000000000000000000e+00,1.000000000000000000e+00,-1.000000000000000000e+00,-6.000000000000000000e+00,2.000000000000000000e+00,1.300000000000000000e+01,1.000000000000000000e+00,0.000000000000000000e+00,-4.459838867187500000e-01,3.283691406250000000e-01,6.343383789062500000e-01,5.393066406250000000e-01
-1.000000000000000000e+00,-6.000000000000000000e+00,-8.000000000000000000e+00,7.000000000000000000e+00,-3.000000000000000000e+00,-8.000000000000000000e+00,-1.300000000000000000e+01,-6.000000000000000000e+00,-4.459838867187500000e-01,3.283691406250000000e-01,6.343383789062500000e-01,5.393066406250000000e-01
0.000000000000000000e+00,6.000000000000000000e+00,7.000000000000000000e+00,1.000000000000000000e+00,-5.000000000000000000e+00,-2.500000000000000000e+01,-5.000000000000000000e+00,8.000000000000000000e+00,-4.459838867187500000e-01,3.283691406250000000e-01,6.343383789062500000e-01,5.393066406250000000e-01
-1.100000000000000000e+01,-7.000000000000000000e+00,8.000000000000000000e+00,4.000000000000000000e+00,2.000000000000000000e+00,1.800000000000000000e+01,8.000000000000000000e+00,-3.000000000000000000e+00,-4.457397460937500000e-01,3.295288085937500000e-01,6.338500976562500000e-01,5.393676757812500000e-01
1.400000000000000000e+01,1.000000000000000000e+00,-2.000000000000000000e+00,-9.000000000000000000e+00,-5.000000000000000000e+00,-5.000000000000000000e+00,-1.600000000000000000e+01,-2.000000000000000000e+00,-4.457397460937500000e-01,3.295288085937500000e-01,6.338500976562500000e-01,5.393676757812500000e-01
5.000000000000000000e+00,-4.000000000000000000e+00,2.000000000000000000e+00,5.000000000000000000e+00,-3.000000000000000000e+00,9.000000000000000000e+00,7.000000000000000000e+00,-9.000000000000000000e+00,-4.457397460937500000e-01,3.295288085937500000e-01,6.338500976562500000e-01,5.393676757812500000e-01
-6.000000000000000000e+00,-3.000000000000000000e+00,0.000000000000000000e+00,1.000000000000000000e+00,6.000000000000000000e+00,-3.000000000000000000e+00,-1.800000000000000000e+01,3.000000000000000000e+00,-4.457397460937500000e-01,3.295288085937500000e-01,6.338500976562500000e-01,5.393676757812500000e-01
-4.000000000000000000e+00,1.000000000000000000e+00,1.000000000000000000e+00,0.000000000000000000e+00,-3.000000000000000000e+00,4.000000000000000000e+00,3.000000000000000000e+00,-1.000000000000000000e+00,-4.446411132812500000e-01,3.317871093750000000e-01,6.328125000000000000e-01,5.401000976562500000e-01
-8.000000000000000000e+00,-2.000000000000000000e+00,-6.000000000000000000e+00,-6.000000000000000000e+00,0.000000000000000000e+00,-5.000000000000000000e+00,-5.000000000000000000e+00,-2.000000000000000000e+00,-4.446411132812500000e-01,3.317871093750000000e-01,6.328125000000000000e-01,5.401000976562500000e-01
2.000000000000000000e+00,3.000000000000000000e+00,0.000000000000000000e+00,5.000000000000000000e+00,1.000000000000000000e+00,-7.000000000000000000e+00,9.000000000000000000e+00,0.000000000000000000e+00,-4.446411132812500000e-01,3.317871093750000000e-01,6.328125000000000000e-01,5.401000976562500000e-01
8.000000000000000000e+00,-5.000000000000000000e+00,-6.000000000000000000e+00,-7.000000000000000000e+00,1.000000000000000000e+00,3.000000000000000000e+00,-7.000000000000000000e+00,-4.000000000000000000e+00,-4.446411132812500000e-01,3.317871093750000000e-01,6.328125000000000000e-01,5.401000976562500000e-01
7.000000000000000000e+00,4.000000000000000000e+00,-1.200000000000000000e+01,7.000000000000000000e+00,-1.000000000000000000e+00,2.100000000000000000e+01,7.800000000000000000e+01,1.200000000000000000e+01,-4.432983398437500000e-01,3.344726562500000000e-01,6.318969726562500000e-01,5.405883789062500000e-01
-1.000000000000000000e+01,-5.000000000000000000e+00,1.000000000000000000e+00,1.200000000000000000e+01,3.000000000000000000e+00,8.000000000000000000e+00,9.000000000000000000e+00,3.000000000000000000e+00,-4.432983398437500000e-01,3.344726562500000000e-01,6.318969726562500000e-01,5.405883789062500000e-01
-3.000000000000000000e+00,-2.000000000000000000e+00,1.000000000000000000e+00,3.000000000000000000e+00,5.000000000000000000e+00,3.000000000000000000e+00,-1.100000000000000000e+01,-6.000000000000000000e+00,-4.432983398437500000e-01,3.344726562500000000e-01,6.318969726562500000e-01,5.405883789062500000e-01
-4.000000000000000000e+00,1.000000000000000000e+00,-1.300000000000000000e+01,-1.200000000000000000e+01,-9.000000000000000000e+00,-1.600000000000000000e+01,-7.000000000000000000e+00,-2.000000000000000000e+00,-4.432983398437500000e-01,3.344726562500000000e-01,6.318969726562500000e-01,5.405883789062500000e-01
3.000000000000000000e+00,0.000000000000000000e+00,1.700000000000000000e+01,1.000000000000000000e+00,7.000000000000000000e+00,2.400000000000000000e+01,7.000000000000000000e+00,4.000000000000000000e+00,-4.425659179687500000e-01,3.354492187500000000e-01,6.317749023437500000e-01,5.407714843750000000e-01
2.000000000000000000e+00,3.000000000000000000e+00,-5.000000000000000000e+00,0.000000000000000000e+00,-3.000000000000000000e+00,-1.200000000000000000e+01,-1.000000000000000000e+00,1.000000000000000000e+00,-4.425659179687500000e-01,3.354492187500000000e-01,6.317749023437500000e-01,5.407714843750000000e-01
-2.200000000000000000e+01,-1.100000000000000000e+01,-7.000000000000000000e+00,-2.000000000000000000e+00,-2.000000000000000000e+00,-3.000000000000000000e+00,2.700000000000000000e+01,0.000000000000000000e+00,-4.425659179687500000e-01,3.354492187500000000e-01,6.317749023437500000e-01,5.407714843750000000e-01
1.000000000000000000e+00,1.000000000000000000e+00,7.000000000000000000e+00,9.000000000000000000e+00,1.000000000000000000e+00,4.000000000000000000e+00,-8.000000000000000000e+00,-2.000000000000000000e+00,-4.425659179687500000e-01,3.354492187500000000e-01,6.317749023437500000e-01,5.407714843750000000e-01
1.000000000000000000e+00,0.000000000000000000e+00,-9.000000000000000000e+00,-1.400000000000000000e+01,-3.000000000000000000e+00,-1.100000000000000000e+01,-2.200000000000000000e+01,-7.000000000000000000e+00,-4.426879882812500000e-01,3.342895507812500000e-01,6.323242187500000000e-01,5.407104492187500000e-01
-5.000000000000000000e+00,0.000000000000000000e+00,4.000000000000000000e+00,8.000000000000000000e+00,-3.000000000000000000e+00,-2.000000000000000000e+00,1.000000000000000000e+00,2.000000000000000000e+00,-4.426879882812500000e-01,3.342895507812500000e-01,6.323242187500000000e-01,5.407104492187500000e-01
2.000000000000000000e+00,-4.000000000000000000e+00,8.000000000000000000e+00,-7.000000000000000000e+00,-1.000000000000000000e+00,2.000000000000000000e+00,-2.400000000000000000e+01,-2.000000000000000000e+00,-4.426879882812500000e-01,3.342895507812500000e-01,6.323242187500000000e-01,5.407104492187500000e-01
8.000000000000000000e+00,-4.000000000000000000e+00,-1.000000000000000000e+00,2.000000000000000000e+00,1.000000000000000000e+00,-3.000000000000000000e+00,6.000000000000000000e+00,-3.000000000000000000e+00,-4.426879882812500000e-01,3.342895507812500000e-01,6.323242187500000000e-01,5.407104492187500000e-01
-3.000000000000000000e+00,4.000000000000000000e+00,-5.000000000000000000e+00,-1.100000000000000000e+01,0.000000000000000000e+00,-8.000000000000000000e+00,-3.000000000000000000e+01,-3.000000000000000000e+00,-4.429931640625000000e-01,3.331909179687500000e-01,6.326293945312500000e-01,5.408325195312500000e-01
-8.000000000000000000e+00,-1.000000000000000000e+00,0.000000000000000000e+00,-6.000000000000000000e+00,-4.000000000000000000e+00,-9.000000000000000000e+00,-1.000000000000000000e+00,-5.000000000000000000e+00,-4.429931640625000000e-01,3.331909179687500000e-01,6.326293945312500000e-01,5.408325195312500000e-01
7.000000000000000000e+00,-8.000000000000000000e+00,-1.000000000000000000e+00,-3.000000000000000000e+00,-3.000000000000000000e+00,-6.000000000000000000e+00,-1.000000000000000000e+01,7.000000000000000000e+00,-4.429931640625000000e-01,3.331909179687500000e-01,6.326293945312500000e-01,5.408325195312500000e-01
6.000000000000000000e+00,1.400000000000000000e+01,-4.000000000000000000e+00,3.000000000000000000e+00,2.000000000000000000e+00,8.000000000000000000e+00,1.300000000000000000e+01,1.000000000000000000e+00,-4.429931640625000000e-01,3.331909179687500000e-01,6.326293945312500000e-01,5.408325195312500000e-01
9.000000000000000000e+00,-4.000000000000000000e+00,-3.000000000000000000e+00,1.000000000000000000e+00,-6.000000000000000000e+00,-3.000000000000000000e+00,-4.000000000000000000e+00,3.000000000000000000e+00,-4.423217773437500000e-01,3.331909179687500000e-01,6.324462890625000000e-01,5.415039062500000000e-01
-4.000000000000000000e+00,-2.000000000000000000e+00,-1.000000000000000000e+00,-1.200000000000000000e+01,-5.000000000000000000e+00,-2.500000000000000000e+01,-3.200000000000000000e+01,-1.200000000000000000e+01,-4.423217773437500000e-01,3.331909179687500000e-01,6.324462890625000000e-01,5.415039062500000000e-01
2.000000000000000000e+00,3.000000000000000000e+00,3.000000000000000000e+00,-4.000000000000000000e+00,3.000000000000000000e+00,9.000000000000000000e+00,2.500000000000000000e+01,4.000000000000000000e+00,-4.423217773437500000e-01,3.331909179687500000e-01,6.324462890625000000e-01,5.415039062500000000e-01
-5.000000000000000000e+00,-8.000000000000000000e+00,6.000000000000000000e+00,4.000000000000000000e+00,3.000000000000000000e+00,2.000000000000000000e+01,8.000000000000000000e+00,-2.000000000000000000e+00,-4.423217773437500000e-01,3.331909179687500000e-01,6.324462890625000000e-01,5.415039062500000000e-01
-6.000000000000000000e+00,2.000000000000000000e+00,-7.000000000000000000e+00,-8.000000000000000000e+00,-1.000000000000000000e+00,-6.000000000000000000e+00,2.000000000000000000e+00,0.000000000000000000e+00,-4.413452148437500000e-01,3.330078125000000000e-01,6.325073242187500000e-01,5.423583984375000000e-01
-2.000000000000000000e+00,-2.000000000000000000e+00,-4.000000000000000000e+00,8.000000000000000000e+00,0.000000000000000000e+00,-1.100000000000000000e+01,-2.600000000000000000e+01,-6.000000000000000000e+00,-4.413452148437500000e-01,3.330078125000000000e-01,6.325073242187500000e-01,5.423583984375000000e-01
-1.000000000000000000e+00,1.000000000000000000e+00,7.000000000000000000e+00,-2.000000000000000000e+00,-3.000000000000000000e+00,4.000000000000000000e+00,-1.000000000000000000e+01,3.000000000000000000e+00,-4.413452148437500000e-01,3.330078125000000000e-01,6.325073242187500000e-01,5.423583984375000000e-01
-1.000000000000000000e+00,-1.000000000000000000e+00,1.000000000000000000e+00,5.000000000000000000e+00,1.000000000000000000e+00,0.000000000000000000e+00,-3.000000000000000000e+00,1.000000000000000000e+00,-4.413452148437500000e-01,3.330078125000000000e-01,6.325073242187500000e-01,5.423583984375000000e-01
-5.000000000000000000e+00,0.000000000000000000e+00,2.000000000000000000e+00,8.000000000000000000e+00,3.000000000000000000e+00,1.300000000000000000e+01,7.000000000000000000e+00,1.000000000000000000e+00,-4.405517578125000000e-01,3.322753906250000000e-01,6.329956054687500000e-01,5.429077148437500000e-01
4.000000000000000000e+00,-8.000000000000000000e+00,-1.000000000000000000e+01,-8.000000000000000000e+00,-1.000000000000000000e+00,9.000000000000000000e+00,1.300000000000000000e+01,-6.000000000000000000e+00,-4.405517578125000000e-01,3.322753906250000000e-01,6.329956054687500000e-01,5.429077148437500000e-01
-1.000000000000000000e+00,0.000000000000000000e+00,-1.000000000000000000e+00,1.000000000000000000e+00,1.000000000000000000e+00,-5.000000000000000000e+00,-2.300000000000000000e+01,8.000000000000000000e+00,-4.405517578125000000e-01,3.322753906250000000e-01,6.329956054687500000e-01,5.429077148437500000e-01
-7.000000000000000000e+00,-4.000000000000000000e+00,3.000000000000000000e+00,-8.000000000000000000e+00,-7.000000000000000000e+00,-8.000000000000000000e+00,9.000000000000000000e+00,-3.000000000000000000e+00,-4.405517578125000000e-01,3.322753906250000000e-01,6.329956054687500000e-01,5.429077148437500000e-01
1.000000000000000000e+00,-3.000000000000000000e+00,0.000000000000000000e+00,-1.000000000000000000e+00,-5.000000000000000000e+00,-5.000000000000000000e+00,-1.700000000000000000e+01,-6.000000000000000000e+00,-4.403076171875000000e-01,3.314208984375000000e-01,6.334838867187500000e-01,5.430908203125000000e-01
0.000000000000000000e+00,-3.000000000000000000e+00,-5.000000000000000000e+00,8.000000000000000000e+00,0.000000000000000000e+00,9.000000000000000000e+00,9.000000000000000000e+00,3.000000000000000000e+00,-4.403076171875000000e-01,3.314208984375000000e-01,6.334838867187500000e-01,5.430908203125000000e-01
-3.000000000000000000e+00,8.000000000000000000e+00,-1.000000000000000000e+00,-1.000000000000000000e+00,-2.000000000000000000e+00,3.000000000000000000e+00,-3.000000000000000000e+00,-2.000000000000000000e+00,-4.403076171875000000e-01,3.314208984375000000e-01,6.334838867187500000e-01,5.430908203125000000e-01
-1.000000000000000000e+00,-3.000000000000000000e+00,-4.000000000000000000e+00,-8.000000000000000000e+00,-4.000000000000000000e+00,-3.000000000000000000e+00,-1.300000000000000000e+01,-6.000000000000000000e+00,-4.403076171875000000e-01,3.314208984375000000e-01,6.334838867187500000e-01,5.430908203125000000e-01
2.000000000000000000e+00,3.000000000000000000e+00,1.400000000000000000e+01,5.000000000000000000e+00,5.000000000000000000e+00,1.000000000000000000e+00,7.000000000000000000e+00,8.000000000000000000e+00,-4.401855468750000000e-01,3.306274414062500000e-01,6.337280273437500000e-01,5.433349609375000000e-01
-1.000000000000000000e+00,0.000000000000000000e+00,-1.500000000000000000e+01,4.000000000000000000e+00,3.000000000000000000e+00,4.000000000000000000e+00,1.000000000000000000e+00,-2.000000000000000000e+00,-4.401855468750000000e-01,3.306274414062500000e-01,6.337280273437500000e-01,5.433349609375000000e-01
-1.000000000000000000e+00,-5.000000000000000000e+00,3.000000000000000000e+00,0.000000000000000000e+00,-4.000000000000000000e+00,-1.200000000000000000e+01,-8.000000000000000000e+00,-1.000000000000000000e+00,-4.401855468750000000e-01,3.306274414062500000e-01,6.337280273437500000e-01,5.433349609375000000e-01
2.000000000000000000e+00,-1.000000000000000000e+00,4.000000000000000000e+00,2.000000000000000000e+00,-1.000000000000000000e+00,6.000000000000000000e+00,0.000000000000000000e+00,2.000000000000000000e+00,-4.401855468750000000e-01,3.306274414062500000e-01,6.337280273437500000e-01,5.433349609375000000e-01
-5.000000000000000000e+00,-1.000000000000000000e+00,-2.000000000000000000e+00,-4.000000000000000000e+00,-5.000000000000000000e+00,-1.100000000000000000e+01,2.000000000000000000e+00,-1.300000000000000000e+01,-4.399414062500000000e-01,3.297119140625000000e-01,6.337890625000000000e-01,5.440063476562500000e-01
4.000000000000000000e+00,9.000000000000000000e+00,1.100000000000000000e+01,1.000000000000000000e+00,2.000000000000000000e+00,-1.000000000000000000e+00,-3.200000000000000000e+01,1.000000000000000000e+00,-4.399414062500000000e-01,3.297119140625000000e-01,6.337890625000000000e-01,5.440063476562500000e-01
-7.000000000000000000e+00,-6.000000000000000000e+00,-1.100000000000000000e+01,0.000000000000000000e+00,0.000000000000000000e+00,1.400000000000000000e+01,4.900000000000000000e+01,-4.000000000000000000e+00,-4.399414062500000000e-01,3.297119140625000000e-01,6.337890625000000000e-01,5.440063476562500000e-01
-2.000000000000000000e+00,-6.000000000000000000e+00,-4.000000000000000000e+00,-4.000000000000000000e+00,-4.000000000000000000e+00,-4.000000000000000000e+00,-6.000000000000000000e+00,-2.000000000000000000e+00,-4.399414062500000000e-01,3.297119140625000000e-01,6.337890625000000000e-01,5.440063476562500000e-01
5.000000000000000000e+00,0.000000000000000000e+00,3.000000000000000000e+00,0.000000000000000000e+00,-2.000000000000000000e+00,-5.000000000000000000e+00,-2.000000000000000000e+01,2.000000000000000000e+00,-4.397583007812500000e-01,3.289184570312500000e-01,6.337280273437500000e-01,5.447998046875000000e-01
-2.000000000000000000e+01,-1.000000000000000000e+00,4.000000000000000000e+00,-3.000000000000000000e+00,-5.000000000000000000e+00,-1.100000000000000000e+01,2.300000000000000000e+01,1.000000000000000000e+00,-4.397583007812500000e-01,3.289184570312500000e-01,6.337280273437500000e-01,5.447998046875000000e-01
5.000000000000000000e+00,5.000000000000000000e+00,9.000000000000000000e+00,5.000000000000000000e+00,0.000000000000000000e+00,-1.000000000000000000e+01,-2.600000000000000000e+01,-2.000000000000000000e+01,-4.397583007812500000e-01,3.289184570312500000e-01,6.337280273437500000e-01,5.447998046875000000e-01
1.200000000000000000e+01,0.000000000000000000e+00,-8.000000000000000000e+00,-6.000000000000000000e+00,3.000000000000000000e+00,2.300000000000000000e+01,1.600000000000000000e+01,2.600000000000000000e+01,-4.397583007812500000e-01,3.289184570312500000e-01,6.337280273437500000e-01,5.447998046875000000e-01
-5.000000000000000000e+00,-2.000000000000000000e+00,3.000000000000000000e+00,-1.000000000000000000e+01,-9.000000000000000000e+00,-2.000000000000000000e+01,-8.000000000000000000e+00,-3.000000000000000000e+00,-4.397583007812500000e-01,3.281250000000000000e-01,6.334228515625000000e-01,5.455322265625000000e-01
0.000000000000000000e+00,5.000000000000000000e+00,0.000000000000000000e+00,8.000000000000000000e+00,3.000000000000000000e+00,6.000000000000000000e+00,-7.000000000000000000e+00,-1.000000000000000000e+01,-4.397583007812500000e-01,3.281250000000000000e-01,6.334228515625000000e-01,5.455322265625000000e-01
-8.000000000000000000e+00,-4.000000000000000000e+00,-2.000000000000000000e+00,-7.000000000000000000e+00,-2.000000000000000000e+00,-6.000000000000000000e+00,-7.000000000000000000e+00,-5.000000000000000000e+00,-4.397583007812500000e-01,3.281250000000000000e-01,6.334228515625000000e-01,5.455322265625000000e-01
-1.000000000000000000e+01,1.000000000000000000e+00,2.000000000000000000e+00,1.000000000000000000e+00,2.000000000000000000e+00,-1.000000000000000000e+00,1.000000000000000000e+00,-8.000000000000000000e+00,-4.397583007812500000e-01,3.281250000000000000e-01,6.334228515625000000e-01,5.455322265625000000e-01
1.000000000000000000e+00,-8.000000000000000000e+00,-1.000000000000000000e+00,-1.500000000000000000e+01,-4.000000000000000000e+00,-9.000000000000000000e+00,-2.500000000000000000e+01,0.000000000000000000e+00,-4.396362304687500000e-01,3.276977539062500000e-01,6.332397460937500000e-01,5.461425781250000000e-01
1.100000000000000000e+01,1.600000000000000000e+01,3.000000000000000000e+00,2.000000000000000000e+00,2.000000000000000000e+00,1.100000000000000000e+01,1.900000000000000000e+01,6.000000000000000000e+00,-4.396362304687500000e-01,3.276977539062500000e-01,6.332397460937500000e-01,5.461425781250000000e-01
-1.800000000000000000e+01,-2.500000000000000000e+01,-1.500000000000000000e+01,-1.200000000000000000e+01,-8.000000000000000000e+00,-6.000000000000000000e+00,-1.400000000000000000e+01,-7.000000000000000000e+00,-4.396362304687500000e-01,3.276977539062500000e-01,6.332397460937500000e-01,5.461425781250000000e-01
3.000000000000000000e+00,1.000000000000000000e+00,2.000000000000000000e+00,1.000000000000000000e+00,2.000000000000000000e+00,-2.000000000000000000e+00,7.000000000000000000e+00,-5.000000000000000000e+00,-4.396362304687500000e-01,3.276977539062500000e-01,6.332397460937500000e-01,5.461425781250000000e-01
-5.000000000000000000e+00,-5.000000000000000000e+00,-2.000000000000000000e+00,3.000000000000000000e+00,1.000000000000000000e+00,3.000000000000000000e+00,-7.000000000000000000e+00,5.000000000000000000e+00,-4.402465820312500000e-01,3.264770507812500000e-01,6.334838867187500000e-01,5.460815429687500000e-01
3.000000000000000000e+00,-1.000000000000000000e+00,1.300000000000000000e+01,-6.000000000000000000e+00,0.000000000000000000e+00,5.000000000000000000e+00,3.100000000000000000e+01,6.000000000000000000e+00,-4.402465820312500000e-01,3.264770507812500000e-01,6.334838867187500000e-01,5.460815429687500000e-01
7.000000000000000000e+00,7.000000000000000000e+00,-6.000000000000000000e+00,-1.000000000000000000e+00,-1.000000000000000000e+00,-9.000000000000000000e+00,-5.000000000000000000e+00,3.000000000000000000e+00,-4.402465820312500000e-01,3.264770507812500000e-01,6.334838867187500000e-01,5.460815429687500000e-01
2.000000000000000000e+00,-1.000000000000000000e+00,3.000000000000000000e+00,4.000000000000000000e+00,-2.000000000000000000e+00,9.000000000000000000e+00,1.100000000000000000e+01,-2.000000000000000000e+00,-4.402465820312500000e-01,3.264770507812500000e-01,6.334838867187500000e-01,5.460815429687500000e-01
-6.000000000000000000e+00,-1.000000000000000000e+00,-1.200000000000000000e+01,0.000000000000000000e+00,2.000000000000000000e+00,-1.000000000000000000e+00,2.000000000000000000e+00,-7.000000000000000000e+00,-4.410400390625000000e-01,3.253784179687500000e-01,6.336059570312500000e-01,5.459594726562500000e-01
-3.000000000000000000e+00,-6.000000000000000000e+00,-3.000000000000000000e+00,-6.000000000000000000e+00,-3.000000000000000000e+00,-1.000000000000000000e+00,-1.000000000000000000e+01,-1.000000000000000000e+00,-4.410400390625000000e-01,3.253784179687500000e-01,6.336059570312500000e-01,5.459594726562500000e-01
6.000000000000000000e+00,5.000000000000000000e+00,-1.000000000000000000e+00,0.000000000000000000e+00,0.000000000000000000e+00,-5.000000000000000000e+00,-5.000000000000000000e+00,5.000000000000000000e+00,-4.410400390625000000e-01,3.253784179687500000e-01,6.336059570312500000e-01,5.459594726562500000e-01
-7.000000000000000000e+00,-7.000000000000000000e+00,1.000000000000000000e+00,-2.000000000000000000e+00,0.000000000000000000e+00,-1.000000000000000000e+01,-2.700000000000000000e+01,-9.000000000000000000e+00,-4.410400390625000000e-01,3.253784179687500000e-01,6.336059570312500000e-01,5.459594726562500000e-01
5.000000000000000000e+00,9.000000000000000000e+00,4.000000000000000000e+00,1.500000000000000000e+01,0.000000000000000000e+00,1.000000000000000000e+01,1.300000000000000000e+01,3.000000000000000000e+00,-4.409790039062500000e-01,3.247680664062500000e-01,6.333618164062500000e-01,5.466308593750000000e-01
0.000000000000000000e+00,-8.000000000000000000e+00,-5.000000000000000000e+00,0.000000000000000000e+00,1.000000000000000000e+00,1.800000000000000000e+01,-4.000000000000000000e+00,-7.000000000000000000e+00,-4.409790039062500000e-01,3.247680664062500000e-01,6.333618164062500000e-01,5.466308593750000000e-01
-1.000000000000000000e+00,4.000000000000000000e+00,-3.000000000000000000e+00,0.000000000000000000e+00,4.000000000000000000e+00,-5.000000000000000000e+00,3.100000000000000000e+01,7.000000000000000000e+00,-4.409790039062500000e-01,3.247680664062500000e-01,6.333618164062500000e-01,5.466308593750000000e-01
1.500000000000000000e+01,4.000000000000000000e+00,1.000000000000000000e+01,-1.000000000000000000e+00,-3.000000000000000000e+00,-1.200000000000000000e+01,-2.400000000000000000e+01,4.000000000000000000e+00,-4.409790039062500000e-01,3.247680664062500000e-01,6.333618164062500000e-01,5.466308593750000000e-01
-2.500000000000000000e+01,-2.000000000000000000e+00,-4.000000000000000000e+00,2.000000000000000000e+00,4.000000000000000000e+00,5.000000000000000000e+00,3.300000000000000000e+01,-6.000000000000000000e+00,-4.403076171875000000e-01,3.242797851562500000e-01,6.331176757812500000e-01,5.477905273437500000e-01
7.000000000000000000e+00,-8.000000000000000000e+00,-1.600000000000000000e+01,-3.000000000000000000e+00,0.000000000000000000e+00,-6.000000000000000000e+00,2.000000000000000000e+00,3.000000000000000000e+00,-4.403076171875000000e-01,3.242797851562500000e-01,6.331176757812500000e-01,5.477905273437500000e-01
-1.200000000000000000e+01,2.000000000000000000e+00,1.000000000000000000e+01,-7.000000000000000000e+00,-8.000000000000000000e+00,-1.400000000000000000e+01,-1.700000000000000000e+01,-2.000000000000000000e+00,-4.403076171875000000e-01,3.242797851562500000e-01,6.331176757812500000e-01,5.477905273437500000e-01
2.000000000000000000e+00,-3.000000000000000000e+00,-9.000000000000000000e+00,9.000000000000000000e+00,5.000000000000000000e+00,2.100000000000000000e+01,1.500000000000000000e+01,-2.000000000000000000e+00,-4.403076171875000000e-01,3.242797851562500000e-01,6.331176757812500000e-01,5.477905273437500000e-01
5.000000000000000000e+00,-1.000000000000000000e+00,-2.000000000000000000e+00,-6.000000000000000000e+00,-8.000000000000000000e+00,-1.100000000000000000e+01,-1.500000000000000000e+01,2.000000000000000000e+00,-4.400634765625000000e-01,3.229370117187500000e-01,6.335449218750000000e-01,5.482788085937500000e-01
-5.000000000000000000e+00,-1.000000000000000000e+00,-6.000000000000000000e+00,-1.000000000000000000e+00,-3.000000000000000000e+00,-1.000000000000000000e+01,-1.000000000000000000e+00,1.000000000000000000e+00,-4.400634765625000000e-01,3.229370117187500000e-01,6.335449218750000000e-01,5.482788085937500000e-01
5.000000000000000000e+00,0.000000000000000000e+00,5.000000000000000000e+00,0.000000000000000000e+00,0.000000000000000000e+00,4.000000000000000000e+00,-1.000000000000000000e+01,2.000000000000000000e+00,-4.400634765625000000e-01,3.229370117187500000e-01,6.335449218750000000e-01,5.482788085937500000e-01
-6.000000000000000000e+00,-6.000000000000000000e+00,-8.000000000000000000e+00,-1.000000000000000000e+00,-5.000000000000000000e+00,-3.000000000000000000e+00,1.300000000000000000e+01,-3.000000000000000000e+00,-4.400634765625000000e-01,3.229370117187500000e-01,6.335449218750000000e-01,5.482788085937500000e-01
5.000000000000000000e+00,2.000000000000000000e+00,-3.000000000000000000e+00,1.000000000000000000e+00,0.000000000000000000e+00,5.000000000000000000e+00,-8.000000000000000000e+00,3.000000000000000000e+00,-4.404296875000000000e-01,3.208007812500000000e-01,6.348266601562500000e-01,5.477905273437500000e-01
-8.000000000000000000e+00,-4.000000000000000000e+00,-8.000000000000000000e+00,-1.000000000000000000e+00,-3.000000000000000000e+00,-7.000000000000000000e+00,-1.000000000000000000e+01,-5.000000000000000000e+00,-4.404296875000000000e-01,3.208007812500000000e-01,6.348266601562500000e-01,5.477905273437500000e-01
7.000000000000000000e+00,3.000000000000000000e+00,5.000000000000000000e+00,2.000000000000000000e+00,0.000000000000000000e+00,8.000000000000000000e+00,3.000000000000000000e+00,2.000000000000000000e+00,-4.404296875000000000e-01,3.208007812500000000e-01,6.348266601562500000e-01,5.477905273437500000e-01
-6.000000000000000000e+00,-3.000000000000000000e+00,7.000000000000000000e+00,-5.000000000000000000e+00,-3.000000000000000000e+00,-9.000000000000000000e+00,-1.300000000000000000e+01,0.000000000000000000e+00,-4.404296875000000000e-01,3.208007812500000000e-01,6.348266601562500000e-01,5.477905273437500000e-01
1.000000000000000000e+00,-3.000000000000000000e+00,-5.000000000000000000e+00,3.000000000000000000e+00,2.000000000000000000e+00,2.000000000000000000e+00,1.400000000000000000e+01,-1.000000000000000000e+00,-4.408569335937500000e-01,3.188476562500000000e-01,6.361694335937500000e-01,5.469970703125000000e-01
1.000000000000000000e+00,0.000000000000000000e+00,8.000000000000000000e+00,-3.000000000000000000e+00,-3.000000000000000000e+00,-4.000000000000000000e+00,-7.000000000000000000e+00,0.000000000000000000e+00,-4.408569335937500000e-01,3.188476562500000000e-01,6.361694335937500000e-01,5.469970703125000000e-01
4.000000000000000000e+00,1.000000000000000000e+00,-1.300000000000000000e+01,3.000000000000000000e+00,6.000000000000000000e+00,8.000000000000000000e+00,2.000000000000000000e+00,1.000000000000000000e+00,-4.408569335937500000e-01,3.188476562500000000e-01,6.361694335937500000e-01,5.469970703125000000e-01
-8.000000000000000000e+00,-2.000000000000000000e+00,2.000000000000000000e+00,-7.000000000000000000e+00,-7.000000000000000000e+00,-5.000000000000000000e+00,-3.000000000000000000e+00,0.000000000000000000e+00,-4.408569335937500000e-01,3.188476562500000000e-01,6.361694335937500000e-01,5.469970703125000000e-01
3.000000000000000000e+00,-1.000000000000000000e+00,7.000000000000000000e+00,-2.000000000000000000e+00,0.000000000000000000e+00,-3.000000000000000000e+00,-7.000000000000000000e+00,-4.000000000000000000e+00,-4.412841796875000000e-01,3.165283203125000000e-01,6.375732421875000000e-01,5.463867187500000000e-01
-2.000000000000000000e+00,-1.000000000000000000e+00,-3.000000000000000000e+00,0.000000000000000000e+00,2.000000000000000000e+00,-4.000000000000000000e+00,-3.000000000000000000e+00,0.000000000000000000e+00,-4.412841796875000000e-01,3.165283203125000000e-01,6.375732421875000000e-01,5.463867187500000000e-01
0.000000000000000000e+00,-3.000000000000000000e+00,-2.000000000000000000e+00,-5.000000000000000000e+00,-6.000000000000000000e+00,4.000000000000000000e+00,1.000000000000000000e+00,2.000000000000000000e+00,-4.412841796875000000e-01,3.165283203125000000e-01,6.375732421875000000e-01,5.463867187500000000e-01
-2.000000000000000000e+00,1.000000000000000000e+00,1.000000000000000000e+00,-3.000000000000000000e+00,2.000000000000000000e+00,-2.000000000000000000e+00,1.100000000000000000e+01,-4.000000000000000000e+00,-4.412841796875000000e-01,3.165283203125000000e-01,6.375732421875000000e-01,5.463867187500000000e-01
-1.000000000000000000e+00,-4.000000000000000000e+00,3.000000000000000000e+00,2.000000000000000000e+00,2.000000000000000000e+00,4.000000000000000000e+00,-1.700000000000000000e+01,1.000000000000000000e+01,-4.412231445312500000e-01,3.140258789062500000e-01,6.394653320312500000e-01,5.455932617187500000e-01
0.000000000000000000e+00,0.000000000000000000e+00,-5.000000000000000000e+00,-6.000000000000000000e+00,-4.000000000000000000e+00,-6.000000000000000000e+00,-9.000000000000000000e+00,-9.000000000000000000e+00,-4.412231445312500000e-01,3.140258789062500000e-01,6.394653320312500000e-01,5.455932617187500000e-01
1.000000000000000000e+00,-1.000000000000000000e+00,-7.000000000000000000e+00,3.000000000000000000e+00,2.000000000000000000e+00,-5.000000000000000000e+00,-6.000000000000000000e+00,-9.000000000000000000e+00,-4.412231445312500000e-01,3.140258789062500000e-01,6.394653320312500000e-01,5.455932617187500000e-01
-4.000000000000000000e+00,4.000000000000000000e+00,1.100000000000000000e+01,-3.000000000000000000e+00,-1.000000000000000000e+00,9.000000000000000000e+00,-1.500000000000000000e+01,6.000000000000000000e+00,-4.412231445312500000e-01,3.140258789062500000e-01,6.394653320312500000e-01,5.455932617187500000e-01
3.000000000000000000e+00,-4.000000000000000000e+00,-1.000000000000000000e+01,1.000000000000000000e+00,-4.000000000000000000e+00,-1.100000000000000000e+01,-1.400000000000000000e+01,-3.000000000000000000e+00,-4.415283203125000000e-01,3.112182617187500000e-01,6.416015625000000000e-01,5.444946289062500000e-01
-3.000000000000000000e+00,-2.000000000000000000e+00,3.000000000000000000e+00,-1.000000000000000000e+00,-3.000000000000000000e+00,-3.000000000000000000e+00,4.000000000000000000e+00,-1.000000000000000000e+00,-4.415283203125000000e-01,3.112182617187500000e-01,6.416015625000000000e-01,5.444946289062500000e-01
-2.500000000000000000e+01,-9.000000000000000000e+00,-4.000000000000000000e+00,3.000000000000000000e+00,-2.000000000000000000e+00,6.000000000000000000e+00,-1.200000000000000000e+01,-8.000000000000000000e+00,-4.415283203125000000e-01,3.112182617187500000e-01,6.416015625000000000e-01,5.444946289062500000e-01
7.000000000000000000e+00,-1.000000000000000000e+00,2.000000000000000000e+00,-3.000000000000000000e+00,-1.000000000000000000e+00,0.000000000000000000e+00,1.000000000000000000e+00,-3.000000000000000000e+00,-4.415283203125000000e-01,3.112182617187500000e-01,6.416015625000000000e-01,5.444946289062500000e-01
9.000000000000000000e+00,5.000000000000000000e+00,3.000000000000000000e+00,1.000000000000000000e+00,-1.000000000000000000e+00,-3.000000000000000000e+00,4.000000000000000000e+00,5.000000000000000000e+00,-4.421997070312500000e-01,3.081054687500000000e-01,6.430053710937500000e-01,5.440673828125000000e-01
5.000000000000000000e+00,1.000000000000000000e+00,7.000000000000000000e+00,-2.000000000000000000e+00,-1.000000000000000000e+00,3.000000000000000000e+00,-1.000000000000000000e+00,6.000000000000000000e+00,-4.421997070312500000e-01,3.081054687500000000e-01,6.430053710937500000e-01,5.440673828125000000e-01
-1.100000000000000000e+01,1.000000000000000000e+00,2.000000000000000000e+00,-3.000000000000000000e+00,-2.000000000000000000e+00,-7.000000000000000000e+00,-1.000000000000000000e+00,-5.000000000000000000e+00,-4.421997070312500000e-01,3.081054687500000000e-01,6.430053710937500000e-01,5.440673828125000000e-01
2.000000000000000000e+00,-2.000000000000000000e+00,-6.000000000000000000e+00,2.000000000000000000e+00,-1.000000000000000000e+00,-6.000000000000000000e+00,-7.000000000000000000e+00,-1.000000000000000000e+00,-4.421997070312500000e-01,3.081054687500000000e-01,6.430053710937500000e-01,5.440673828125000000e-01
-1.000000000000000000e+01,0.000000000000000000e+00,5.000000000000000000e+00,-3.000000000000000000e+00,0.000000000000000000e+00,6.000000000000000000e+00,5.000000000000000000e+00,-5.000000000000000000e+00,-4.417114257812500000e-01,3.073730468750000000e-01,6.422729492187500000e-01,5.457763671875000000e-01
3.000000000000000000e+00,1.000000000000000000e+00,-1.100000000000000000e+01,-4.000000000000000000e+00,-3.000000000000000000e+00,-8.000000000000000000e+00,-5.000000000000000000e+00,-3.000000000000000000e+00,-4.417114257812500000e-01,3.073730468750000000e-01,6.422729492187500000e-01,5.457763671875000000e-01
2.000000000000000000e+00,0.000000000000000000e+00,9.000000000000000000e+00,7.000000000000000000e+00,3.000000000000000000e+00,1.700000000000000000e+01,8.000000000000000000e+00,1.000000000000000000e+00,-4.417114257812500000e-01,3.073730468750000000e-01,6.422729492187500000e-01,5.457763671875000000e-01
-7.000000000000000000e+00,-5.000000000000000000e+00,-6.000000000000000000e+00,-2.000000000000000000e+00,-5.000000000000000000e+00,-9.000000000000000000e+00,-1.000000000000000000e+01,-4.000000000000000000e+00,-4.417114257812500000e-01,3.073730468750000000e-01,6.422729492187500000e-01,5.457763671875000000e-01
8.000000000000000000e+00,1.000000000000000000e+00,4.000000000000000000e+00,-3.000000000000000000e+00,-1.000000000000000000e+00,0.000000000000000000e+00,9.000000000000000000e+00,-3.000000000000000000e+00,-4.390869140625000000e-01,3.098754882812500000e-01,6.404418945312500000e-01,5.485839843750000000e-01
-1.000000000000000000e+00,2.000000000000000000e+00,6.000000000000000000e+00,-3.000000000000000000e+00,-4.000000000000000000e+00,-5.000000000000000000e+00,-1.200000000000000000e+01,0.000000000000000000e+00,-4.390869140625000000e-01,3.098754882812500000e-01,6.404418945312500000e-01,5.485839843750000000e-01
8.000000000000000000e+00,0.000000000000000000e+00,-1.400000000000000000e+01,1.000000000000000000e+00,3.000000000000000000e+00,4.000000000000000000e+00,2.400000000000000000e+01,8.000000000000000000e+00,-4.390869140625000000e-01,3.098754882812500000e-01,6.404418945312500000e-01,5.485839843750000000e-01
-1.300000000000000000e+01,-3.000000000000000000e+00,-1.000000000000000000e+00,4.000000000000000000e+00,-3.000000000000000000e+00,-1.600000000000000000e+01,-2.000000000000000000e+01,-6.000000000000000000e+00,-4.390869140625000000e-01,3.098754882812500000e-01,6.404418945312500000e-01,5.485839843750000000e-01
5.000000000000000000e+00,0.000000000000000000e+00,9.000000000000000000e+00,1.000000000000000000e+00,1.000000000000000000e+00,4.000000000000000000e+00,-1.500000000000000000e+01,-6.000000000000000000e+00,-4.371337890625000000e-01,3.116455078125000000e-01,6.398925781250000000e-01,5.497436523437500000e-01
-2.000000000000000000e+00,-1.000000000000000000e+00,8.000000000000000000e+00,-3.000000000000000000e+00,-3.000000000000000000e+00,-8.000000000000000000e+00,3.000000000000000000e+00,1.000000000000000000e+00,-4.371337890625000000e-01,3.116455078125000000e-01,6.398925781250000000e-01,5.497436523437500000e-01
8.000000000000000000e+00,8.000000000000000000e+00,1.400000000000000000e+01,4.000000000000000000e+00,-2.000000000000000000e+00,-4.000000000000000000e+00,-3.000000000000000000e+00,3.000000000000000000e+00,-4.371337890625000000e-01,3.116455078125000000e-01,6.398925781250000000e-01,5.497436523437500000e-01
5.000000000000000000e+00,-9.000000000000000000e+00,-1.700000000000000000e+01,-1.300000000000000000e+01,-1.000000000000000000e+00,-5.000000000000000000e+00,-1.000000000000000000e+00,8.000000000000000000e+00,-4.371337890625000000e-01,3.116455078125000000e-01,6.398925781250000000e-01,5.497436523437500000e-01
-1.900000000000000000e+01,2.000000000000000000e+00,1.000000000000000000e+00,-8.000000000000000000e+00,-2.000000000000000000e+00,-2.000000000000000000e+00,0.000000000000000000e+00,-8.000000000000000000e+00,-4.378051757812500000e-01,3.096923828125000000e-01,6.409912109375000000e-01,5.490722656250000000e-01
-5.000000000000000000e+00,-7.000000000000000000e+00,-2.000000000000000000e+00,5.000000000000000000e+00,2.000000000000000000e+00,1.000000000000000000e+00,3.000000000000000000e+00,-8.000000000000000000e+00,-4.378051757812500000e-01,3.096923828125000000e-01,6.409912109375000000e-01,5.490722656250000000e-01
1.100000000000000000e+01,4.000000000000000000e+00,7.000000000000000000e+00,3.000000000000000000e+00,0.000000000000000000e+00,0.000000000000000000e+00,-7.000000000000000000e+00,6.000000000000000000e+00,-4.378051757812500000e-01,3.096923828125000000e-01,6.409912109375000000e-01,5.490722656250000000e-01
-1.000000000000000000e+00,-1.000000000000000000e+00,-1.500000000000000000e+01,-9.000000000000000000e+00,-3.000000000000000000e+00,-6.000000000000000000e+00,1.300000000000000000e+01,2.000000000000000000e+00,-4.378051757812500000e-01,3.096923828125000000e-01,6.409912109375000000e-01,5.490722656250000000e-01
0.000000000000000000e+00,-4.000000000000000000e+00,-7.000000000000000000e+00,7.000000000000000000e+00,1.000000000000000000e+00,6.000000000000000000e+00,3.000000000000000000e+00,2.000000000000000000e+00,-4.404296875000000000e-01,3.059082031250000000e-01,6.420288085937500000e-01,5.479125976562500000e-01
-6.000000000000000000e+00,0.000000000000000000e+00,-1.000000000000000000e+00,-7.000000000000000000e+00,0.000000000000000000e+00,7.000000000000000000e+00,5.000000000000000000e+00,2.000000000000000000e+00,-4.404296875000000000e-01,3.059082031250000000e-01,6.420288085937500000e-01,5.479125976562500000e-01
-4.000000000000000000e+00,0.000000000000000000e+00,4.000000000000000000e+00,6.000000000000000000e+00,-2.000000000000000000e+00,-2.000000000000000000e+00,-1.000000000000000000e+00,-7.000000000000000000e+00,-4.404296875000000000e-01,3.059082031250000000e-01,6.420288085937500000e-01,5.479125976562500000e-01
2.000000000000000000e+00,1.000000000000000000e+00,5.000000000000000000e+00,6.000000000000000000e+00,0.000000000000000000e+00,-1.000000000000000000e+00,-1.400000000000000000e+01,-2.000000000000000000e+00,-4.404296875000000000e-01,3.059082031250000000e-01,6.420288085937500000e-01,5.479125976562500000e-01
1.200000000000000000e+01,-4.000000000000000000e+00,-1.200000000000000000e+01,-6.000000000000000000e+00,2.000000000000000000e+00,2.000000000000000000e+00,2.100000000000000000e+01,8.000000000000000000e+00,-4.417114257812500000e-01,3.044433593750000000e-01,6.413574218750000000e-01,5.484619140625000000e-01
-2.000000000000000000e+00,-2.000000000000000000e+00,-5.000000000000000000e+00,1.000000000000000000e+00,1.000000000000000000e+00,2.000000000000000000e+00,6.000000000000000000e+00,-1.000000000000000000e+00,-4.417114257812500000e-01,3.044433593750000000e-01,6.413574218750000000e-01,5.484619140625000000e-01
-5.000000000000000000e+00,-1.000000000000000000e+00,9.000000000000000000e+00,-3.000000000000000000e+00,1.000000000000000000e+00,6.000000000000000000e+00,-1.400000000000000000e+01,-2.000000000000000000e+00,-4.417114257812500000e-01,3.044433593750000000e-01,6.413574218750000000e-01,5.484619140625000000e-01
-7.000000000000000000e+00,0.000000000000000000e+00,0.000000000000000000e+00,6.000000000000000000e+00,1.000000000000000000e+00,0.000000000000000000e+00,-1.000000000000000000e+00,-7.000000000000000000e+00,-4.417114257812500000e-01,3.044433593750000000e-01,6.413574218750000000e-01,5.484619140625000000e-01
9.000000000000000000e+00,5.000000000000000000e+00,2.000000000000000000e+00,-1.000000000000000000e+00,2.000000000000000000e+00,-3.000000000000000000e+00,0.000000000000000000e+00,3.000000000000000000e+00,-4.409179687500000000e-01,3.055419921875000000e-01,6.392822265625000000e-01,5.509033203125000000e-01
-1.000000000000000000e+00,-4.000000000000000000e+00,2.000000000000000000e+00,3.000000000000000000e+00,-4.000000000000000000e+00,-3.000000000000000000e+00,1.000000000000000000e+00,0.000000000000000000e+00,-4.409179687500000000e-01,3.055419921875000000e-01,6.392822265625000000e-01,5.509033203125000000e-01
3.000000000000000000e+00,-3.000000000000000000e+00,-7.000000000000000000e+00,-7.000000000000000000e+00,-1.000000000000000000e+00,-3.000000000000000000e+00,-4.000000000000000000e+00,3.000000000000000000e+00,-4.409179687500000000e-01,3.055419921875000000e-01,6.392822265625000000e-01,5.509033203125000000e-01
-6.000000000000000000e+00,-2.000000000000000000e+00,3.000000000000000000e+00,-2.000000000000000000e+00,1.000000000000000000e+00,8.000000000000000000e+00,1.100000000000000000e+01,-3.000000000000000000e+00,-4.409179687500000000e-01,3.055419921875000000e-01,6.392822265625000000e-01,5.509033203125000000e-01
-7.000000000000000000e+00,-5.000000000000000000e+00,-8.000000000000000000e+00,-1.000000000000000000e+00,-1.000000000000000000e+00,2.000000000000000000e+00,1.000000000000000000e+00,-7.000000000000000000e+00,-4.392089843750000000e-01,3.073730468750000000e-01,6.376953125000000000e-01,5.531005859375000000e-01
1.000000000000000000e+00,1.000000000000000000e+00,-6.000000000000000000e+00,1.000000000000000000e+00,1.000000000000000000e+00,-1.000000000000000000e+00,0.000000000000000000e+00,2.000000000000000000e+00,-4.392089843750000000e-01,3.073730468750000000e-01,6.376953125000000000e-01,5.531005859375000000e-01
-4.000000000000000000e+00,0.000000000000000000e+00,1.000000000000000000e+00,0.000000000000000000e+00,0.000000000000000000e+00,-5.000000000000000000e+00,2.000000000000000000e+00,2.000000000000000000e+00,-4.392089843750000000e-01,3.073730468750000000e-01,6.376953125000000000e-01,5.531005859375000000e-01
7.000000000000000000e+00,-1.000000000000000000e+00,5.000000000000000000e+00,2.000000000000000000e+00,-2.000000000000000000e+00,8.000000000000000000e+00,1.000000000000000000e+00,-6.000000000000000000e+00,-4.392089843750000000e-01,3.073730468750000000e-01,6.376953125000000000e-01,5.531005859375000000e-01
2.000000000000000000e+00,-2.000000000000000000e+00,-1.000000000000000000e+00,-4.000000000000000000e+00,-2.000000000000000000e+00,-6.000000000000000000e+00,0.000000000000000000e+00,-8.000000000000000000e+00,-4.384765625000000000e-01,3.076171875000000000e-01,6.378173828125000000e-01,5.533447265625000000e-01
-3.000000000000000000e+00,-1.000000000000000000e+00,5.000000000000000000e+00,1.000000000000000000e+00,1.000000000000000000e+00,2.000000000000000000e+00,-3.000000000000000000e+00,-1.000000000000000000e+00,-4.384765625000000000e-01,3.076171875000000000e-01,6.378173828125000000e-01,5.533447265625000000e-01
3.000000000000000000e+00,0.000000000000000000e+00,-4.000000000000000000e+00,-6.000000000000000000e+00,0.000000000000000000e+00,-4.000000000000000000e+00,-1.000000000000000000e+00,-1.000000000000000000e+00,-4.384765625000000000e-01,3.076171875000000000e-01,6.378173828125000000e-01,5.533447265625000000e-01
0.000000000000000000e+00,2.000000000000000000e+00,2.000000000000000000e+00,0.000000000000000000e+00,-2.000000000000000000e+00,1.000000000000000000e+00,8.000000000000000000e+00,-2.000000000000000000e+00,-4.384765625000000000e-01,3.076171875000000000e-01,6.378173828125000000e-01,5.533447265625000000e-01
-5.000000000000000000e+00,1.000000000000000000e+00,-1.000000000000000000e+00,3.000000000000000000e+00,1.000000000000000000e+00,3.000000000000000000e+00,0.000000000000000000e+00,3.000000000000000000e+00,-4.393310546875000000e-01,3.057861328125000000e-01,6.392211914062500000e-01,5.521240234375000000e-01
-5.000000000000000000e+00,-6.000000000000000000e+00,-9.000000000000000000e+00,-3.000000000000000000e+00,-4.000000000000000000e+00,-4.000000000000000000e+00,-1.000000000000000000e+01,-3.000000000000000000e+00,-4.393310546875000000e-01,3.057861328125000000e-01,6.392211914062500000e-01,5.521240234375000000e-01
1.000000000000000000e+00,-4.000000000000000000e+00,4.000000000000000000e+00,-2.000000000000000000e+00,-4.000000000000000000e+00,-3.000000000000000000e+00,1.000000000000000000e+00,-2.000000000000000000e+00,-4.393310546875000000e-01,3.057861328125000000e-01,6.392211914062500000e-01,5.521240234375000000e-01
-4.000000000000000000e+00,-1.000000000000000000e+00,-2.000000000000000000e+00,-7.000000000000000000e+00,-3.000000000000000000e+00,0.000000000000000000e+00,7.000000000000000000e+00,3.000000000000000000e+00,-4.393310546875000000e-01,3.057861328125000000e-01,6.392211914062500000e-01,5.521240234375000000e-01
-3.000000000000000000e+00,0.000000000000000000e+00,3.000000000000000000e+00,6.000000000000000000e+00,1.000000000000000000e+00,0.000000000000000000e+00,-1.400000000000000000e+01,-3.000000000000000000e+00,-4.405517578125000000e-01,3.029785156250000000e-01,6.406250000000000000e-01,5.510253906250000000e-01
1.000000000000000000e+00,0.000000000000000000e+00,-8.000000000000000000e+00,-7.000000000000000000e+00,-6.000000000000000000e+00,-2.000000000000000000e+00,-4.000000000000000000e+00,-1.000000000000000000e+00,-4.405517578125000000e-01,3.029785156250000000e-01,6.406250000000000000e-01,5.510253906250000000e-01
0.000000000000000000e+00,-3.000000000000000000e+00,7.000000000000000000e+00,-1.000000000000000000e+01,-3.000000000000000000e+00,-4.000000000000000000e+00,1.000000000000000000e+00,1.000000000000000000e+00,-4.405517578125000000e-01,3.029785156250000000e-01,6.406250000000000000e-01,5.510253906250000000e-01
1.000000000000000000e+00,6.000000000000000000e+00,-1.000000000000000000e+00,5.000000000000000000e+00,3.000000000000000000e+00,1.000000000000000000e+00,6.000000000000000000e+00,1.000000000000000000e+00,-4.405517578125000000e-01,3.029785156250000000e-01,6.406250000000000000e-01,5.510253906250000000e-01
-6.000000000000000000e+00,-1.000000000000000000e+00,8.000000000000000000e+00,3.000000000000000000e+00,-1.000000000000000000e+00,-9.000000000000000000e+00,-1.600000000000000000e+01,-3.000000000000000000e+00,-4.409179687500000000e-01,3.009643554687500000e-01,6.414184570312500000e-01,5.509643554687500000e-01
2.000000000000000000e+00,0.000000000000000000e+00,3.000000000000000000e+00,1.000000000000000000e+01,1.000000000000000000e+00,-5.000000000000000000e+00,-2.000000000000000000e+00,0.000000000000000000e+00,-4.409179687500000000e-01,3.009643554687500000e-01,6.414184570312500000e-01,5.509643554687500000e-01
4.000000000000000000e+00,3.000000000000000000e+00,1.000000000000000000e+00,-8.000000000000000000e+00,6.000000000000000000e+00,2.300000000000000000e+01,0.000000000000000000e+00,4.000000000000000000e+00,-4.409179687500000000e-01,3.009643554687500000e-01,6.414184570312500000e-01,5.509643554687500000e-01
-1.000000000000000000e+00,0.000000000000000000e+00,-2.000000000000000000e+00,4.000000000000000000e+00,0.000000000000000000e+00,5.000000000000000000e+00,7.000000000000000000e+00,0.000000000000000000e+00,-4.409179687500000000e-01,3.009643554687500000e-01,6.414184570312500000e-01,5.509643554687500000e-01
-2.000000000000000000e+00,0.000000000000000000e+00,9.000000000000000000e+00,-2.000000000000000000e+00,-3.000000000000000000e+00,-1.600000000000000000e+01,-1.700000000000000000e+01,-5.000000000000000000e+00,-4.398193359375000000e-01,3.007812500000000000e-01,6.412963867187500000e-01,5.521240234375000000e-01
-2.000000000000000000e+00,-3.000000000000000000e+00,-2.000000000000000000e+00,-1.000000000000000000e+00,1.000000000000000000e+00,1.400000000000000000e+01,1.500000000000000000e+01,1.000000000000000000e+00,-4.398193359375000000e-01,3.007812500000000000e-01,6.412963867187500000e-01,5.521240234375000000e-01
-1.000000000000000000e+00,1.000000000000000000e+00,3.000000000000000000e+00,8.000000000000000000e+00,3.000000000000000000e+00,-5.000000000000000000e+00,5.000000000000000000e+00,-2.000000000000000000e+00,-4.398193359375000000e-01,3.007812500000000000e-01,6.412963867187500000e-01,5.521240234375000000e-01
2.000000000000000000e+00,-1.000000000000000000e+00,-4.000000000000000000e+00,-1.000000000000000000e+00,1.000000000000000000e+00,3.000000000000000000e+00,5.000000000000000000e+00,3.000000000000000000e+00,-4.398193359375000000e-01,3.007812500000000000e-01,6.412963867187500000e-01,5.521240234375000000e-01
-1.000000000000000000e+00,-2.000000000000000000e+00,-1.000000000000000000e+00,-4.000000000000000000e+00,-2.000000000000000000e+00,-1.000000000000000000e+00,9.000000000000000000e+00,4.000000000000000000e+00,-4.383544921875000000e-01,3.015136718750000000e-01,6.404418945312500000e-01,5.538330078125000000e-01
2.000000000000000000e+00,2.000000000000000000e+00,1.000000000000000000e+00,2.000000000000000000e+00,-1.000000000000000000e+00,-1.000000000000000000e+00,-5.000000000000000000e+00,-1.000000000000000000e+00,-4.383544921875000000e-01,3.015136718750000000e-01,6.404418945312500000e-01,5.538330078125000000e-01
-8.000000000000000000e+00,-7.000000000000000000e+00,-1.100000000000000000e+01,0.000000000000000000e+00,-4.000000000000000000e+00,-9.000000000000000000e+00,-4.000000000000000000e+00,-4.000000000000000000e+00,-4.383544921875000000e-01,3.015136718750000000e-01,6.404418945312500000e-01,5.538330078125000000e-01
-3.000000000000000000e+00,-1.000000000000000000e+00,1.000000000000000000e+00,-3.000000000000000000e+00,-1.000000000000000000e+00,-1.000000000000000000e+00,-1.000000000000000000e+00,-1.000000000000000000e+00,-4.383544921875000000e-01,3.015136718750000000e-01,6.404418945312500000e-01,5.538330078125000000e-01
1.000000000000000000e+01,3.000000000000000000e+00,-7.000000000000000000e+00,-6.000000000000000000e+00,-4.000000000000000000e+00,0.000000000000000000e+00,2.000000000000000000e+00,0.000000000000000000e+00,-4.371337890625000000e-01,3.025512695312500000e-01,6.394653320312500000e-01,5.552978515625000000e-01
-1.000000000000000000e+00,0.000000000000000000e+00,5.000000000000000000e+00,2.000000000000000000e+00,0.000000000000000000e+00,-2.000000000000000000e+00,-5.000000000000000000e+00,8.000000000000000000e+00,-4.371337890625000000e-01,3.025512695312500000e-01,6.394653320312500000e-01,5.552978515625000000e-01
-2.100000000000000000e+01,-7.000000000000000000e+00,-3.000000000000000000e+00,-1.400000000000000000e+01,-6.000000000000000000e+00,-5.000000000000000000e+00,0.000000000000000000e+00,-1.800000000000000000e+01,-4.371337890625000000e-01,3.025512695312500000e-01,6.394653320312500000e-01,5.552978515625000000e-01
0.000000000000000000e+00,-3.000000000000000000e+00,-3.000000000000000000e+00,1.500000000000000000e+01,2.000000000000000000e+00,-1.000000000000000000e+00,2.000000000000000000e+00,-1.000000000000000000e+00,-4.371337890625000000e-01,3.025512695312500000e-01,6.394653320312500000e-01,5.552978515625000000e-01
-4.000000000000000000e+00,-3.000000000000000000e+00,-1.300000000000000000e+01,-8.000000000000000000e+00,-1.000000000000000000e+00,5.000000000000000000e+00,2.000000000000000000e+00,0.000000000000000000e+00,-4.365844726562500000e-01,3.034057617187500000e-01,6.392211914062500000e-01,5.555419921875000000e-01
0.000000000000000000e+00,0.000000000000000000e+00,2.000000000000000000e+00,2.000000000000000000e+00,-1.000000000000000000e+00,0.000000000000000000e+00,1.100000000000000000e+01,2.000000000000000000e+00,-4.365844726562500000e-01,3.034057617187500000e-01,6.392211914062500000e-01,5.555419921875000000e-01
8.000000000000000000e+00,6.000000000000000000e+00,-3.000000000000000000e+00,2.000000000000000000e+00,-4.000000000000000000e+00,-1.000000000000000000e+01,-4.000000000000000000e+00,0.000000000000000000e+00,-4.365844726562500000e-01,3.034057617187500000e-01,6.392211914062500000e-01,5.555419921875000000e-01
-3.000000000000000000e+00,-5.000000000000000000e+00,-2.000000000000000000e+00,-6.000000000000000000e+00,-2.000000000000000000e+00,-6.000000000000000000e+00,-7.000000000000000000e+00,-2.000000000000000000e+00,-4.365844726562500000e-01,3.034057617187500000e-01,6.392211914062500000e-01,5.555419921875000000e-01
-4.000000000000000000e+00,-6.000000000000000000e+00,-1.000000000000000000e+01,1.000000000000000000e+00,-3.000000000000000000e+00,7.000000000000000000e+00,1.100000000000000000e+01,-2.000000000000000000e+00,-4.373779296875000000e-01,3.026733398437500000e-01,6.397705078125000000e-01,5.547485351562500000e-01
6.000000000000000000e+00,-1.000000000000000000e+00,0.000000000000000000e+00,-6.000000000000000000e+00,0.000000000000000000e+00,1.000000000000000000e+00,-1.000000000000000000e+00,1.000000000000000000e+00,-4.373779296875000000e-01,3.026733398437500000e-01,6.397705078125000000e-01,5.547485351562500000e-01
-4.000000000000000000e+00,-3.000000000000000000e+00,-4.000000000000000000e+00,-4.000000000000000000e+00,-7.000000000000000000e+00,-1.400000000000000000e+01,-7.000000000000000000e+00,-1.000000000000000000e+00,-4.381713867187500000e-01,3.015747070312500000e-01,6.400756835937500000e-01,5.543212890625000000e-01
-1.000000000000000000e+00,2.000000000000000000e+00,2.000000000000000000e+00,-2.000000000000000000e+00,0.000000000000000000e+00,-1.000000000000000000e+00,-1.000000000000000000e+00,-2.000000000000000000e+00,-4.381713867187500000e-01,3.015747070312500000e-01,6.400756835937500000e-01,5.543212890625000000e-01
-3.000000000000000000e+00,0.000000000000000000e+00,1.300000000000000000e+01,2.000000000000000000e+00,0.000000000000000000e+00,7.000000000000000000e+00,7.000000000000000000e+00,0.000000000000000000e+00,-4.381713867187500000e-01,3.015747070312500000e-01,6.400756835937500000e-01,5.543212890625000000e-01
-5.000000000000000000e+00,-8.000000000000000000e+00,-2.000000000000000000e+00,-5.000000000000000000e+00,-6.000000000000000000e+00,-1.000000000000000000e+01,-1.300000000000000000e+01,-7.000000000000000000e+00,-4.381713867187500000e-01,3.015747070312500000e-01,6.400756835937500000e-01,5.543212890625000000e-01
5.000000000000000000e+00,0.000000000000000000e+00,3.000000000000000000e+00,5.000000000000000000e+00,-3.000000000000000000e+00,-6.000000000000000000e+00,6.000000000000000000e+00,0.000000000000000000e+00,-4.385375976562500000e-01,3.016357421875000000e-01,6.397094726562500000e-01,5.545043945312500000e-01
2.000000000000000000e+00,-1.000000000000000000e+00,-7.000000000000000000e+00,-8.000000000000000000e+00,-1.000000000000000000e+00,7.000000000000000000e+00,-1.500000000000000000e+01,-1.000000000000000000e+00,-4.385375976562500000e-01,3.016357421875000000e-01,6.397094726562500000e-01,5.545043945312500000e-01
-2.000000000000000000e+00,-6.000000000000000000e+00,-6.000000000000000000e+00,-7.000000000000000000e+00,-4.000000000000000000e+00,-4.000000000000000000e+00,-1.000000000000000000e+01,-3.000000000000000000e+00,-4.385375976562500000e-01,3.016357421875000000e-01,6.397094726562500000e-01,5.545043945312500000e-01
-9.000000000000000000e+00,-2.000000000000000000e+00,2.000000000000000000e+00,0.000000000000000000e+00,0.000000000000000000e+00,-6.000000000000000000e+00,-1.300000000000000000e+01,-7.000000000000000000e+00,-4.385375976562500000e-01,3.016357421875000000e-01,6.397094726562500000e-01,5.545043945312500000e-01
1.100000000000000000e+01,0.000000000000000000e+00,-9.000000000000000000e+00,1.000000000000000000e+00,2.000000000000000000e+00,-3.000000000000000000e+00,4.500000000000000000e+01,9.000000000000000000e+00,-4.395141601562500000e-01,3.017578125000000000e-01,6.389770507812500000e-01,5.544433593750000000e-01
4.000000000000000000e+00,2.000000000000000000e+00,5.000000000000000000e+00,1.000000000000000000e+00,0.000000000000000000e+00,1.600000000000000000e+01,-9.000000000000000000e+00,-4.000000000000000000e+00,-4.395141601562500000e-01,3.017578125000000000e-01,6.389770507812500000e-01,5.544433593750000000e-01
3.000000000000000000e+00,-1.000000000000000000e+00,-5.000000000000000000e+00,-2.000000000000000000e+00,-3.000000000000000000e+00,-1.200000000000000000e+01,-3.000000000000000000e+00,0.000000000000000000e+00,-4.395141601562500000e-01,3.017578125000000000e-01,6.389770507812500000e-01,5.544433593750000000e-01
-2.000000000000000000e+01,-1.000000000000000000e+00,4.000000000000000000e+00,-1.000000000000000000e+00,-1.000000000000000000e+00,6.000000000000000000e+00,-1.000000000000000000e+00,-2.000000000000000000e+00,-4.395141601562500000e-01,3.017578125000000000e-01,6.389770507812500000e-01,5.544433593750000000e-01
8.000000000000000000e+00,-2.000000000000000000e+00,0.000000000000000000e+00,-3.000000000000000000e+00,0.000000000000000000e+00,-4.000000000000000000e+00,-1.200000000000000000e+01,0.000000000000000000e+00,-4.409179687500000000e-01,3.020629882812500000e-01,6.383056640625000000e-01,5.539550781250000000e-01
-1.000000000000000000e+00,-3.000000000000000000e+00,-6.000000000000000000e+00,-1.000000000000000000e+00,-2.000000000000000000e+00,2.000000000000000000e+00,9.000000000000000000e+00,0.000000000000000000e+00,-4.409179687500000000e-01,3.020629882812500000e-01,6.383056640625000000e-01,5.539550781250000000e-01
-6.000000000000000000e+00,-1.000000000000000000e+00,0.000000000000000000e+00,-5.000000000000000000e+00,1.000000000000000000e+00,2.000000000000000000e+00,9.000000000000000000e+00,0.000000000000000000e+00,-4.409179687500000000e-01,3.020629882812500000e-01,6.383056640625000000e-01,5.539550781250000000e-01
9.000000000000000000e+00,6.000000000000000000e+00,8.000000000000000000e+00,1.300000000000000000e+01,2.000000000000000000e+00,1.000000000000000000e+00,-1.000000000000000000e+00,3.000000000000000000e+00,-4.409179687500000000e-01,3.020629882812500000e-01,6.383056640625000000e-01,5.539550781250000000e-01
-1.000000000000000000e+01,-7.000000000000000000e+00,-1.100000000000000000e+01,-7.000000000000000000e+00,-2.000000000000000000e+00,4.000000000000000000e+00,-1.100000000000000000e+01,6.000000000000000000e+00,-4.423828125000000000e-01,3.027954101562500000e-01,6.376342773437500000e-01,5.531616210937500000e-01
0.000000000000000000e+00,0.000000000000000000e+00,1.000000000000000000e+00,-9.000000000000000000e+00,1.000000000000000000e+00,1.000000000000000000e+00,1.000000000000000000e+01,-9.000000000000000000e+00,-4.423828125000000000e-01,3.027954101562500000e-01,6.376342773437500000e-01,5.531616210937500000e-01
-7.000000000000000000e+00,0.000000000000000000e+00,8.000000000000000000e+00,1.000000000000000000e+00,-1.000000000000000000e+00,-2.000000000000000000e+00,-1.800000000000000000e+01,-1.000000000000000000e+00,-4.423828125000000000e-01,3.027954101562500000e-01,6.376342773437500000e-01,5.531616210937500000e-01
6.000000000000000000e+00,0.000000000000000000e+00,-1.000000000000000000e+01,-1.400000000000000000e+01,-2.000000000000000000e+00,2.000000000000000000e+00,9.000000000000000000e+00,-2.000000000000000000e+00,-4.423828125000000000e-01,3.027954101562500000e-01,6.376342773437500000e-01,5.531616210937500000e-01
2.000000000000000000e+00,1.000000000000000000e+00,7.000000000000000000e+00,5.000000000000000000e+00,1.000000000000000000e+00,1.000000000000000000e+00,-2.000000000000000000e+00,1.000000000000000000e+00,-4.442749023437500000e-01,3.034667968750000000e-01,6.371459960937500000e-01,5.518188476562500000e-01
-2.000000000000000000e+00,0.000000000000000000e+00,1.200000000000000000e+01,0.000000000000000000e+00,-6.000000000000000000e+00,-1.000000000000000000e+01,-7.000000000000000000e+00,-1.000000000000000000e+00,-4.442749023437500000e-01,3.034667968750000000e-01,6.371459960937500000e-01,5.518188476562500000e-01
0.000000000000000000e+00,-5.000000000000000000e+00,-1.800000000000000000e+01,-6.000000000000000000e+00,0.000000000000000000e+00,1.000000000000000000e+00,4.000000000000000000e+00,-2.000000000000000000e+00,-4.442749023437500000e-01,3.034667968750000000e-01,6.371459960937500000e-01,5.518188476562500000e-01
0.000000000000000000e+00,1.000000000000000000e+00,0.000000000000000000e+00,-2.000000000000000000e+00,-1.000000000000000000e+00,-1.000000000000000000e+00,0.000000000000000000e+00,-3.000000000000000000e+00,-4.442749023437500000e-01,3.034667968750000000e-01,6.371459960937500000e-01,5.518188476562500000e-01
0.000000000000000000e+00,2.000000000000000000e+00,1.000000000000000000e+01,2.000000000000000000e+00,-4.000000000000000000e+00,0.000000000000000000e+00,3.000000000000000000e+00,-2.000000000000000000e+00,-4.459228515625000000e-01,3.043212890625000000e-01,6.367187500000000000e-01,5.504760742187500000e-01
-4.000000000000000000e+00,0.000000000000000000e+00,-1.000000000000000000e+01,2.000000000000000000e+00,-2.000000000000000000e+00,4.000000000000000000e+00,0.000000000000000000e+00,-1.000000000000000000e+00,-4.459228515625000000e-01,3.043212890625000000e-01,6.367187500000000000e-01,5.504760742187500000e-01
1.000000000000000000e+00,-2.000000000000000000e+00,7.000000000000000000e+00,1.000000000000000000e+00,0.000000000000000000e+00,3.000000000000000000e+00,2.500000000000000000e+01,3.000000000000000000e+00,-4.459228515625000000e-01,3.043212890625000000e-01,6.367187500000000000e-01,5.504760742187500000e-01
0.000000000000000000e+00,-6.000000000000000000e+00,2.000000000000000000e+00,-2.000000000000000000e+00,-1.000000000000000000e+00,-1.000000000000000000e+00,-7.000000000000000000e+00,1.000000000000000000e+00,-4.459228515625000000e-01,3.043212890625000000e-01,6.367187500000000000e-01,5.504760742187500000e-01
0.000000000000000000e+00,3.000000000000000000e+00,-1.000000000000000000e+00,0.000000000000000000e+00,-3.000000000000000000e+00,-9.000000000000000000e+00,-9.000000000000000000e+00,-1.000000000000000000e+00,-4.472045898437500000e-01,3.050537109375000000e-01,6.361694335937500000e-01,5.497436523437500000e-01
-3.000000000000000000e+00,-2.000000000000000000e+00,6.000000000000000000e+00,-4.000000000000000000e+00,2.000000000000000000e+00,2.000000000000000000e+00,-6.000000000000000000e+00,-2.000000000000000000e+00,-4.472045898437500000e-01,3.050537109375000000e-01,6.361694335937500000e-01,5.497436523437500000e-01
-1.000000000000000000e+00,-1.000000000000000000e+00,9.000000000000000000e+00,2.000000000000000000e+00,2.000000000000000000e+00,-2.000000000000000000e+00,8.000000000000000000e+00,-1.000000000000000000e+00,-4.472045898437500000e-01,3.050537109375000000e-01,6.361694335937500000e-01,5.497436523437500000e-01
-1.000000000000000000e+00,-6.000000000000000000e+00,-3.000000000000000000e+00,-5.000000000000000000e+00,-4.000000000000000000e+00,-1.600000000000000000e+01,-1.000000000000000000e+01,-6.000000000000000000e+00,-4.472045898437500000e-01,3.050537109375000000e-01,6.361694335937500000e-01,5.497436523437500000e-01
-3.000000000000000000e+00,4.000000000000000000e+00,7.000000000000000000e+00,2.000000000000000000e+00,-1.000000000000000000e+00,7.000000000000000000e+00,-1.100000000000000000e+01,-1.000000000000000000e+00,-4.481201171875000000e-01,3.055419921875000000e-01,6.352539062500000000e-01,5.497436523437500000e-01
0.000000000000000000e+00,-1.000000000000000000e+00,-3.000000000000000000e+00,-5.000000000000000000e+00,-2.000000000000000000e+00,-4.000000000000000000e+00,3.000000000000000000e+00,1.000000000000000000e+00,-4.481201171875000000e-01,3.055419921875000000e-01,6.352539062500000000e-01,5.497436523437500000e-01
-1.300000000000000000e+01,-4.000000000000000000e+00,-2.000000000000000000e+00,9.000000000000000000e+00,0.000000000000000000e+00,-4.000000000000000000e+00,-1.500000000000000000e+01,-1.500000000000000000e+01,-4.481201171875000000e-01,3.055419921875000000e-01,6.352539062500000000e-01,5.497436523437500000e-01
1.100000000000000000e+01,2.000000000000000000e+00,1.100000000000000000e+01,-2.000000000000000000e+00,-1.000000000000000000e+00,1.000000000000000000e+00,2.000000000000000000e+00,1.400000000000000000e+01,-4.481201171875000000e-01,3.055419921875000000e-01,6.352539062500000000e-01,5.497436523437500000e-01
0.000000000000000000e+00,-1.000000000000000000e+00,1.000000000000000000e+00,3.000000000000000000e+00,2.000000000000000000e+00,4.000000000000000000e+00,-9.000000000000000000e+00,-7.000000000000000000e+00,-4.488525390625000000e-01,3.054199218750000000e-01,6.342163085937500000e-01,5.504150390625000000e-01
-4.000000000000000000e+00,1.000000000000000000e+00,-3.000000000000000000e+00,-1.000000000000000000e+00,0.000000000000000000e+00,-4.000000000000000000e+00,3.000000000000000000e+00,4.000000000000000000e+00,-4.488525390625000000e-01,3.054199218750000000e-01,6.342163085937500000e-01,5.504150390625000000e-01
3.000000000000000000e+00,0.000000000000000000e+00,0.000000000000000000e+00,-6.000000000000000000e+00,-5.000000000000000000e+00,-5.000000000000000000e+00,-4.000000000000000000e+00,0.000000000000000000e+00,-4.488525390625000000e-01,3.054199218750000000e-01,6.342163085937500000e-01,5.504150390625000000e-01
-8.000000000000000000e+00,-1.200000000000000000e+01,-4.000000000000000000e+00,-1.600000000000000000e+01,-7.000000000000000000e+00,-1.400000000000000000e+01,-2.000000000000000000e+01,-1.100000000000000000e+01,-4.488525390625000000e-01,3.054199218750000000e-01,6.342163085937500000e-01,5.504150390625000000e-01
-6.000000000000000000e+00,-1.000000000000000000e+00,4.000000000000000000e+00,5.000000000000000000e+00,2.000000000000000000e+00,7.000000000000000000e+00,1.100000000000000000e+01,1.000000000000000000e+00,-4.487915039062500000e-01,3.054199218750000000e-01,6.337280273437500000e-01,5.510253906250000000e-01
7.000000000000000000e+00,2.000000000000000000e+00,4.000000000000000000e+00,3.000000000000000000e+00,1.000000000000000000e+00,1.000000000000000000e+00,6.000000000000000000e+00,2.000000000000000000e+00,-4.487915039062500000e-01,3.054199218750000000e-01,6.337280273437500000e-01,5.510253906250000000e-01
