-7.000000000000000000e+00,-1.000000000000000000e+00,-4.000000000000000000e+00,-8.000000000000000000e+00,-7.000000000000000000e+00,-7.000000000000000000e+00,3.000000000000000000e+00,-7.000000000000000000e+00,-3.469848632812500000e-01,1.784057617187500000e-01,7.993774414062500000e-01,4.567871093750000000e-01
-3.000000000000000000e+00,5.000000000000000000e+00,1.900000000000000000e+01,-2.000000000000000000e+00,3.000000000000000000e+00,-3.000000000000000000e+00,-1.100000000000000000e+01,-9.000000000000000000e+00,-3.469848632812500000e-01,1.784057617187500000e-01,7.993774414062500000e-01,4.567871093750000000e-01
-1.000000000000000000e+00,-1.200000000000000000e+01,-1.700000000000000000e+01,-4.000000000000000000e+00,-4.000000000000000000e+00,1.000000000000000000e+00,6.000000000000000000e+00,4.000000000000000000e+00,-3.469848632812500000e-01,1.784057617187500000e-01,7.993774414062500000e-01,4.567871093750000000e-01
6.000000000000000000e+00,0.000000000000000000e+00,8.000000000000000000e+00,2.000000000000000000e+00,-3.000000000000000000e+00,-4.000000000000000000e+00,-4.000000000000000000e+00,6.000000000000000000e+00,-3.469848632812500000e-01,1.784057617187500000e-01,7.993774414062500000e-01,4.567871093750000000e-01
1.200000000000000000e+01,-1.000000000000000000e+00,9.000000000000000000e+00,-2.000000000000000000e+00,1.000000000000000000e+00,1.000000000000000000e+00,1.600000000000000000e+01,7.000000000000000000e+00,-3.460693359375000000e-01,1.769409179687500000e-01,7.999877929687500000e-01,4.569702148437500000e-01
-4.000000000000000000e+00,1.000000000000000000e+00,-1.200000000000000000e+01,-6.000000000000000000e+00,0.000000000000000000e+00,1.000000000000000000e+00,7.000000000000000000e+00,-1.900000000000000000e+01,-3.460693359375000000e-01,1.769409179687500000e-01,7.999877929687500000e-01,4.569702148437500000e-01
-1.000000000000000000e+01,-2.000000000000000000e+00,-6.000000000000000000e+00,0.000000000000000000e+00,-6.000000000000000000e+00,-1.100000000000000000e+01,-2.200000000000000000e+01,-8.000000000000000000e+00,-3.460693359375000000e-01,1.769409179687500000e-01,7.999877929687500000e-01,4.569702148437500000e-01
-7.000000000000000000e+00,1.000000000000000000e+00,1.000000000000000000e+01,-7.000000000000000000e+00,-1.000000000000000000e+00,0.000000000000000000e+00,-4.000000000000000000e+00,-6.000000000000000000e+00,-3.460693359375000000e-01,1.769409179687500000e-01,7.999877929687500000e-01,4.569702148437500000e-01
-1.000000000000000000e+00,-3.000000000000000000e+00,-3.000000000000000000e+00,6.000000000000000000e+00,5.000000000000000000e+00,0.000000000000000000e+00,2.000000000000000000e+00,3.000000000000000000e+00,-3.462524414062500000e-01,1.738891601562500000e-01,8.014526367187500000e-01,4.555053710937500000e-01
-5.000000000000000000e+00,-4.000000000000000000e+00,1.000000000000000000e+00,-1.500000000000000000e+01,-1.100000000000000000e+01,-4.000000000000000000e+00,-1.700000000000000000e+01,-4.000000000000000000e+00,-3.462524414062500000e-01,1.738891601562500000e-01,8.014526367187500000e-01,4.555053710937500000e-01
3.000000000000000000e+00,3.000000000000000000e+00,-1.100000000000000000e+01,-1.200000000000000000e+01,-4.000000000000000000e+00,-5.000000000000000000e+00,1.300000000000000000e+01,5.000000000000000000e+00,-3.462524414062500000e-01,1.738891601562500000e-01,8.014526367187500000e-01,4.555053710937500000e-01
0.000000000000000000e+00,5.000000000000000000e+00,0.000000000000000000e+00,6.000000000000000000e+00,-3.000000000000000000e+00,-4.000000000000000000e+00,0.000000000000000000e+00,-3.000000000000000000e+00,-3.462524414062500000e-01,1.738891601562500000e-01,8.014526367187500000e-01,4.555053710937500000e-01
-2.000000000000000000e+00,-2.000000000000000000e+00,-1.500000000000000000e+01,-2.000000000000000000e+00,-7.000000000000000000e+00,0.000000000000000000e+00,-1.200000000000000000e+01,-3.000000000000000000e+00,-3.474121093750000000e-01,1.709594726562500000e-01,8.020019531250000000e-01,4.548339843750000000e-01
0.000000000000000000e+00,-4.000000000000000000e+00,1.300000000000000000e+01,1.300000000000000000e+01,2.000000000000000000e+00,3.000000000000000000e+00,3.000000000000000000e+00,5.000000000000000000e+00,-3.474121093750000000e-01,1.709594726562500000e-01,8.020019531250000000e-01,4.548339843750000000e-01
3.000000000000000000e+00,-2.000000000000000000e+00,0.000000000000000000e+00,0.000000000000000000e+00,4.000000000000000000e+00,-2.000000000000000000e+00,4.000000000000000000e+00,2.000000000000000000e+00,-3.474121093750000000e-01,1.709594726562500000e-01,8.020019531250000000e-01,4.548339843750000000e-01
-5.000000000000000000e+00,-6.000000000000000000e+00,-3.000000000000000000e+01,-5.000000000000000000e+00,-6.000000000000000000e+00,-3.000000000000000000e+00,-8.000000000000000000e+00,-3.000000000000000000e+00,-3.474121093750000000e-01,1.709594726562500000e-01,8.020019531250000000e-01,4.548339843750000000e-01
-2.000000000000000000e+00,-6.000000000000000000e+00,-9.000000000000000000e+00,-1.800000000000000000e+01,-8.000000000000000000e+00,-1.100000000000000000e+01,-6.000000000000000000e+00,-6.000000000000000000e+00,-3.480834960937500000e-01,1.707153320312500000e-01,8.013305664062500000e-01,4.555053710937500000e-01
4.000000000000000000e+00,9.000000000000000000e+00,3.600000000000000000e+01,0.000000000000000000e+00,5.000000000000000000e+00,3.000000000000000000e+00,0.000000000000000000e+00,6.000000000000000000e+00,-3.480834960937500000e-01,1.707153320312500000e-01,8.013305664062500000e-01,4.555053710937500000e-01
4.000000000000000000e+00,0.000000000000000000e+00,-1.500000000000000000e+01,8.000000000000000000e+00,-4.000000000000000000e+00,0.000000000000000000e+00,1.900000000000000000e+01,7.000000000000000000e+00,-3.480834960937500000e-01,1.707153320312500000e-01,8.013305664062500000e-01,4.555053710937500000e-01
-2.000000000000000000e+00,2.000000000000000000e+00,2.000000000000000000e+01,8.000000000000000000e+00,3.000000000000000000e+00,1.000000000000000000e+00,-9.000000000000000000e+00,1.000000000000000000e+00,-3.480834960937500000e-01,1.707153320312500000e-01,8.013305664062500000e-01,4.555053710937500000e-01
6.000000000000000000e+00,2.000000000000000000e+00,-4.000000000000000000e+00,-2.000000000000000000e+00,1.000000000000000000e+00,-1.000000000000000000e+00,-1.000000000000000000e+01,-6.000000000000000000e+00,-3.472290039062500000e-01,1.736450195312500000e-01,8.002319335937500000e-01,4.570312500000000000e-01
4.000000000000000000e+00,-4.000000000000000000e+00,-1.800000000000000000e+01,-1.000000000000000000e+01,-5.000000000000000000e+00,7.000000000000000000e+00,6.000000000000000000e+00,9.000000000000000000e+00,-3.472290039062500000e-01,1.736450195312500000e-01,8.002319335937500000e-01,4.570312500000000000e-01
-2.000000000000000000e+00,0.000000000000000000e+00,1.400000000000000000e+01,1.000000000000000000e+00,0.000000000000000000e+00,-3.000000000000000000e+00,-1.500000000000000000e+01,2.000000000000000000e+00,-3.472290039062500000e-01,1.736450195312500000e-01,8.002319335937500000e-01,4.570312500000000000e-01
-4.000000000000000000e+00,-5.000000000000000000e+00,-1.000000000000000000e+00,-7.000000000000000000e+00,1.000000000000000000e+00,-5.000000000000000000e+00,-3.000000000000000000e+00,-6.000000000000000000e+00,-3.472290039062500000e-01,1.736450195312500000e-01,8.002319335937500000e-01,4.570312500000000000e-01
-1.000000000000000000e+00,-2.000000000000000000e+00,0.000000000000000000e+00,-3.000000000000000000e+00,-4.000000000000000000e+00,6.000000000000000000e+00,5.000000000000000000e+00,6.000000000000000000e+00,-3.463134765625000000e-01,1.769409179687500000e-01,7.989501953125000000e-01,4.587402343750000000e-01
0.000000000000000000e+00,-1.000000000000000000e+00,-1.000000000000000000e+01,6.000000000000000000e+00,3.000000000000000000e+00,-8.000000000000000000e+00,5.000000000000000000e+00,3.000000000000000000e+00,-3.463134765625000000e-01,1.769409179687500000e-01,7.989501953125000000e-01,4.587402343750000000e-01
2.000000000000000000e+00,-1.000000000000000000e+00,5.000000000000000000e+00,-4.000000000000000000e+00,0.000000000000000000e+00,1.100000000000000000e+01,0.000000000000000000e+00,-2.000000000000000000e+00,-3.463134765625000000e-01,1.769409179687500000e-01,7.989501953125000000e-01,4.587402343750000000e-01
-1.100000000000000000e+01,5.000000000000000000e+00,9.000000000000000000e+00,0.000000000000000000e+00,2.000000000000000000e+00,0.000000000000000000e+00,-7.000000000000000000e+00,-4.000000000000000000e+00,-3.463134765625000000e-01,1.769409179687500000e-01,7.989501953125000000e-01,4.587402343750000000e-01
-5.000000000000000000e+00,3.000000000000000000e+00,1.400000000000000000e+01,1.000000000000000000e+00,-2.000000000000000000e+00,-1.000000000000000000e+00,-2.000000000000000000e+00,0.000000000000000000e+00,-3.454589843750000000e-01,1.798095703125000000e-01,7.979736328125000000e-01,4.598999023437500000e-01
-1.300000000000000000e+01,-2.300000000000000000e+01,-2.500000000000000000e+01,-1.300000000000000000e+01,-7.000000000000000000e+00,-5.000000000000000000e+00,-1.100000000000000000e+01,-9.000000000000000000e+00,-3.454589843750000000e-01,1.798095703125000000e-01,7.979736328125000000e-01,4.598999023437500000e-01
-1.000000000000000000e+00,2.000000000000000000e+00,2.000000000000000000e+00,-4.000000000000000000e+00,-4.000000000000000000e+00,-6.000000000000000000e+00,5.000000000000000000e+00,1.000000000000000000e+00,-3.454589843750000000e-01,1.798095703125000000e-01,7.979736328125000000e-01,4.598999023437500000e-01
1.300000000000000000e+01,2.000000000000000000e+00,3.000000000000000000e+00,1.300000000000000000e+01,6.000000000000000000e+00,-6.000000000000000000e+00,-7.000000000000000000e+00,2.000000000000000000e+00,-3.454589843750000000e-01,1.798095703125000000e-01,7.979736328125000000e-01,4.598999023437500000e-01
1.000000000000000000e+00,-2.000000000000000000e+00,-1.100000000000000000e+01,-2.400000000000000000e+01,-4.000000000000000000e+00,1.800000000000000000e+01,1.300000000000000000e+01,2.000000000000000000e+00,-3.457641601562500000e-01,1.807861328125000000e-01,7.973632812500000000e-01,4.603271484375000000e-01
2.000000000000000000e+00,-2.000000000000000000e+00,-4.000000000000000000e+00,9.000000000000000000e+00,1.000000000000000000e+00,5.000000000000000000e+00,-1.000000000000000000e+00,-1.000000000000000000e+00,-3.457641601562500000e-01,1.807861328125000000e-01,7.973632812500000000e-01,4.603271484375000000e-01
-1.400000000000000000e+01,5.000000000000000000e+00,-1.000000000000000000e+00,-1.000000000000000000e+00,0.000000000000000000e+00,-4.000000000000000000e+00,-3.000000000000000000e+00,-8.000000000000000000e+00,-3.457641601562500000e-01,1.807861328125000000e-01,7.973632812500000000e-01,4.603271484375000000e-01
1.000000000000000000e+00,-1.400000000000000000e+01,-1.000000000000000000e+01,3.000000000000000000e+00,-2.000000000000000000e+00,2.000000000000000000e+00,-4.000000000000000000e+00,-4.000000000000000000e+00,-3.457641601562500000e-01,1.807861328125000000e-01,7.973632812500000000e-01,4.603271484375000000e-01
1.700000000000000000e+01,-4.000000000000000000e+00,7.000000000000000000e+00,1.400000000000000000e+01,4.000000000000000000e+00,-1.000000000000000000e+00,6.000000000000000000e+00,1.500000000000000000e+01,-3.471069335937500000e-01,1.792602539062500000e-01,7.974853515625000000e-01,4.597778320312500000e-01
3.000000000000000000e+00,1.600000000000000000e+01,1.100000000000000000e+01,-1.200000000000000000e+01,-6.000000000000000000e+00,-4.000000000000000000e+00,-2.000000000000000000e+00,1.300000000000000000e+01,-3.471069335937500000e-01,1.792602539062500000e-01,7.974853515625000000e-01,4.597778320312500000e-01
-1.000000000000000000e+00,-8.000000000000000000e+00,-4.100000000000000000e+01,-2.000000000000000000e+00,0.000000000000000000e+00,1.000000000000000000e+00,-6.000000000000000000e+00,-1.200000000000000000e+01,-3.471069335937500000e-01,1.792602539062500000e-01,7.974853515625000000e-01,4.597778320312500000e-01
-1.000000000000000000e+01,-1.000000000000000000e+00,1.200000000000000000e+01,8.000000000000000000e+00,0.000000000000000000e+00,-4.000000000000000000e+00,4.000000000000000000e+00,-1.000000000000000000e+01,-3.471069335937500000e-01,1.792602539062500000e-01,7.974853515625000000e-01,4.597778320312500000e-01
-1.100000000000000000e+01,-6.000000000000000000e+00,-1.800000000000000000e+01,-1.700000000000000000e+01,-6.000000000000000000e+00,-1.000000000000000000e+01,-9.000000000000000000e+00,-7.000000000000000000e+00,-3.487548828125000000e-01,1.766357421875000000e-01,7.978515625000000000e-01,4.588623046875000000e-01
5.000000000000000000e+00,4.000000000000000000e+00,2.200000000000000000e+01,1.200000000000000000e+01,5.000000000000000000e+00,3.000000000000000000e+00,5.000000000000000000e+00,5.000000000000000000e+00,-3.487548828125000000e-01,1.766357421875000000e-01,7.978515625000000000e-01,4.588623046875000000e-01
5.000000000000000000e+00,7.000000000000000000e+00,-5.000000000000000000e+00,1.000000000000000000e+00,1.000000000000000000e+00,-3.000000000000000000e+00,2.000000000000000000e+00,1.000000000000000000e+00,-3.487548828125000000e-01,1.766357421875000000e-01,7.978515625000000000e-01,4.588623046875000000e-01
4.000000000000000000e+00,7.000000000000000000e+00,-5.000000000000000000e+00,-6.000000000000000000e+00,-5.000000000000000000e+00,-2.000000000000000000e+00,-1.000000000000000000e+00,4.000000000000000000e+00,-3.487548828125000000e-01,1.766357421875000000e-01,7.978515625000000000e-01,4.588623046875000000e-01
-6.000000000000000000e+00,-7.000000000000000000e+00,1.500000000000000000e+01,1.400000000000000000e+01,1.000000000000000000e+00,-3.000000000000000000e+00,-1.000000000000000000e+00,-2.000000000000000000e+00,-3.503417968750000000e-01,1.748046875000000000e-01,7.974243164062500000e-01,4.591064453125000000e-01
-1.000000000000000000e+00,-1.000000000000000000e+00,-1.500000000000000000e+01,-1.000000000000000000e+01,1.000000000000000000e+00,2.000000000000000000e+00,-3.000000000000000000e+00,-3.000000000000000000e+00,-3.503417968750000000e-01,1.748046875000000000e-01,7.974243164062500000e-01,4.591064453125000000e-01
1.000000000000000000e+00,-1.000000000000000000e+00,1.700000000000000000e+01,2.000000000000000000e+00,-3.000000000000000000e+00,-9.000000000000000000e+00,5.000000000000000000e+00,0.000000000000000000e+00,-3.503417968750000000e-01,1.748046875000000000e-01,7.974243164062500000e-01,4.591064453125000000e-01
0.000000000000000000e+00,1.000000000000000000e+00,0.000000000000000000e+00,0.000000000000000000e+00,1.000000000000000000e+00,1.300000000000000000e+01,-1.800000000000000000e+01,-7.000000000000000000e+00,-3.503417968750000000e-01,1.748046875000000000e-01,7.974243164062500000e-01,4.591064453125000000e-01
1.000000000000000000e+00,3.000000000000000000e+00,2.000000000000000000e+00,4.000000000000000000e+00,3.000000000000000000e+00,-6.000000000000000000e+00,1.200000000000000000e+01,7.000000000000000000e+00,-3.504638671875000000e-01,1.754150390625000000e-01,7.965087890625000000e-01,4.603271484375000000e-01
2.000000000000000000e+00,-5.000000000000000000e+00,-3.000000000000000000e+00,0.000000000000000000e+00,-2.000000000000000000e+00,-3.000000000000000000e+00,-2.000000000000000000e+00,7.000000000000000000e+00,-3.504638671875000000e-01,1.754150390625000000e-01,7.965087890625000000e-01,4.603271484375000000e-01
0.000000000000000000e+00,-3.000000000000000000e+00,5.000000000000000000e+00,3.000000000000000000e+00,1.000000000000000000e+00,-4.000000000000000000e+00,5.000000000000000000e+00,0.000000000000000000e+00,-3.504638671875000000e-01,1.754150390625000000e-01,7.965087890625000000e-01,4.603271484375000000e-01
2.000000000000000000e+00,-3.000000000000000000e+00,-1.500000000000000000e+01,-9.000000000000000000e+00,-5.000000000000000000e+00,-8.000000000000000000e+00,-1.500000000000000000e+01,3.000000000000000000e+00,-3.504638671875000000e-01,1.754150390625000000e-01,7.965087890625000000e-01,4.603271484375000000e-01
-5.000000000000000000e+00,-3.000000000000000000e+00,8.000000000000000000e+00,-6.000000000000000000e+00,-4.000000000000000000e+00,2.000000000000000000e+00,-1.000000000000000000e+00,-1.500000000000000000e+01,-3.488769531250000000e-01,1.776733398437500000e-01,7.956542968750000000e-01,4.621582031250000000e-01
4.000000000000000000e+00,7.000000000000000000e+00,3.000000000000000000e+00,1.400000000000000000e+01,-2.000000000000000000e+00,-6.000000000000000000e+00,2.000000000000000000e+00,2.000000000000000000e+00,-3.488769531250000000e-01,1.776733398437500000e-01,7.956542968750000000e-01,4.621582031250000000e-01
3.000000000000000000e+00,-1.000000000000000000e+00,-7.000000000000000000e+00,-1.100000000000000000e+01,1.000000000000000000e+00,9.000000000000000000e+00,2.000000000000000000e+00,7.000000000000000000e+00,-3.488769531250000000e-01,1.776733398437500000e-01,7.956542968750000000e-01,4.621582031250000000e-01
-4.000000000000000000e+00,-4.000000000000000000e+00,8.000000000000000000e+00,-1.300000000000000000e+01,-4.000000000000000000e+00,-4.000000000000000000e+00,8.000000000000000000e+00,-4.000000000000000000e+00,-3.488769531250000000e-01,1.776733398437500000e-01,7.956542968750000000e-01,4.621582031250000000e-01
-4.000000000000000000e+00,1.000000000000000000e+00,-1.000000000000000000e+00,1.300000000000000000e+01,-1.000000000000000000e+00,-3.000000000000000000e+00,-3.000000000000000000e+00,0.000000000000000000e+00,-3.480224609375000000e-01,1.799926757812500000e-01,7.943115234375000000e-01,4.641723632812500000e-01
0.000000000000000000e+00,-2.000000000000000000e+00,3.000000000000000000e+00,-1.200000000000000000e+01,3.000000000000000000e+00,-1.000000000000000000e+00,5.000000000000000000e+00,-7.000000000000000000e+00,-3.480224609375000000e-01,1.799926757812500000e-01,7.943115234375000000e-01,4.641723632812500000e-01
-4.000000000000000000e+00,-6.000000000000000000e+00,-1.700000000000000000e+01,7.000000000000000000e+00,-3.000000000000000000e+00,0.000000000000000000e+00,-1.800000000000000000e+01,-4.000000000000000000e+00,-3.480224609375000000e-01,1.799926757812500000e-01,7.943115234375000000e-01,4.641723632812500000e-01
-1.000000000000000000e+00,2.000000000000000000e+00,7.000000000000000000e+00,-7.000000000000000000e+00,3.000000000000000000e+00,1.000000000000000000e+00,2.700000000000000000e+01,-1.000000000000000000e+00,-3.480224609375000000e-01,1.799926757812500000e-01,7.943115234375000000e-01,4.641723632812500000e-01
-6.000000000000000000e+00,-4.000000000000000000e+00,-8.000000000000000000e+00,1.200000000000000000e+01,2.000000000000000000e+00,-3.000000000000000000e+00,-1.100000000000000000e+01,-3.000000000000000000e+00,-3.482055664062500000e-01,1.815185546875000000e-01,7.932739257812500000e-01,4.652099609375000000e-01
1.000000000000000000e+00,6.000000000000000000e+00,1.100000000000000000e+01,-7.000000000000000000e+00,-4.000000000000000000e+00,-1.000000000000000000e+00,-1.000000000000000000e+00,-1.000000000000000000e+00,-3.482055664062500000e-01,1.815185546875000000e-01,7.932739257812500000e-01,4.652099609375000000e-01
-3.000000000000000000e+00,-5.000000000000000000e+00,0.000000000000000000e+00,-4.000000000000000000e+00,-2.000000000000000000e+00,-4.000000000000000000e+00,-4.000000000000000000e+00,1.000000000000000000e+00,-3.482055664062500000e-01,1.815185546875000000e-01,7.932739257812500000e-01,4.652099609375000000e-01
1.000000000000000000e+00,-4.000000000000000000e+00,-2.000000000000000000e+01,-8.000000000000000000e+00,-5.000000000000000000e+00,-1.000000000000000000e+00,-2.000000000000000000e+00,1.000000000000000000e+00,-3.482055664062500000e-01,1.815185546875000000e-01,7.932739257812500000e-01,4.652099609375000000e-01
-1.000000000000000000e+00,4.000000000000000000e+00,1.600000000000000000e+01,2.800000000000000000e+01,5.000000000000000000e+00,2.000000000000000000e+00,-8.000000000000000000e+00,0.000000000000000000e+00,-3.495483398437500000e-01,1.807861328125000000e-01,7.930297851562500000e-01,4.649047851562500000e-01
-1.000000000000000000e+01,-9.000000000000000000e+00,-1.200000000000000000e+01,-2.000000000000000000e+01,-7.000000000000000000e+00,-2.000000000000000000e+00,-7.000000000000000000e+00,-1.400000000000000000e+01,-3.495483398437500000e-01,1.807861328125000000e-01,7.930297851562500000e-01,4.649047851562500000e-01
1.100000000000000000e+01,6.000000000000000000e+00,9.000000000000000000e+00,-3.000000000000000000e+00,-3.000000000000000000e+00,-1.000000000000000000e+00,5.000000000000000000e+00,3.000000000000000000e+00,-3.495483398437500000e-01,1.807861328125000000e-01,7.930297851562500000e-01,4.649047851562500000e-01
0.000000000000000000e+00,0.000000000000000000e+00,-1.400000000000000000e+01,-6.000000000000000000e+00,-1.000000000000000000e+00,2.000000000000000000e+00,4.000000000000000000e+00,-1.000000000000000000e+00,-3.495483398437500000e-01,1.807861328125000000e-01,7.930297851562500000e-01,4.649047851562500000e-01
-2.000000000000000000e+00,2.000000000000000000e+00,6.000000000000000000e+00,4.000000000000000000e+00,2.000000000000000000e+00,-5.000000000000000000e+00,-6.000000000000000000e+00,-5.000000000000000000e+00,-3.513793945312500000e-01,1.785278320312500000e-01,7.930297851562500000e-01,4.644165039062500000e-01
0.000000000000000000e+00,4.000000000000000000e+00,1.000000000000000000e+00,3.000000000000000000e+00,-1.000000000000000000e+00,1.000000000000000000e+00,1.000000000000000000e+00,-3.000000000000000000e+00,-3.513793945312500000e-01,1.785278320312500000e-01,7.930297851562500000e-01,4.644165039062500000e-01
-7.000000000000000000e+00,-4.000000000000000000e+00,9.000000000000000000e+00,5.000000000000000000e+00,0.000000000000000000e+00,-4.000000000000000000e+00,6.000000000000000000e+00,-6.000000000000000000e+00,-3.513793945312500000e-01,1.785278320312500000e-01,7.930297851562500000e-01,4.644165039062500000e-01
1.200000000000000000e+01,-4.000000000000000000e+00,9.000000000000000000e+00,4.000000000000000000e+00,-3.000000000000000000e+00,4.000000000000000000e+00,2.900000000000000000e+01,1.500000000000000000e+01,-3.513793945312500000e-01,1.785278320312500000e-01,7.930297851562500000e-01,4.644165039062500000e-01
-4.000000000000000000e+00,-5.000000000000000000e+00,-7.000000000000000000e+00,-5.000000000000000000e+00,3.000000000000000000e+00,2.000000000000000000e+00,-1.000000000000000000e+01,-9.000000000000000000e+00,-3.521118164062500000e-01,1.772460937500000000e-01,7.928466796875000000e-01,4.647216796875000000e-01
-1.000000000000000000e+00,-2.000000000000000000e+00,-9.000000000000000000e+00,-7.000000000000000000e+00,-7.000000000000000000e+00,-1.000000000000000000e+00,-3.000000000000000000e+00,0.000000000000000000e+00,-3.521118164062500000e-01,1.772460937500000000e-01,7.928466796875000000e-01,4.647216796875000000e-01
-9.000000000000000000e+00,2.000000000000000000e+00,1.000000000000000000e+01,-5.000000000000000000e+00,0.000000000000000000e+00,2.000000000000000000e+00,1.400000000000000000e+01,-4.000000000000000000e+00,-3.521118164062500000e-01,1.772460937500000000e-01,7.928466796875000000e-01,4.647216796875000000e-01
-6.000000000000000000e+00,3.000000000000000000e+00,4.000000000000000000e+00,0.000000000000000000e+00,1.000000000000000000e+00,-5.000000000000000000e+00,-1.000000000000000000e+01,-5.000000000000000000e+00,-3.521118164062500000e-01,1.772460937500000000e-01,7.928466796875000000e-01,4.647216796875000000e-01
7.000000000000000000e+00,-4.000000000000000000e+00,-4.000000000000000000e+00,-1.000000000000000000e+00,-1.000000000000000000e+00,-7.000000000000000000e+00,6.000000000000000000e+00,-1.100000000000000000e+01,-3.521118164062500000e-01,1.768798828125000000e-01,7.925415039062500000e-01,4.653320312500000000e-01
-1.000000000000000000e+00,5.000000000000000000e+00,-1.000000000000000000e+00,2.000000000000000000e+00,-3.000000000000000000e+00,3.000000000000000000e+00,2.000000000000000000e+00,0.000000000000000000e+00,-3.521118164062500000e-01,1.768798828125000000e-01,7.925415039062500000e-01,4.653320312500000000e-01
-1.000000000000000000e+00,-7.000000000000000000e+00,2.000000000000000000e+00,-3.000000000000000000e+00,-4.000000000000000000e+00,2.000000000000000000e+00,-3.000000000000000000e+00,2.000000000000000000e+00,-3.521118164062500000e-01,1.768798828125000000e-01,7.925415039062500000e-01,4.653320312500000000e-01
-5.000000000000000000e+00,5.000000000000000000e+00,2.000000000000000000e+01,3.000000000000000000e+00,0.000000000000000000e+00,-4.000000000000000000e+00,-1.000000000000000000e+00,0.000000000000000000e+00,-3.521118164062500000e-01,1.768798828125000000e-01,7.925415039062500000e-01,4.653320312500000000e-01
-5.000000000000000000e+00,-5.000000000000000000e+00,-3.200000000000000000e+01,-2.000000000000000000e+01,-8.000000000000000000e+00,-3.000000000000000000e+00,-7.000000000000000000e+00,0.000000000000000000e+00,-3.526000976562500000e-01,1.762084960937500000e-01,7.922973632812500000e-01,4.655761718750000000e-01
0.000000000000000000e+00,-5.000000000000000000e+00,-1.100000000000000000e+01,-8.000000000000000000e+00,0.000000000000000000e+00,-3.000000000000000000e+00,-4.000000000000000000e+00,-2.000000000000000000e+00,-3.526000976562500000e-01,1.762084960937500000e-01,7.922973632812500000e-01,4.655761718750000000e-01
-1.000000000000000000e+00,-2.000000000000000000e+00,-8.000000000000000000e+00,1.000000000000000000e+00,-4.000000000000000000e+00,-3.000000000000000000e+00,-1.000000000000000000e+01,1.000000000000000000e+00,-3.526000976562500000e-01,1.762084960937500000e-01,7.922973632812500000e-01,4.655761718750000000e-01
-4.000000000000000000e+00,-4.000000000000000000e+00,-3.000000000000000000e+00,-7.000000000000000000e+00,0.000000000000000000e+00,3.000000000000000000e+00,-6.000000000000000000e+00,-1.000000000000000000e+00,-3.526000976562500000e-01,1.762084960937500000e-01,7.922973632812500000e-01,4.655761718750000000e-01
1.000000000000000000e+00,4.000000000000000000e+00,9.000000000000000000e+00,-6.000000000000000000e+00,-3.000000000000000000e+00,-1.000000000000000000e+00,-2.000000000000000000e+00,1.000000000000000000e+00,-3.535156250000000000e-01,1.752319335937500000e-01,7.920532226562500000e-01,4.656982421875000000e-01
-1.000000000000000000e+00,-3.000000000000000000e+00,1.100000000000000000e+01,2.000000000000000000e+00,0.000000000000000000e+00,2.000000000000000000e+00,-1.000000000000000000e+00,2.000000000000000000e+00,-3.535156250000000000e-01,1.752319335937500000e-01,7.920532226562500000e-01,4.656982421875000000e-01
2.000000000000000000e+00,-3.000000000000000000e+00,-1.300000000000000000e+01,3.000000000000000000e+00,-2.000000000000000000e+00,0.000000000000000000e+00,1.000000000000000000e+01,2.000000000000000000e+00,-3.535156250000000000e-01,1.752319335937500000e-01,7.920532226562500000e-01,4.656982421875000000e-01
-5.000000000000000000e+00,-8.000000000000000000e+00,4.000000000000000000e+00,-4.000000000000000000e+00,-8.000000000000000000e+00,-6.000000000000000000e+00,-1.100000000000000000e+01,-8.000000000000000000e+00,-3.535156250000000000e-01,1.752319335937500000e-01,7.920532226562500000e-01,4.656982421875000000e-01
-1.000000000000000000e+00,-2.000000000000000000e+00,8.000000000000000000e+00,1.000000000000000000e+00,1.000000000000000000e+00,4.000000000000000000e+00,4.000000000000000000e+00,4.000000000000000000e+00,-3.538818359375000000e-01,1.753540039062500000e-01,7.915649414062500000e-01,4.662475585937500000e-01
-2.000000000000000000e+00,1.000000000000000000e+00,0.000000000000000000e+00,3.000000000000000000e+00,2.000000000000000000e+00,-3.000000000000000000e+00,-2.000000000000000000e+00,1.000000000000000000e+00,-3.538818359375000000e-01,1.753540039062500000e-01,7.915649414062500000e-01,4.662475585937500000e-01
4.000000000000000000e+00,3.000000000000000000e+00,1.500000000000000000e+01,9.000000000000000000e+00,3.000000000000000000e+00,6.000000000000000000e+00,-3.000000000000000000e+00,0.000000000000000000e+00,-3.538818359375000000e-01,1.753540039062500000e-01,7.915649414062500000e-01,4.662475585937500000e-01
4.000000000000000000e+00,6.000000000000000000e+00,-5.000000000000000000e+00,-3.000000000000000000e+00,-1.000000000000000000e+00,1.000000000000000000e+00,-3.000000000000000000e+00,-1.000000000000000000e+01,-3.538818359375000000e-01,1.753540039062500000e-01,7.915649414062500000e-01,4.662475585937500000e-01
-8.000000000000000000e+00,-5.000000000000000000e+00,-4.000000000000000000e+00,-9.000000000000000000e+00,-6.000000000000000000e+00,-7.000000000000000000e+00,-4.000000000000000000e+00,1.400000000000000000e+01,-3.536987304687500000e-01,1.757812500000000000e-01,7.911987304687500000e-01,4.668579101562500000e-01
1.000000000000000000e+00,-2.000000000000000000e+00,0.000000000000000000e+00,9.000000000000000000e+00,3.000000000000000000e+00,-2.000000000000000000e+00,-9.000000000000000000e+00,-3.000000000000000000e+00,-3.536987304687500000e-01,1.757812500000000000e-01,7.911987304687500000e-01,4.668579101562500000e-01
3.000000000000000000e+00,3.000000000000000000e+00,1.000000000000000000e+00,-1.000000000000000000e+00,3.000000000000000000e+00,1.400000000000000000e+01,9.000000000000000000e+00,6.000000000000000000e+00,-3.536987304687500000e-01,1.757812500000000000e-01,7.911987304687500000e-01,4.668579101562500000e-01
1.000000000000000000e+00,2.000000000000000000e+00,2.000000000000000000e+00,5.000000000000000000e+00,1.000000000000000000e+00,-4.000000000000000000e+00,-1.100000000000000000e+01,0.000000000000000000e+00,-3.536987304687500000e-01,1.757812500000000000e-01,7.911987304687500000e-01,4.668579101562500000e-01
1.000000000000000000e+00,-2.000000000000000000e+00,-1.700000000000000000e+01,-8.000000000000000000e+00,-2.000000000000000000e+00,2.000000000000000000e+00,4.000000000000000000e+00,5.000000000000000000e+00,-3.529663085937500000e-01,1.763305664062500000e-01,7.911987304687500000e-01,4.672241210937500000e-01
-4.000000000000000000e+00,-1.200000000000000000e+01,-1.500000000000000000e+01,-1.000000000000000000e+00,-8.000000000000000000e+00,-2.000000000000000000e+00,1.100000000000000000e+01,-9.000000000000000000e+00,-3.529663085937500000e-01,1.763305664062500000e-01,7.911987304687500000e-01,4.672241210937500000e-01
5.000000000000000000e+00,7.000000000000000000e+00,-1.000000000000000000e+00,-5.000000000000000000e+00,0.000000000000000000e+00,-3.000000000000000000e+00,-5.000000000000000000e+00,1.000000000000000000e+01,-3.529663085937500000e-01,1.763305664062500000e-01,7.911987304687500000e-01,4.672241210937500000e-01
-7.000000000000000000e+00,-3.000000000000000000e+00,-6.000000000000000000e+00,1.600000000000000000e+01,1.000000000000000000e+00,1.000000000000000000e+00,3.000000000000000000e+00,-5.000000000000000000e+00,-3.529663085937500000e-01,1.763305664062500000e-01,7.911987304687500000e-01,4.672241210937500000e-01
-2.000000000000000000e+00,1.000000000000000000e+01,4.000000000000000000e+00,-2.700000000000000000e+01,-3.000000000000000000e+00,-5.000000000000000000e+00,-1.000000000000000000e+01,-6.000000000000000000e+00,-3.527221679687500000e-01,1.756591796875000000e-01,7.916870117187500000e-01,4.667968750000000000e-01
0.000000000000000000e+00,-4.000000000000000000e+00,-1.200000000000000000e+01,1.600000000000000000e+01,6.000000000000000000e+00,3.000000000000000000e+00,2.000000000000000000e+01,3.000000000000000000e+00,-3.527221679687500000e-01,1.756591796875000000e-01,7.916870117187500000e-01,4.667968750000000000e-01
-1.000000000000000000e+00,-3.000000000000000000e+00,9.000000000000000000e+00,-9.000000000000000000e+00,-4.000000000000000000e+00,-7.000000000000000000e+00,-7.000000000000000000e+00,-4.000000000000000000e+00,-3.527221679687500000e-01,1.756591796875000000e-01,7.916870117187500000e-01,4.667968750000000000e-01
-3.000000000000000000e+00,3.000000000000000000e+00,6.000000000000000000e+00,1.400000000000000000e+01,3.000000000000000000e+00,-2.000000000000000000e+00,2.000000000000000000e+00,7.000000000000000000e+00,-3.527221679687500000e-01,1.756591796875000000e-01,7.916870117187500000e-01,4.667968750000000000e-01
2.000000000000000000e+00,-6.000000000000000000e+00,-1.500000000000000000e+01,-1.000000000000000000e+01,-5.000000000000000000e+00,-5.000000000000000000e+00,-1.600000000000000000e+01,-2.700000000000000000e+01,-3.530273437500000000e-01,1.741333007812500000e-01,7.923583984375000000e-01,4.660034179687500000e-01
-3.000000000000000000e+00,5.000000000000000000e+00,1.100000000000000000e+01,-6.000000000000000000e+00,-5.000000000000000000e+00,1.000000000000000000e+00,-7.000000000000000000e+00,-7.000000000000000000e+00,-3.530273437500000000e-01,1.741333007812500000e-01,7.923583984375000000e-01,4.660034179687500000e-01
-2.000000000000000000e+00,-4.000000000000000000e+00,0.000000000000000000e+00,1.200000000000000000e+01,-2.000000000000000000e+00,-7.000000000000000000e+00,-3.000000000000000000e+00,0.000000000000000000e+00,-3.530273437500000000e-01,1.741333007812500000e-01,7.923583984375000000e-01,4.660034179687500000e-01
0.000000000000000000e+00,3.000000000000000000e+00,-4.000000000000000000e+00,-2.200000000000000000e+01,1.000000000000000000e+00,-2.000000000000000000e+00,-3.000000000000000000e+00,2.000000000000000000e+00,-3.530273437500000000e-01,1.741333007812500000e-01,7.923583984375000000e-01,4.660034179687500000e-01
-6.000000000000000000e+00,0.000000000000000000e+00,1.000000000000000000e+01,2.900000000000000000e+01,0.000000000000000000e+00,1.000000000000000000e+00,6.000000000000000000e+00,0.000000000000000000e+00,-3.533325195312500000e-01,1.726684570312500000e-01,7.927856445312500000e-01,4.656372070312500000e-01
7.000000000000000000e+00,3.000000000000000000e+00,-1.600000000000000000e+01,-3.200000000000000000e+01,-3.000000000000000000e+00,0.000000000000000000e+00,-1.000000000000000000e+00,4.000000000000000000e+00,-3.533325195312500000e-01,1.726684570312500000e-01,7.927856445312500000e-01,4.656372070312500000e-01
-4.000000000000000000e+00,-1.100000000000000000e+01,-1.000000000000000000e+01,6.000000000000000000e+00,-2.000000000000000000e+00,-3.000000000000000000e+00,-4.000000000000000000e+00,-4.000000000000000000e+00,-3.533325195312500000e-01,1.726684570312500000e-01,7.927856445312500000e-01,4.656372070312500000e-01
-5.000000000000000000e+00,-5.000000000000000000e+00,-2.000000000000000000e+00,5.000000000000000000e+00,2.000000000000000000e+00,-3.000000000000000000e+00,-3.000000000000000000e+00,-3.000000000000000000e+00,-3.533325195312500000e-01,1.726684570312500000e-01,7.927856445312500000e-01,4.656372070312500000e-01
-5.000000000000000000e+00,0.000000000000000000e+00,8.000000000000000000e+00,6.000000000000000000e+00,1.000000000000000000e+00,0.000000000000000000e+00,2.000000000000000000e+00,1.000000000000000000e+00,-3.521728515625000000e-01,1.730346679687500000e-01,7.927856445312500000e-01,4.663085937500000000e-01
-4.000000000000000000e+00,0.000000000000000000e+00,1.000000000000000000e+01,6.000000000000000000e+00,1.000000000000000000e+00,-3.000000000000000000e+00,-7.000000000000000000e+00,-5.000000000000000000e+00,-3.521728515625000000e-01,1.730346679687500000e-01,7.927856445312500000e-01,4.663085937500000000e-01
1.000000000000000000e+00,3.000000000000000000e+00,-1.000000000000000000e+00,-3.000000000000000000e+00,-1.000000000000000000e+00,-8.000000000000000000e+00,-1.000000000000000000e+00,2.000000000000000000e+00,-3.521728515625000000e-01,1.730346679687500000e-01,7.927856445312500000e-01,4.663085937500000000e-01
7.000000000000000000e+00,3.000000000000000000e+00,-7.000000000000000000e+00,-4.000000000000000000e+00,0.000000000000000000e+00,5.000000000000000000e+00,4.000000000000000000e+00,2.000000000000000000e+00,-3.521728515625000000e-01,1.730346679687500000e-01,7.927856445312500000e-01,4.663085937500000000e-01
0.000000000000000000e+00,-6.000000000000000000e+00,3.000000000000000000e+00,8.000000000000000000e+00,-1.000000000000000000e+00,-1.000000000000000000e+00,-5.000000000000000000e+00,5.000000000000000000e+00,-3.507080078125000000e-01,1.738281250000000000e-01,7.929687500000000000e-01,4.668579101562500000e-01
-1.000000000000000000e+00,-4.000000000000000000e+00,2.000000000000000000e+00,3.000000000000000000e+00,1.000000000000000000e+00,0.000000000000000000e+00,1.000000000000000000e+00,-1.500000000000000000e+01,-3.507080078125000000e-01,1.738281250000000000e-01,7.929687500000000000e-01,4.668579101562500000e-01
-2.000000000000000000e+00,3.000000000000000000e+00,4.000000000000000000e+00,-1.000000000000000000e+01,-2.000000000000000000e+00,0.000000000000000000e+00,2.000000000000000000e+00,-7.000000000000000000e+00,-3.507080078125000000e-01,1.738281250000000000e-01,7.929687500000000000e-01,4.668579101562500000e-01
7.000000000000000000e+00,6.000000000000000000e+00,-1.100000000000000000e+01,-8.000000000000000000e+00,1.000000000000000000e+00,-4.000000000000000000e+00,-3.000000000000000000e+00,3.000000000000000000e+00,-3.507080078125000000e-01,1.738281250000000000e-01,7.929687500000000000e-01,4.668579101562500000e-01
-1.100000000000000000e+01,-3.000000000000000000e+00,-4.000000000000000000e+00,4.000000000000000000e+00,-1.000000000000000000e+00,0.000000000000000000e+00,-4.000000000000000000e+00,-1.100000000000000000e+01,-3.501586914062500000e-01,1.734008789062500000e-01,7.932739257812500000e-01,4.667968750000000000e-01
3.000000000000000000e+00,-4.000000000000000000e+00,9.000000000000000000e+00,1.100000000000000000e+01,0.000000000000000000e+00,1.000000000000000000e+00,1.300000000000000000e+01,1.900000000000000000e+01,-3.501586914062500000e-01,1.734008789062500000e-01,7.932739257812500000e-01,4.667968750000000000e-01
-1.000000000000000000e+00,4.000000000000000000e+00,-2.000000000000000000e+00,1.000000000000000000e+00,3.000000000000000000e+00,-1.000000000000000000e+00,-1.200000000000000000e+01,-7.000000000000000000e+00,-3.501586914062500000e-01,1.734008789062500000e-01,7.932739257812500000e-01,4.667968750000000000e-01
-4.000000000000000000e+00,-9.000000000000000000e+00,-1.300000000000000000e+01,-1.700000000000000000e+01,-8.000000000000000000e+00,-3.000000000000000000e+00,3.000000000000000000e+00,-6.000000000000000000e+00,-3.501586914062500000e-01,1.734008789062500000e-01,7.932739257812500000e-01,4.667968750000000000e-01
1.000000000000000000e+00,1.000000000000000000e+00,-3.000000000000000000e+00,1.000000000000000000e+00,-3.000000000000000000e+00,-1.000000000000000000e+00,5.000000000000000000e+00,5.000000000000000000e+00,-3.499755859375000000e-01,1.723632812500000000e-01,7.937622070312500000e-01,4.665527343750000000e-01
-3.000000000000000000e+00,0.000000000000000000e+00,3.000000000000000000e+00,1.400000000000000000e+01,-1.000000000000000000e+00,-5.000000000000000000e+00,-1.400000000000000000e+01,-2.000000000000000000e+00,-3.499755859375000000e-01,1.723632812500000000e-01,7.937622070312500000e-01,4.665527343750000000e-01
-1.000000000000000000e+00,1.000000000000000000e+00,6.000000000000000000e+00,0.000000000000000000e+00,3.000000000000000000e+00,0.000000000000000000e+00,5.000000000000000000e+00,0.000000000000000000e+00,-3.499755859375000000e-01,1.723632812500000000e-01,7.937622070312500000e-01,4.665527343750000000e-01
-1.000000000000000000e+00,3.000000000000000000e+00,5.000000000000000000e+00,1.000000000000000000e+00,-4.000000000000000000e+00,1.000000000000000000e+00,-1.000000000000000000e+00,2.000000000000000000e+00,-3.499755859375000000e-01,1.723632812500000000e-01,7.937622070312500000e-01,4.665527343750000000e-01
1.000000000000000000e+00,-2.000000000000000000e+00,-1.100000000000000000e+01,-6.000000000000000000e+00,2.000000000000000000e+00,1.000000000000000000e+00,-3.000000000000000000e+00,1.000000000000000000e+00,-3.500366210937500000e-01,1.712646484375000000e-01,7.940063476562500000e-01,4.664916992187500000e-01
-4.000000000000000000e+00,-3.000000000000000000e+00,8.000000000000000000e+00,-1.000000000000000000e+00,-1.000000000000000000e+00,-7.000000000000000000e+00,-4.000000000000000000e+00,-1.000000000000000000e+00,-3.500366210937500000e-01,1.712646484375000000e-01,7.940063476562500000e-01,4.664916992187500000e-01
4.000000000000000000e+00,2.000000000000000000e+00,-7.000000000000000000e+00,5.000000000000000000e+00,0.000000000000000000e+00,-8.000000000000000000e+00,-3.000000000000000000e+00,3.000000000000000000e+00,-3.500366210937500000e-01,1.712646484375000000e-01,7.940063476562500000e-01,4.664916992187500000e-01
-1.000000000000000000e+01,-6.000000000000000000e+00,-3.000000000000000000e+00,-7.000000000000000000e+00,-3.000000000000000000e+00,6.000000000000000000e+00,-1.000000000000000000e+00,-1.100000000000000000e+01,-3.500366210937500000e-01,1.712646484375000000e-01,7.940063476562500000e-01,4.664916992187500000e-01
4.000000000000000000e+00,5.000000000000000000e+00,1.000000000000000000e+00,-1.000000000000000000e+00,-2.000000000000000000e+00,0.000000000000000000e+00,4.000000000000000000e+00,5.000000000000000000e+00,-3.502197265625000000e-01,1.702880859375000000e-01,7.941284179687500000e-01,4.664916992187500000e-01
8.000000000000000000e+00,-1.000000000000000000e+00,-1.000000000000000000e+00,1.000000000000000000e+00,0.000000000000000000e+00,1.000000000000000000e+00,-1.100000000000000000e+01,9.000000000000000000e+00,-3.502197265625000000e-01,1.702880859375000000e-01,7.941284179687500000e-01,4.664916992187500000e-01
-1.000000000000000000e+01,0.000000000000000000e+00,-1.000000000000000000e+00,-7.000000000000000000e+00,-3.000000000000000000e+00,1.000000000000000000e+00,-1.000000000000000000e+00,-1.700000000000000000e+01,-3.502197265625000000e-01,1.702880859375000000e-01,7.941284179687500000e-01,4.664916992187500000e-01
4.000000000000000000e+00,-1.000000000000000000e+00,1.000000000000000000e+01,8.000000000000000000e+00,-1.000000000000000000e+00,-4.000000000000000000e+00,-4.000000000000000000e+00,1.000000000000000000e+00,-3.502197265625000000e-01,1.702880859375000000e-01,7.941284179687500000e-01,4.664916992187500000e-01
-4.000000000000000000e+00,-3.000000000000000000e+00,-1.000000000000000000e+01,-1.000000000000000000e+01,-1.000000000000000000e+00,-2.000000000000000000e+00,-8.000000000000000000e+00,1.000000000000000000e+00,-3.502807617187500000e-01,1.696166992187500000e-01,7.941284179687500000e-01,4.666748046875000000e-01
-4.000000000000000000e+00,-5.000000000000000000e+00,0.000000000000000000e+00,-3.000000000000000000e+00,-2.000000000000000000e+00,3.000000000000000000e+00,7.000000000000000000e+00,2.000000000000000000e+00,-3.502807617187500000e-01,1.696166992187500000e-01,7.941284179687500000e-01,4.666748046875000000e-01
-1.000000000000000000e+00,0.000000000000000000e+00,1.000000000000000000e+00,-1.000000000000000000e+00,0.000000000000000000e+00,0.000000000000000000e+00,-6.000000000000000000e+00,3.000000000000000000e+00,-3.502807617187500000e-01,1.696166992187500000e-01,7.941284179687500000e-01,4.666748046875000000e-01
-6.000000000000000000e+00,-2.000000000000000000e+00,-9.000000000000000000e+00,4.000000000000000000e+00,0.000000000000000000e+00,-1.000000000000000000e+00,-4.000000000000000000e+00,-5.000000000000000000e+00,-3.502807617187500000e-01,1.696166992187500000e-01,7.941284179687500000e-01,4.666748046875000000e-01
6.000000000000000000e+00,5.000000000000000000e+00,1.600000000000000000e+01,-4.000000000000000000e+00,-1.000000000000000000e+00,-1.000000000000000000e+00,5.000000000000000000e+00,3.000000000000000000e+00,-3.502807617187500000e-01,1.691894531250000000e-01,7.941284179687500000e-01,4.667968750000000000e-01
-2.000000000000000000e+00,0.000000000000000000e+00,-8.000000000000000000e+00,-4.000000000000000000e+00,-2.000000000000000000e+00,-2.000000000000000000e+00,-5.000000000000000000e+00,-2.000000000000000000e+00,-3.502807617187500000e-01,1.691894531250000000e-01,7.941284179687500000e-01,4.667968750000000000e-01
5.000000000000000000e+00,0.000000000000000000e+00,3.000000000000000000e+00,-1.000000000000000000e+00,-2.000000000000000000e+00,4.000000000000000000e+00,6.000000000000000000e+00,3.000000000000000000e+00,-3.502807617187500000e-01,1.691894531250000000e-01,7.941284179687500000e-01,4.667968750000000000e-01
1.000000000000000000e+00,-4.000000000000000000e+00,1.000000000000000000e+00,1.100000000000000000e+01,0.000000000000000000e+00,-2.000000000000000000e+00,4.000000000000000000e+00,-1.000000000000000000e+00,-3.502807617187500000e-01,1.691894531250000000e-01,7.941284179687500000e-01,4.667968750000000000e-01
1.000000000000000000e+00,-1.000000000000000000e+00,-1.000000000000000000e+00,-1.000000000000000000e+01,5.000000000000000000e+00,4.000000000000000000e+00,-8.000000000000000000e+00,5.000000000000000000e+00,-3.507690429687500000e-01,1.687011718750000000e-01,7.941284179687500000e-01,4.667358398437500000e-01
-1.200000000000000000e+01,-4.000000000000000000e+00,-7.000000000000000000e+00,-5.000000000000000000e+00,-4.000000000000000000e+00,-3.000000000000000000e+00,-4.000000000000000000e+00,-7.000000000000000000e+00,-3.507690429687500000e-01,1.687011718750000000e-01,7.941284179687500000e-01,4.667358398437500000e-01
-6.000000000000000000e+00,-5.000000000000000000e+00,9.000000000000000000e+00,-5.000000000000000000e+00,-4.000000000000000000e+00,2.000000000000000000e+00,1.000000000000000000e+00,-4.000000000000000000e+00,-3.507690429687500000e-01,1.687011718750000000e-01,7.941284179687500000e-01,4.667358398437500000e-01
-3.000000000000000000e+00,-6.000000000000000000e+00,-1.500000000000000000e+01,6.000000000000000000e+00,-1.000000000000000000e+00,2.000000000000000000e+00,1.000000000000000000e+00,5.000000000000000000e+00,-3.507690429687500000e-01,1.687011718750000000e-01,7.941284179687500000e-01,4.667358398437500000e-01
2.000000000000000000e+00,3.000000000000000000e+00,1.000000000000000000e+01,-4.000000000000000000e+00,-5.000000000000000000e+00,-1.000000000000000000e+00,-3.000000000000000000e+00,5.000000000000000000e+00,-3.513183593750000000e-01,1.683349609375000000e-01,7.938842773437500000e-01,4.667968750000000000e-01
1.000000000000000000e+00,4.000000000000000000e+00,-5.000000000000000000e+00,-1.000000000000000000e+01,0.000000000000000000e+00,-2.000000000000000000e+00,8.000000000000000000e+00,-5.000000000000000000e+00,-3.513183593750000000e-01,1.683349609375000000e-01,7.938842773437500000e-01,4.667968750000000000e-01
-2.000000000000000000e+00,-5.000000000000000000e+00,-6.000000000000000000e+00,-2.000000000000000000e+00,0.000000000000000000e+00,0.000000000000000000e+00,1.000000000000000000e+00,2.000000000000000000e+00,-3.513183593750000000e-01,1.683349609375000000e-01,7.938842773437500000e-01,4.667968750000000000e-01
3.000000000000000000e+00,6.000000000000000000e+00,1.000000000000000000e+01,1.000000000000000000e+01,2.000000000000000000e+00,6.000000000000000000e+00,1.400000000000000000e+01,2.000000000000000000e+00,-3.513183593750000000e-01,1.683349609375000000e-01,7.938842773437500000e-01,4.667968750000000000e-01
2.000000000000000000e+00,8.000000000000000000e+00,4.000000000000000000e+00,-7.000000000000000000e+00,-3.000000000000000000e+00,-2.000000000000000000e+00,-1.100000000000000000e+01,3.000000000000000000e+00,-3.518066406250000000e-01,1.682739257812500000e-01,7.936401367187500000e-01,4.668579101562500000e-01
0.000000000000000000e+00,2.000000000000000000e+00,5.000000000000000000e+00,9.000000000000000000e+00,2.000000000000000000e+00,0.000000000000000000e+00,1.500000000000000000e+01,2.000000000000000000e+00,-3.518066406250000000e-01,1.682739257812500000e-01,7.936401367187500000e-01,4.668579101562500000e-01
-5.000000000000000000e+00,0.000000000000000000e+00,-7.000000000000000000e+00,9.000000000000000000e+00,0.000000000000000000e+00,-6.000000000000000000e+00,-7.000000000000000000e+00,-1.000000000000000000e+00,-3.518066406250000000e-01,1.682739257812500000e-01,7.936401367187500000e-01,4.668579101562500000e-01
-2.000000000000000000e+00,-1.600000000000000000e+01,8.000000000000000000e+00,-2.500000000000000000e+01,-4.000000000000000000e+00,-6.000000000000000000e+00,-1.100000000000000000e+01,-6.000000000000000000e+00,-3.518066406250000000e-01,1.682739257812500000e-01,7.936401367187500000e-01,4.668579101562500000e-01
1.000000000000000000e+00,9.000000000000000000e+00,9.000000000000000000e+00,1.000000000000000000e+01,-3.000000000000000000e+00,-3.000000000000000000e+00,1.000000000000000000e+01,-4.000000000000000000e+00,-3.519897460937500000e-01,1.682739257812500000e-01,7.934570312500000000e-01,4.670410156250000000e-01
2.000000000000000000e+00,6.000000000000000000e+00,1.500000000000000000e+01,9.000000000000000000e+00,3.000000000000000000e+00,4.000000000000000000e+00,-3.000000000000000000e+00,1.000000000000000000e+01,-3.519897460937500000e-01,1.682739257812500000e-01,7.934570312500000000e-01,4.670410156250000000e-01
0.000000000000000000e+00,-1.000000000000000000e+01,-9.000000000000000000e+00,-1.100000000000000000e+01,-2.000000000000000000e+00,0.000000000000000000e+00,-7.000000000000000000e+00,-2.400000000000000000e+01,-3.519897460937500000e-01,1.682739257812500000e-01,7.934570312500000000e-01,4.670410156250000000e-01
-7.000000000000000000e+00,-4.000000000000000000e+00,-9.000000000000000000e+00,7.000000000000000000e+00,1.000000000000000000e+00,-4.000000000000000000e+00,1.000000000000000000e+01,0.000000000000000000e+00,-3.519897460937500000e-01,1.682739257812500000e-01,7.934570312500000000e-01,4.670410156250000000e-01
-5.000000000000000000e+00,-5.000000000000000000e+00,-4.000000000000000000e+00,-1.000000000000000000e+00,-4.000000000000000000e+00,2.000000000000000000e+00,1.000000000000000000e+00,-6.000000000000000000e+00,-3.526000976562500000e-01,1.674804687500000000e-01,7.934570312500000000e-01,4.668579101562500000e-01
9.000000000000000000e+00,-2.000000000000000000e+00,0.000000000000000000e+00,0.000000000000000000e+00,0.000000000000000000e+00,-6.000000000000000000e+00,-4.000000000000000000e+00,2.000000000000000000e+00,-3.526000976562500000e-01,1.674804687500000000e-01,7.934570312500000000e-01,4.668579101562500000e-01
3.000000000000000000e+00,4.000000000000000000e+00,-5.000000000000000000e+00,-3.000000000000000000e+00,3.000000000000000000e+00,3.000000000000000000e+00,1.600000000000000000e+01,8.000000000000000000e+00,-3.526000976562500000e-01,1.674804687500000000e-01,7.934570312500000000e-01,4.668579101562500000e-01
-2.000000000000000000e+00,3.000000000000000000e+00,3.000000000000000000e+00,3.000000000000000000e+00,-3.000000000000000000e+00,-4.000000000000000000e+00,-4.000000000000000000e+00,-1.000000000000000000e+00,-3.526000976562500000e-01,1.674804687500000000e-01,7.934570312500000000e-01,4.668579101562500000e-01
-1.000000000000000000e+00,-7.000000000000000000e+00,-3.000000000000000000e+00,-3.000000000000000000e+00,3.000000000000000000e+00,2.000000000000000000e+00,7.000000000000000000e+00,-7.000000000000000000e+00,-3.529663085937500000e-01,1.664428710937500000e-01,7.937011718750000000e-01,4.665527343750000000e-01
-2.000000000000000000e+00,3.000000000000000000e+00,2.000000000000000000e+00,0.000000000000000000e+00,1.000000000000000000e+00,1.000000000000000000e+00,2.000000000000000000e+00,0.000000000000000000e+00,-3.529663085937500000e-01,1.664428710937500000e-01,7.937011718750000000e-01,4.665527343750000000e-01
3.000000000000000000e+00,-4.000000000000000000e+00,-2.000000000000000000e+01,-9.000000000000000000e+00,-4.000000000000000000e+00,-1.000000000000000000e+00,-7.000000000000000000e+00,3.000000000000000000e+00,-3.529663085937500000e-01,1.664428710937500000e-01,7.937011718750000000e-01,4.665527343750000000e-01
3.000000000000000000e+00,-1.000000000000000000e+00,-4.000000000000000000e+00,-6.000000000000000000e+00,-4.000000000000000000e+00,-3.000000000000000000e+00,-9.000000000000000000e+00,-3.000000000000000000e+00,-3.529663085937500000e-01,1.664428710937500000e-01,7.937011718750000000e-01,4.665527343750000000e-01
-4.000000000000000000e+00,-4.000000000000000000e+00,0.000000000000000000e+00,1.600000000000000000e+01,1.000000000000000000e+00,-1.000000000000000000e+00,8.000000000000000000e+00,2.000000000000000000e+00,-3.530883789062500000e-01,1.657714843750000000e-01,7.938842773437500000e-01,4.663696289062500000e-01
-3.000000000000000000e+00,-6.000000000000000000e+00,1.000000000000000000e+00,-6.000000000000000000e+00,2.000000000000000000e+00,0.000000000000000000e+00,-9.000000000000000000e+00,-6.000000000000000000e+00,-3.530883789062500000e-01,1.657714843750000000e-01,7.938842773437500000e-01,4.663696289062500000e-01
-3.000000000000000000e+00,0.000000000000000000e+00,1.100000000000000000e+01,2.000000000000000000e+00,-1.000000000000000000e+00,-3.000000000000000000e+00,-5.000000000000000000e+00,1.000000000000000000e+00,-3.530883789062500000e-01,1.657714843750000000e-01,7.938842773437500000e-01,4.663696289062500000e-01
-1.000000000000000000e+00,-2.000000000000000000e+00,0.000000000000000000e+00,-2.000000000000000000e+00,-3.000000000000000000e+00,1.000000000000000000e+00,1.000000000000000000e+00,-1.000000000000000000e+00,-3.530883789062500000e-01,1.657714843750000000e-01,7.938842773437500000e-01,4.663696289062500000e-01
-5.000000000000000000e+00,-6.000000000000000000e+00,-6.000000000000000000e+00,-4.000000000000000000e+00,-4.000000000000000000e+00,-7.000000000000000000e+00,-2.000000000000000000e+01,-1.000000000000000000e+00,-3.530883789062500000e-01,1.658325195312500000e-01,7.938842773437500000e-01,4.663696289062500000e-01
-1.000000000000000000e+00,0.000000000000000000e+00,2.000000000000000000e+00,2.000000000000000000e+00,-4.000000000000000000e+00,0.000000000000000000e+00,7.000000000000000000e+00,-5.000000000000000000e+00,-3.530883789062500000e-01,1.658325195312500000e-01,7.938842773437500000e-01,4.663696289062500000e-01
0.000000000000000000e+00,3.000000000000000000e+00,-1.000000000000000000e+00,-3.000000000000000000e+00,0.000000000000000000e+00,-1.000000000000000000e+00,-2.000000000000000000e+00,-1.000000000000000000e+00,-3.528442382812500000e-01,1.665039062500000000e-01,7.937011718750000000e-01,4.666748046875000000e-01
3.000000000000000000e+00,9.000000000000000000e+00,-3.000000000000000000e+00,-1.000000000000000000e+00,0.000000000000000000e+00,-1.000000000000000000e+00,1.000000000000000000e+00,2.000000000000000000e+00,-3.528442382812500000e-01,1.665039062500000000e-01,7.937011718750000000e-01,4.666748046875000000e-01
3.000000000000000000e+00,2.000000000000000000e+00,8.000000000000000000e+00,-1.000000000000000000e+00,1.000000000000000000e+00,-3.000000000000000000e+00,-2.000000000000000000e+00,-2.000000000000000000e+00,-3.528442382812500000e-01,1.665039062500000000e-01,7.937011718750000000e-01,4.666748046875000000e-01
-1.000000000000000000e+00,-3.000000000000000000e+00,-1.300000000000000000e+01,-5.000000000000000000e+00,-2.000000000000000000e+00,1.000000000000000000e+00,-6.000000000000000000e+00,-2.000000000000000000e+00,-3.528442382812500000e-01,1.665039062500000000e-01,7.937011718750000000e-01,4.666748046875000000e-01
-4.000000000000000000e+00,-5.000000000000000000e+00,3.000000000000000000e+00,-1.000000000000000000e+00,3.000000000000000000e+00,3.000000000000000000e+00,-2.000000000000000000e+00,4.000000000000000000e+00,-3.523559570312500000e-01,1.676635742187500000e-01,7.933959960937500000e-01,4.671020507812500000e-01
-4.000000000000000000e+00,2.000000000000000000e+00,-1.600000000000000000e+01,-4.000000000000000000e+00,-3.000000000000000000e+00,-4.000000000000000000e+00,-1.000000000000000000e+01,-2.000000000000000000e+00,-3.523559570312500000e-01,1.676635742187500000e-01,7.933959960937500000e-01,4.671020507812500000e-01
-3.000000000000000000e+00,-6.000000000000000000e+00,-1.000000000000000000e+00,8.000000000000000000e+00,1.000000000000000000e+00,0.000000000000000000e+00,1.700000000000000000e+01,-1.000000000000000000e+00,-3.523559570312500000e-01,1.676635742187500000e-01,7.933959960937500000e-01,4.671020507812500000e-01
3.000000000000000000e+00,2.000000000000000000e+00,2.000000000000000000e+00,-1.900000000000000000e+01,-4.000000000000000000e+00,1.000000000000000000e+00,-2.000000000000000000e+00,-1.000000000000000000e+00,-3.523559570312500000e-01,1.676635742187500000e-01,7.933959960937500000e-01,4.671020507812500000e-01
0.000000000000000000e+00,-1.000000000000000000e+00,-8.000000000000000000e+00,5.000000000000000000e+00,-1.000000000000000000e+00,4.000000000000000000e+00,-1.000000000000000000e+00,-2.000000000000000000e+00,-3.518676757812500000e-01,1.685180664062500000e-01,7.934570312500000000e-01,4.671020507812500000e-01
-1.000000000000000000e+00,4.000000000000000000e+00,5.000000000000000000e+00,1.400000000000000000e+01,2.000000000000000000e+00,0.000000000000000000e+00,5.000000000000000000e+00,1.000000000000000000e+00,-3.518676757812500000e-01,1.685180664062500000e-01,7.934570312500000000e-01,4.671020507812500000e-01
2.000000000000000000e+00,2.000000000000000000e+00,-1.000000000000000000e+01,-7.000000000000000000e+00,1.000000000000000000e+00,-1.000000000000000000e+00,2.000000000000000000e+00,0.000000000000000000e+00,-3.518676757812500000e-01,1.685180664062500000e-01,7.934570312500000000e-01,4.671020507812500000e-01
-3.000000000000000000e+00,-5.000000000000000000e+00,-5.000000000000000000e+00,3.000000000000000000e+00,1.000000000000000000e+00,-1.000000000000000000e+00,-1.000000000000000000e+00,-2.000000000000000000e+00,-3.518676757812500000e-01,1.685180664062500000e-01,7.934570312500000000e-01,4.671020507812500000e-01
3.000000000000000000e+00,0.000000000000000000e+00,1.000000000000000000e+01,-4.000000000000000000e+00,-2.000000000000000000e+00,-4.000000000000000000e+00,-5.000000000000000000e+00,0.000000000000000000e+00,-3.516235351562500000e-01,1.686401367187500000e-01,7.938842773437500000e-01,4.664916992187500000e-01
-3.000000000000000000e+00,1.000000000000000000e+00,1.500000000000000000e+01,4.000000000000000000e+00,1.000000000000000000e+00,1.000000000000000000e+00,-6.000000000000000000e+00,-1.000000000000000000e+00,-3.516235351562500000e-01,1.686401367187500000e-01,7.938842773437500000e-01,4.664916992187500000e-01
0.000000000000000000e+00,0.000000000000000000e+00,-7.000000000000000000e+00,3.000000000000000000e+00,0.000000000000000000e+00,3.000000000000000000e+00,7.000000000000000000e+00,9.000000000000000000e+00,-3.516235351562500000e-01,1.686401367187500000e-01,7.938842773437500000e-01,4.664916992187500000e-01
-7.000000000000000000e+00,5.000000000000000000e+00,1.300000000000000000e+01,0.000000000000000000e+00,-1.000000000000000000e+00,-1.300000000000000000e+01,-1.700000000000000000e+01,-5.000000000000000000e+00,-3.516235351562500000e-01,1.686401367187500000e-01,7.938842773437500000e-01,4.664916992187500000e-01
-6.000000000000000000e+00,-1.000000000000000000e+01,-2.500000000000000000e+01,-4.000000000000000000e+00,-5.000000000000000000e+00,1.500000000000000000e+01,2.100000000000000000e+01,7.000000000000000000e+00,-3.522338867187500000e-01,1.672973632812500000e-01,7.944946289062500000e-01,4.654541015625000000e-01
1.100000000000000000e+01,-1.000000000000000000e+00,1.900000000000000000e+01,9.000000000000000000e+00,2.000000000000000000e+00,-4.000000000000000000e+00,-1.300000000000000000e+01,3.000000000000000000e+00,-3.522338867187500000e-01,1.672973632812500000e-01,7.944946289062500000e-01,4.654541015625000000e-01
1.000000000000000000e+00,1.000000000000000000e+00,-4.000000000000000000e+00,-7.000000000000000000e+00,-1.000000000000000000e+00,-1.000000000000000000e+00,3.000000000000000000e+00,1.000000000000000000e+00,-3.522338867187500000e-01,1.672973632812500000e-01,7.944946289062500000e-01,4.654541015625000000e-01
3.000000000000000000e+00,1.000000000000000000e+00,-1.000000000000000000e+00,-1.000000000000000000e+00,-3.000000000000000000e+00,-2.000000000000000000e+00,-3.000000000000000000e+00,0.000000000000000000e+00,-3.522338867187500000e-01,1.672973632812500000e-01,7.944946289062500000e-01,4.654541015625000000e-01
-5.000000000000000000e+00,0.000000000000000000e+00,1.000000000000000000e+00,5.000000000000000000e+00,1.000000000000000000e+00,-6.000000000000000000e+00,-1.000000000000000000e+00,-3.000000000000000000e+00,-3.532104492187500000e-01,1.660156250000000000e-01,7.946166992187500000e-01,4.649658203125000000e-01
-1.000000000000000000e+00,8.000000000000000000e+00,1.300000000000000000e+01,-9.000000000000000000e+00,-1.000000000000000000e+00,1.000000000000000000e+00,-9.000000000000000000e+00,2.000000000000000000e+00,-3.532104492187500000e-01,1.660156250000000000e-01,7.946166992187500000e-01,4.649658203125000000e-01
-3.000000000000000000e+00,-1.100000000000000000e+01,-2.300000000000000000e+01,3.000000000000000000e+00,-1.000000000000000000e+00,3.000000000000000000e+00,3.000000000000000000e+01,0.000000000000000000e+00,-3.532104492187500000e-01,1.660156250000000000e-01,7.946166992187500000e-01,4.649658203125000000e-01
-1.000000000000000000e+00,-6.000000000000000000e+00,-7.000000000000000000e+00,-5.000000000000000000e+00,-2.000000000000000000e+00,2.000000000000000000e+00,-1.600000000000000000e+01,-6.000000000000000000e+00,-3.532104492187500000e-01,1.660156250000000000e-01,7.946166992187500000e-01,4.649658203125000000e-01
1.000000000000000000e+01,3.000000000000000000e+00,1.500000000000000000e+01,-7.000000000000000000e+00,-2.000000000000000000e+00,-3.000000000000000000e+00,-6.000000000000000000e+00,5.000000000000000000e+00,-3.531494140625000000e-01,1.668701171875000000e-01,7.941894531250000000e-01,4.653930664062500000e-01
-6.000000000000000000e+00,-5.000000000000000000e+00,-7.000000000000000000e+00,-4.000000000000000000e+00,-1.000000000000000000e+00,2.000000000000000000e+00,0.000000000000000000e+00,-3.000000000000000000e+00,-3.531494140625000000e-01,1.668701171875000000e-01,7.941894531250000000e-01,4.653930664062500000e-01
-5.000000000000000000e+00,2.000000000000000000e+00,2.000000000000000000e+00,-6.000000000000000000e+00,-1.000000000000000000e+00,-3.000000000000000000e+00,-1.100000000000000000e+01,-8.000000000000000000e+00,-3.531494140625000000e-01,1.668701171875000000e-01,7.941894531250000000e-01,4.653930664062500000e-01
-5.000000000000000000e+00,-2.000000000000000000e+00,-7.000000000000000000e+00,3.000000000000000000e+00,-1.000000000000000000e+00,2.000000000000000000e+00,4.000000000000000000e+00,-3.000000000000000000e+00,-3.531494140625000000e-01,1.668701171875000000e-01,7.941894531250000000e-01,4.653930664062500000e-01
-3.000000000000000000e+00,-3.000000000000000000e+00,2.000000000000000000e+00,-2.000000000000000000e+00,-2.000000000000000000e+00,-5.000000000000000000e+00,-1.000000000000000000e+00,1.000000000000000000e+00,-3.531494140625000000e-01,1.683959960937500000e-01,7.936401367187500000e-01,4.658813476562500000e-01
2.000000000000000000e+00,-3.000000000000000000e+00,5.000000000000000000e+00,1.100000000000000000e+01,0.000000000000000000e+00,-2.000000000000000000e+00,0.000000000000000000e+00,0.000000000000000000e+00,-3.531494140625000000e-01,1.683959960937500000e-01,7.936401367187500000e-01,4.658813476562500000e-01
-4.000000000000000000e+00,-1.000000000000000000e+00,-3.000000000000000000e+00,-1.000000000000000000e+01,-2.000000000000000000e+00,1.000000000000000000e+00,-6.000000000000000000e+00,-2.000000000000000000e+00,-3.531494140625000000e-01,1.683959960937500000e-01,7.936401367187500000e-01,4.658813476562500000e-01
8.000000000000000000e+00,6.000000000000000000e+00,5.000000000000000000e+00,-1.000000000000000000e+00,2.000000000000000000e+00,-3.000000000000000000e+00,8.000000000000000000e+00,-1.500000000000000000e+01,-3.531494140625000000e-01,1.683959960937500000e-01,7.936401367187500000e-01,4.658813476562500000e-01
-1.000000000000000000e+01,-1.500000000000000000e+01,-3.200000000000000000e+01,-8.000000000000000000e+00,-9.000000000000000000e+00,-4.000000000000000000e+00,-8.000000000000000000e+00,-1.000000000000000000e+00,-3.537597656250000000e-01,1.690063476562500000e-01,7.931518554687500000e-01,4.659423828125000000e-01
-5.000000000000000000e+00,-7.000000000000000000e+00,4.000000000000000000e+00,-1.000000000000000000e+00,0.000000000000000000e+00,0.000000000000000000e+00,2.000000000000000000e+00,-1.000000000000000000e+00,-3.537597656250000000e-01,1.690063476562500000e-01,7.931518554687500000e-01,4.659423828125000000e-01
-1.000000000000000000e+00,-3.000000000000000000e+00,5.000000000000000000e+00,9.000000000000000000e+00,-2.000000000000000000e+00,1.000000000000000000e+00,-8.000000000000000000e+00,-4.000000000000000000e+00,-3.537597656250000000e-01,1.690063476562500000e-01,7.931518554687500000e-01,4.659423828125000000e-01
6.000000000000000000e+00,4.000000000000000000e+00,6.000000000000000000e+00,4.000000000000000000e+00,0.000000000000000000e+00,3.000000000000000000e+00,5.000000000000000000e+00,1.000000000000000000e+01,-3.537597656250000000e-01,1.690063476562500000e-01,7.931518554687500000e-01,4.659423828125000000e-01
1.000000000000000000e+00,8.000000000000000000e+00,1.200000000000000000e+01,1.000000000000000000e+00,2.000000000000000000e+00,-6.000000000000000000e+00,-4.000000000000000000e+00,-2.000000000000000000e+00,-3.549804687500000000e-01,1.683959960937500000e-01,7.930908203125000000e-01,4.653930664062500000e-01
-3.000000000000000000e+00,-4.000000000000000000e+00,-1.400000000000000000e+01,-8.000000000000000000e+00,-1.000000000000000000e+00,0.000000000000000000e+00,1.000000000000000000e+00,-5.000000000000000000e+00,-3.549804687500000000e-01,1.683959960937500000e-01,7.930908203125000000e-01,4.653930664062500000e-01
-5.000000000000000000e+00,-2.000000000000000000e+00,9.000000000000000000e+00,0.000000000000000000e+00,-3.000000000000000000e+00,1.000000000000000000e+00,-1.000000000000000000e+00,1.000000000000000000e+00,-3.549804687500000000e-01,1.683959960937500000e-01,7.930908203125000000e-01,4.653930664062500000e-01
-8.000000000000000000e+00,-3.000000000000000000e+00,7.000000000000000000e+00,5.000000000000000000e+00,3.000000000000000000e+00,1.000000000000000000e+00,3.000000000000000000e+00,-5.000000000000000000e+00,-3.549804687500000000e-01,1.683959960937500000e-01,7.930908203125000000e-01,4.653930664062500000e-01
0.000000000000000000e+00,3.000000000000000000e+00,1.000000000000000000e+00,-2.200000000000000000e+01,-1.100000000000000000e+01,-9.000000000000000000e+00,-9.000000000000000000e+00,8.000000000000000000e+00,-3.562011718750000000e-01,1.672973632812500000e-01,7.929687500000000000e-01,4.650268554687500000e-01
2.100000000000000000e+01,0.000000000000000000e+00,-8.000000000000000000e+00,6.000000000000000000e+00,1.000000000000000000e+00,0.000000000000000000e+00,5.000000000000000000e+00,2.000000000000000000e+00,-3.562011718750000000e-01,1.672973632812500000e-01,7.929687500000000000e-01,4.650268554687500000e-01
-1.000000000000000000e+00,-1.000000000000000000e+00,9.000000000000000000e+00,5.000000000000000000e+00,2.000000000000000000e+00,0.000000000000000000e+00,-8.000000000000000000e+00,-4.000000000000000000e+00,-3.562011718750000000e-01,1.672973632812500000e-01,7.929687500000000000e-01,4.650268554687500000e-01
-5.000000000000000000e+00,-1.000000000000000000e+00,-3.000000000000000000e+00,-1.000000000000000000e+00,-2.000000000000000000e+00,-1.000000000000000000e+00,0.000000000000000000e+00,1.000000000000000000e+00,-3.562011718750000000e-01,1.672973632812500000e-01,7.929687500000000000e-01,4.650268554687500000e-01
-5.000000000000000000e+00,-3.000000000000000000e+00,5.000000000000000000e+00,8.000000000000000000e+00,2.000000000000000000e+00,1.000000000000000000e+00,3.000000000000000000e+00,-6.000000000000000000e+00,-3.572998046875000000e-01,1.663208007812500000e-01,7.928466796875000000e-01,4.647216796875000000e-01
-1.000000000000000000e+00,4.000000000000000000e+00,1.000000000000000000e+00,-5.000000000000000000e+00,0.000000000000000000e+00,0.000000000000000000e+00,1.000000000000000000e+00,3.000000000000000000e+00,-3.572998046875000000e-01,1.663208007812500000e-01,7.928466796875000000e-01,4.647216796875000000e-01
1.000000000000000000e+00,1.000000000000000000e+00,0.000000000000000000e+00,-1.000000000000000000e+01,-6.000000000000000000e+00,-8.000000000000000000e+00,-6.000000000000000000e+00,-2.000000000000000000e+00,-3.572998046875000000e-01,1.663208007812500000e-01,7.928466796875000000e-01,4.647216796875000000e-01
-3.000000000000000000e+00,-9.000000000000000000e+00,-1.100000000000000000e+01,4.000000000000000000e+00,0.000000000000000000e+00,0.000000000000000000e+00,-1.400000000000000000e+01,1.000000000000000000e+00,-3.572998046875000000e-01,1.663208007812500000e-01,7.928466796875000000e-01,4.647216796875000000e-01
-1.100000000000000000e+01,2.000000000000000000e+00,1.400000000000000000e+01,1.900000000000000000e+01,7.000000000000000000e+00,3.000000000000000000e+00,2.300000000000000000e+01,-2.900000000000000000e+01,-3.580322265625000000e-01,1.657104492187500000e-01,7.925415039062500000e-01,4.648437500000000000e-01
1.400000000000000000e+01,-3.000000000000000000e+00,-4.000000000000000000e+01,-2.900000000000000000e+01,-7.000000000000000000e+00,7.000000000000000000e+00,2.000000000000000000e+00,1.900000000000000000e+01,-3.580322265625000000e-01,1.657104492187500000e-01,7.925415039062500000e-01,4.648437500000000000e-01
-1.000000000000000000e+00,-3.000000000000000000e+00,8.000000000000000000e+00,4.000000000000000000e+00,2.000000000000000000e+00,-1.000000000000000000e+00,-6.000000000000000000e+00,-5.000000000000000000e+00,-3.580322265625000000e-01,1.657104492187500000e-01,7.925415039062500000e-01,4.648437500000000000e-01
-6.000000000000000000e+00,-4.000000000000000000e+00,-1.600000000000000000e+01,-7.000000000000000000e+00,-4.000000000000000000e+00,-2.000000000000000000e+00,-1.000000000000000000e+00,3.000000000000000000e+00,-3.580322265625000000e-01,1.657104492187500000e-01,7.925415039062500000e-01,4.648437500000000000e-01
3.000000000000000000e+00,6.000000000000000000e+00,7.000000000000000000e+00,-5.000000000000000000e+00,-1.000000000000000000e+00,1.000000000000000000e+00,-1.200000000000000000e+01,2.000000000000000000e+00,-3.585815429687500000e-01,1.657104492187500000e-01,7.921752929687500000e-01,4.650878906250000000e-01
-7.000000000000000000e+00,4.000000000000000000e+00,8.000000000000000000e+00,1.000000000000000000e+01,2.000000000000000000e+00,-3.000000000000000000e+00,1.000000000000000000e+00,-1.100000000000000000e+01,-3.585815429687500000e-01,1.657104492187500000e-01,7.921752929687500000e-01,4.650878906250000000e-01
-5.000000000000000000e+00,-4.000000000000000000e+00,-5.000000000000000000e+00,-3.000000000000000000e+00,0.000000000000000000e+00,-1.000000000000000000e+00,3.000000000000000000e+00,3.000000000000000000e+00,-3.585815429687500000e-01,1.657104492187500000e-01,7.921752929687500000e-01,4.650878906250000000e-01
3.000000000000000000e+00,0.000000000000000000e+00,-1.000000000000000000e+00,4.000000000000000000e+00,-2.000000000000000000e+00,1.000000000000000000e+00,-1.000000000000000000e+00,0.000000000000000000e+00,-3.585815429687500000e-01,1.657104492187500000e-01,7.921752929687500000e-01,4.650878906250000000e-01
3.000000000000000000e+00,0.000000000000000000e+00,7.000000000000000000e+00,-1.000000000000000000e+00,1.000000000000000000e+00,0.000000000000000000e+00,-2.000000000000000000e+00,9.000000000000000000e+00,-3.589477539062500000e-01,1.658935546875000000e-01,7.918701171875000000e-01,4.652709960937500000e-01
-4.000000000000000000e+00,-4.000000000000000000e+00,-5.000000000000000000e+00,-2.000000000000000000e+00,-2.000000000000000000e+00,-2.000000000000000000e+00,1.000000000000000000e+00,-1.000000000000000000e+01,-3.589477539062500000e-01,1.658935546875000000e-01,7.918701171875000000e-01,4.652709960937500000e-01
1.000000000000000000e+00,0.000000000000000000e+00,9.000000000000000000e+00,-3.000000000000000000e+00,-2.000000000000000000e+00,2.000000000000000000e+00,-5.000000000000000000e+00,3.000000000000000000e+00,-3.589477539062500000e-01,1.658935546875000000e-01,7.918701171875000000e-01,4.652709960937500000e-01
-3.000000000000000000e+00,-4.000000000000000000e+00,0.000000000000000000e+00,-3.000000000000000000e+00,-2.000000000000000000e+00,-3.000000000000000000e+00,-1.000000000000000000e+00,-3.000000000000000000e+00,-3.589477539062500000e-01,1.658935546875000000e-01,7.918701171875000000e-01,4.652709960937500000e-01
-2.000000000000000000e+00,-2.000000000000000000e+00,-5.000000000000000000e+00,-1.000000000000000000e+00,-1.000000000000000000e+00,0.000000000000000000e+00,-4.000000000000000000e+00,5.000000000000000000e+00,-3.594360351562500000e-01,1.655273437500000000e-01,7.916870117187500000e-01,4.653930664062500000e-01
-7.000000000000000000e+00,4.000000000000000000e+00,2.200000000000000000e+01,2.000000000000000000e+00,3.000000000000000000e+00,-3.000000000000000000e+00,-6.000000000000000000e+00,-2.000000000000000000e+00,-3.594360351562500000e-01,1.655273437500000000e-01,7.916870117187500000e-01,4.653930664062500000e-01
0.000000000000000000e+00,-8.000000000000000000e+00,-4.200000000000000000e+01,-1.700000000000000000e+01,-2.000000000000000000e+00,3.000000000000000000e+00,3.000000000000000000e+00,-3.000000000000000000e+00,-3.594360351562500000e-01,1.655273437500000000e-01,7.916870117187500000e-01,4.653930664062500000e-01
0.000000000000000000e+00,0.000000000000000000e+00,1.300000000000000000e+01,-2.000000000000000000e+00,-2.000000000000000000e+00,-2.000000000000000000e+00,1.000000000000000000e+00,5.000000000000000000e+00,-3.594360351562500000e-01,1.655273437500000000e-01,7.916870117187500000e-01,4.653930664062500000e-01
-3.000000000000000000e+00,1.000000000000000000e+00,-4.000000000000000000e+00,3.000000000000000000e+00,-3.000000000000000000e+00,0.000000000000000000e+00,0.000000000000000000e+00,-4.000000000000000000e+00,-3.598022460937500000e-01,1.648559570312500000e-01,7.916870117187500000e-01,4.653320312500000000e-01
-2.000000000000000000e+00,-4.000000000000000000e+00,4.000000000000000000e+00,-2.000000000000000000e+00,-3.000000000000000000e+00,-3.000000000000000000e+00,-1.000000000000000000e+00,7.000000000000000000e+00,-3.598022460937500000e-01,1.648559570312500000e-01,7.916870117187500000e-01,4.653320312500000000e-01
3.000000000000000000e+00,8.000000000000000000e+00,1.900000000000000000e+01,-1.000000000000000000e+00,-1.000000000000000000e+00,-3.000000000000000000e+00,-2.000000000000000000e+00,-6.000000000000000000e+00,-3.598022460937500000e-01,1.648559570312500000e-01,7.916870117187500000e-01,4.653320312500000000e-01
1.000000000000000000e+00,-5.000000000000000000e+00,-7.000000000000000000e+00,-3.000000000000000000e+00,1.000000000000000000e+00,-2.000000000000000000e+00,0.000000000000000000e+00,2.000000000000000000e+00,-3.598022460937500000e-01,1.648559570312500000e-01,7.916870117187500000e-01,4.653320312500000000e-01
3.000000000000000000e+00,0.000000000000000000e+00,-3.000000000000000000e+00,-8.000000000000000000e+00,-3.000000000000000000e+00,-1.000000000000000000e+00,-4.000000000000000000e+00,4.000000000000000000e+00,-3.598632812500000000e-01,1.641845703125000000e-01,7.918701171875000000e-01,4.652709960937500000e-01
-3.000000000000000000e+00,6.000000000000000000e+00,8.000000000000000000e+00,8.000000000000000000e+00,0.000000000000000000e+00,-7.000000000000000000e+00,-3.000000000000000000e+00,-5.000000000000000000e+00,-3.598632812500000000e-01,1.641845703125000000e-01,7.918701171875000000e-01,4.652709960937500000e-01
-8.000000000000000000e+00,-1.200000000000000000e+01,-2.500000000000000000e+01,-3.000000000000000000e+00,-2.000000000000000000e+00,-1.000000000000000000e+00,-1.000000000000000000e+00,-3.000000000000000000e+00,-3.598632812500000000e-01,1.641845703125000000e-01,7.918701171875000000e-01,4.652709960937500000e-01
4.000000000000000000e+00,0.000000000000000000e+00,-2.000000000000000000e+00,-1.300000000000000000e+01,-6.000000000000000000e+00,2.000000000000000000e+00,7.000000000000000000e+00,-3.000000000000000000e+00,-3.598632812500000000e-01,1.641845703125000000e-01,7.918701171875000000e-01,4.652709960937500000e-01
-2.000000000000000000e+00,0.000000000000000000e+00,4.000000000000000000e+00,6.000000000000000000e+00,-1.000000000000000000e+00,-1.000000000000000000e+00,-4.000000000000000000e+00,6.000000000000000000e+00,-3.596191406250000000e-01,1.632080078125000000e-01,7.921142578125000000e-01,4.652709960937500000e-01
4.000000000000000000e+00,-5.000000000000000000e+00,-6.000000000000000000e+00,-8.000000000000000000e+00,-3.000000000000000000e+00,-1.000000000000000000e+00,8.000000000000000000e+00,-4.000000000000000000e+00,-3.596191406250000000e-01,1.632080078125000000e-01,7.921142578125000000e-01,4.652709960937500000e-01
3.000000000000000000e+00,6.000000000000000000e+00,3.000000000000000000e+00,3.000000000000000000e+00,-2.000000000000000000e+00,-3.000000000000000000e+00,-1.400000000000000000e+01,-1.000000000000000000e+00,-3.596191406250000000e-01,1.632080078125000000e-01,7.921142578125000000e-01,4.652709960937500000e-01
-6.000000000000000000e+00,-8.000000000000000000e+00,-6.000000000000000000e+00,1.700000000000000000e+01,2.000000000000000000e+00,-4.000000000000000000e+00,-1.000000000000000000e+01,-7.000000000000000000e+00,-3.596191406250000000e-01,1.632080078125000000e-01,7.921142578125000000e-01,4.652709960937500000e-01
