-1.500000000000000000e+01,-1.400000000000000000e+01,-5.000000000000000000e+00,-7.000000000000000000e+00,0.000000000000000000e+00,-1.000000000000000000e+00,-4.000000000000000000e+00,-1.000000000000000000e+00,-3.769531250000000000e-01,2.921142578125000000e-01,7.177734375000000000e-01,5.072631835937500000e-01
1.700000000000000000e+01,1.300000000000000000e+01,1.500000000000000000e+01,7.000000000000000000e+00,1.000000000000000000e+00,1.000000000000000000e+00,5.000000000000000000e+00,1.000000000000000000e+00,-3.769531250000000000e-01,2.921142578125000000e-01,7.177734375000000000e-01,5.072631835937500000e-01
-3.700000000000000000e+01,8.000000000000000000e+00,-3.300000000000000000e+01,-7.000000000000000000e+00,-2.000000000000000000e+00,-8.000000000000000000e+00,-1.000000000000000000e+01,-5.000000000000000000e+00,-3.753051757812500000e-01,2.902221679687500000e-01,7.190551757812500000e-01,5.077514648437500000e-01
1.700000000000000000e+01,-1.000000000000000000e+00,3.000000000000000000e+00,-4.000000000000000000e+00,-2.000000000000000000e+00,-3.000000000000000000e+00,1.000000000000000000e+00,5.000000000000000000e+00,-3.753051757812500000e-01,2.902221679687500000e-01,7.190551757812500000e-01,5.077514648437500000e-01
-1.400000000000000000e+01,-4.700000000000000000e+01,1.400000000000000000e+01,-7.000000000000000000e+00,-4.000000000000000000e+00,6.000000000000000000e+00,-2.000000000000000000e+00,-7.000000000000000000e+00,-3.753051757812500000e-01,2.902221679687500000e-01,7.190551757812500000e-01,5.077514648437500000e-01
1.000000000000000000e+00,-4.000000000000000000e+00,-2.900000000000000000e+01,7.000000000000000000e+00,2.000000000000000000e+00,-1.000000000000000000e+00,1.000000000000000000e+00,-3.000000000000000000e+00,-3.753051757812500000e-01,2.902221679687500000e-01,7.190551757812500000e-01,5.077514648437500000e-01
3.000000000000000000e+00,1.000000000000000000e+00,1.000000000000000000e+01,3.000000000000000000e+00,0.000000000000000000e+00,-5.000000000000000000e+00,-5.000000000000000000e+00,-3.000000000000000000e+00,-3.758544921875000000e-01,2.853393554687500000e-01,7.205810546875000000e-01,5.079345703125000000e-01
-9.000000000000000000e+00,-1.000000000000000000e+00,-3.000000000000000000e+00,-1.000000000000000000e+00,-2.000000000000000000e+00,1.000000000000000000e+00,-1.000000000000000000e+00,-1.000000000000000000e+00,-3.758544921875000000e-01,2.853393554687500000e-01,7.205810546875000000e-01,5.079345703125000000e-01
7.000000000000000000e+00,2.800000000000000000e+01,2.000000000000000000e+00,0.000000000000000000e+00,4.000000000000000000e+00,1.000000000000000000e+00,5.000000000000000000e+00,8.000000000000000000e+00,-3.758544921875000000e-01,2.853393554687500000e-01,7.205810546875000000e-01,5.079345703125000000e-01
1.000000000000000000e+00,1.600000000000000000e+01,8.000000000000000000e+00,-7.000000000000000000e+00,-3.000000000000000000e+00,2.000000000000000000e+00,-1.000000000000000000e+00,-1.300000000000000000e+01,-3.758544921875000000e-01,2.853393554687500000e-01,7.205810546875000000e-01,5.079345703125000000e-01
-3.000000000000000000e+00,-2.100000000000000000e+01,-9.000000000000000000e+00,-3.000000000000000000e+00,-1.000000000000000000e+00,-1.000000000000000000e+00,-1.000000000000000000e+00,-3.000000000000000000e+00,-3.766479492187500000e-01,2.813720703125000000e-01,7.210693359375000000e-01,5.088500976562500000e-01
-7.000000000000000000e+00,3.000000000000000000e+00,-1.700000000000000000e+01,-1.000000000000000000e+00,-2.000000000000000000e+00,0.000000000000000000e+00,-2.000000000000000000e+00,-1.200000000000000000e+01,-3.766479492187500000e-01,2.813720703125000000e-01,7.210693359375000000e-01,5.088500976562500000e-01
-8.000000000000000000e+00,-5.000000000000000000e+00,5.000000000000000000e+00,0.000000000000000000e+00,-6.000000000000000000e+00,-9.000000000000000000e+00,-2.000000000000000000e+01,-1.000000000000000000e+00,-3.766479492187500000e-01,2.813720703125000000e-01,7.210693359375000000e-01,5.088500976562500000e-01
9.000000000000000000e+00,6.000000000000000000e+00,6.000000000000000000e+00,2.000000000000000000e+00,1.000000000000000000e+00,1.000000000000000000e+00,5.000000000000000000e+00,8.000000000000000000e+00,-3.766479492187500000e-01,2.813720703125000000e-01,7.210693359375000000e-01,5.088500976562500000e-01
1.000000000000000000e+01,-1.100000000000000000e+01,9.000000000000000000e+00,-1.000000000000000000e+01,-3.000000000000000000e+00,-3.000000000000000000e+00,-4.000000000000000000e+00,-1.000000000000000000e+00,-3.763427734375000000e-01,2.796630859375000000e-01,7.203369140625000000e-01,5.111083984375000000e-01
1.900000000000000000e+01,1.000000000000000000e+00,-2.000000000000000000e+00,-2.000000000000000000e+00,-2.000000000000000000e+00,-1.400000000000000000e+01,-3.000000000000000000e+00,4.000000000000000000e+00,-3.763427734375000000e-01,2.796630859375000000e-01,7.203369140625000000e-01,5.111083984375000000e-01
-2.200000000000000000e+01,4.000000000000000000e+00,-5.000000000000000000e+00,5.000000000000000000e+00,1.100000000000000000e+01,3.100000000000000000e+01,1.400000000000000000e+01,-5.000000000000000000e+00,-3.763427734375000000e-01,2.796630859375000000e-01,7.203369140625000000e-01,5.111083984375000000e-01
-4.000000000000000000e+00,2.000000000000000000e+00,-2.000000000000000000e+00,-1.200000000000000000e+01,-7.000000000000000000e+00,-8.000000000000000000e+00,-4.000000000000000000e+00,5.000000000000000000e+00,-3.763427734375000000e-01,2.796630859375000000e-01,7.203369140625000000e-01,5.111083984375000000e-01
-1.700000000000000000e+01,1.100000000000000000e+01,-2.000000000000000000e+00,2.200000000000000000e+01,7.000000000000000000e+00,0.000000000000000000e+00,1.400000000000000000e+01,-1.000000000000000000e+00,-3.751220703125000000e-01,2.791748046875000000e-01,7.186889648437500000e-01,5.145874023437500000e-01
3.000000000000000000e+01,-1.500000000000000000e+01,1.100000000000000000e+01,-5.000000000000000000e+00,-2.000000000000000000e+00,2.000000000000000000e+00,3.000000000000000000e+00,6.000000000000000000e+00,-3.751220703125000000e-01,2.791748046875000000e-01,7.186889648437500000e-01,5.145874023437500000e-01
-1.400000000000000000e+01,0.000000000000000000e+00,-1.200000000000000000e+01,-6.000000000000000000e+00,-7.000000000000000000e+00,-1.600000000000000000e+01,2.000000000000000000e+00,1.000000000000000000e+00,-3.751220703125000000e-01,2.791748046875000000e-01,7.186889648437500000e-01,5.145874023437500000e-01
1.100000000000000000e+01,0.000000000000000000e+00,-6.000000000000000000e+00,-1.000000000000000000e+01,3.000000000000000000e+00,6.000000000000000000e+00,0.000000000000000000e+00,5.000000000000000000e+00,-3.751220703125000000e-01,2.791748046875000000e-01,7.186889648437500000e-01,5.145874023437500000e-01
-4.000000000000000000e+00,-6.000000000000000000e+00,-1.000000000000000000e+00,5.000000000000000000e+00,-2.000000000000000000e+00,0.000000000000000000e+00,1.000000000000000000e+01,1.000000000000000000e+00,-3.737792968750000000e-01,2.789306640625000000e-01,7.167968750000000000e-01,5.182495117187500000e-01
-1.800000000000000000e+01,1.800000000000000000e+01,-9.000000000000000000e+00,-2.000000000000000000e+00,1.000000000000000000e+00,-3.000000000000000000e+00,-1.600000000000000000e+01,-6.000000000000000000e+00,-3.737792968750000000e-01,2.789306640625000000e-01,7.167968750000000000e-01,5.182495117187500000e-01
1.400000000000000000e+01,1.200000000000000000e+01,1.000000000000000000e+00,3.000000000000000000e+00,0.000000000000000000e+00,-2.000000000000000000e+00,5.000000000000000000e+00,3.000000000000000000e+00,-3.737792968750000000e-01,2.789306640625000000e-01,7.167968750000000000e-01,5.182495117187500000e-01
-8.000000000000000000e+00,-6.000000000000000000e+00,3.000000000000000000e+00,-9.000000000000000000e+00,-2.000000000000000000e+00,0.000000000000000000e+00,-1.000000000000000000e+00,0.000000000000000000e+00,-3.737792968750000000e-01,2.789306640625000000e-01,7.167968750000000000e-01,5.182495117187500000e-01
1.400000000000000000e+01,-2.000000000000000000e+00,6.000000000000000000e+00,1.000000000000000000e+00,-1.000000000000000000e+00,-6.000000000000000000e+00,-1.000000000000000000e+01,4.000000000000000000e+00,-3.731689453125000000e-01,2.778320312500000000e-01,7.161254882812500000e-01,5.202636718750000000e-01
-1.400000000000000000e+01,-6.000000000000000000e+00,0.000000000000000000e+00,-3.000000000000000000e+00,3.000000000000000000e+00,1.000000000000000000e+01,5.000000000000000000e+00,-5.000000000000000000e+00,-3.731689453125000000e-01,2.778320312500000000e-01,7.161254882812500000e-01,5.202636718750000000e-01
9.000000000000000000e+00,7.000000000000000000e+00,2.300000000000000000e+01,7.000000000000000000e+00,2.000000000000000000e+00,-6.000000000000000000e+00,-6.000000000000000000e+00,3.000000000000000000e+00,-3.731689453125000000e-01,2.778320312500000000e-01,7.161254882812500000e-01,5.202636718750000000e-01
-7.000000000000000000e+00,-1.500000000000000000e+01,-6.100000000000000000e+01,4.000000000000000000e+00,-3.000000000000000000e+00,2.000000000000000000e+00,-5.000000000000000000e+00,-4.000000000000000000e+00,-3.731689453125000000e-01,2.778320312500000000e-01,7.161254882812500000e-01,5.202636718750000000e-01
1.500000000000000000e+01,-3.000000000000000000e+00,2.000000000000000000e+00,-9.000000000000000000e+00,-6.000000000000000000e+00,0.000000000000000000e+00,-6.000000000000000000e+00,1.000000000000000000e+00,-3.727416992187500000e-01,2.774047851562500000e-01,7.163085937500000000e-01,5.205688476562500000e-01
-1.800000000000000000e+01,-8.000000000000000000e+00,0.000000000000000000e+00,4.000000000000000000e+00,-2.000000000000000000e+00,-1.000000000000000000e+00,-1.000000000000000000e+00,-2.000000000000000000e+00,-3.727416992187500000e-01,2.774047851562500000e-01,7.163085937500000000e-01,5.205688476562500000e-01
-1.000000000000000000e+00,-4.000000000000000000e+00,2.000000000000000000e+00,-1.400000000000000000e+01,1.000000000000000000e+00,-7.000000000000000000e+00,-1.000000000000000000e+00,2.000000000000000000e+00,-3.727416992187500000e-01,2.774047851562500000e-01,7.163085937500000000e-01,5.205688476562500000e-01
1.700000000000000000e+01,1.000000000000000000e+00,1.700000000000000000e+01,1.000000000000000000e+00,1.000000000000000000e+00,1.000000000000000000e+00,9.000000000000000000e+00,5.000000000000000000e+00,-3.727416992187500000e-01,2.774047851562500000e-01,7.163085937500000000e-01,5.205688476562500000e-01
1.200000000000000000e+01,1.000000000000000000e+00,0.000000000000000000e+00,0.000000000000000000e+00,-1.000000000000000000e+00,1.000000000000000000e+00,-1.000000000000000000e+00,-4.000000000000000000e+00,-3.731689453125000000e-01,2.752685546875000000e-01,7.167968750000000000e-01,5.206909179687500000e-01
-4.300000000000000000e+01,-1.400000000000000000e+01,-9.000000000000000000e+00,-5.000000000000000000e+00,-3.000000000000000000e+00,-7.000000000000000000e+00,-7.000000000000000000e+00,-1.100000000000000000e+01,-3.731689453125000000e-01,2.752685546875000000e-01,7.167968750000000000e-01,5.206909179687500000e-01
9.000000000000000000e+00,-1.000000000000000000e+00,-6.000000000000000000e+00,1.000000000000000000e+00,0.000000000000000000e+00,1.100000000000000000e+01,3.000000000000000000e+00,-1.000000000000000000e+00,-3.731689453125000000e-01,2.752685546875000000e-01,7.167968750000000000e-01,5.206909179687500000e-01
-6.000000000000000000e+00,9.000000000000000000e+00,1.800000000000000000e+01,0.000000000000000000e+00,-2.000000000000000000e+00,-9.000000000000000000e+00,-5.000000000000000000e+00,-8.000000000000000000e+00,-3.731689453125000000e-01,2.752685546875000000e-01,7.167968750000000000e-01,5.206909179687500000e-01
8.000000000000000000e+00,-5.000000000000000000e+00,-2.000000000000000000e+00,-1.300000000000000000e+01,-4.000000000000000000e+00,-8.000000000000000000e+00,-4.000000000000000000e+00,6.000000000000000000e+00,-3.732910156250000000e-01,2.723388671875000000e-01,7.169189453125000000e-01,5.219726562500000000e-01
4.000000000000000000e+00,-2.000000000000000000e+00,4.000000000000000000e+00,1.800000000000000000e+01,5.000000000000000000e+00,2.400000000000000000e+01,3.000000000000000000e+01,2.000000000000000000e+00,-3.732910156250000000e-01,2.723388671875000000e-01,7.169189453125000000e-01,5.219726562500000000e-01
-6.000000000000000000e+00,1.000000000000000000e+00,-7.000000000000000000e+00,0.000000000000000000e+00,3.000000000000000000e+00,8.000000000000000000e+00,-1.100000000000000000e+01,9.000000000000000000e+00,-3.732910156250000000e-01,2.723388671875000000e-01,7.169189453125000000e-01,5.219726562500000000e-01
-4.300000000000000000e+01,8.000000000000000000e+00,7.000000000000000000e+00,2.000000000000000000e+00,1.000000000000000000e+00,-3.000000000000000000e+00,-8.000000000000000000e+00,-8.000000000000000000e+00,-3.732910156250000000e-01,2.723388671875000000e-01,7.169189453125000000e-01,5.219726562500000000e-01
1.200000000000000000e+01,1.000000000000000000e+00,1.900000000000000000e+01,-4.000000000000000000e+00,1.000000000000000000e+00,4.000000000000000000e+00,1.000000000000000000e+00,5.000000000000000000e+00,-3.732299804687500000e-01,2.695312500000000000e-01,7.165527343750000000e-01,5.239257812500000000e-01
8.200000000000000000e+01,-2.100000000000000000e+01,0.000000000000000000e+00,0.000000000000000000e+00,-4.000000000000000000e+00,-1.200000000000000000e+01,4.000000000000000000e+00,1.200000000000000000e+01,-3.732299804687500000e-01,2.695312500000000000e-01,7.165527343750000000e-01,5.239257812500000000e-01
-8.000000000000000000e+00,-3.300000000000000000e+01,-7.000000000000000000e+00,-7.000000000000000000e+00,-1.000000000000000000e+01,1.000000000000000000e+00,-2.000000000000000000e+00,-9.000000000000000000e+00,-3.732299804687500000e-01,2.695312500000000000e-01,7.165527343750000000e-01,5.239257812500000000e-01
1.000000000000000000e+00,7.000000000000000000e+00,1.000000000000000000e+00,4.000000000000000000e+00,2.000000000000000000e+00,3.000000000000000000e+00,-7.000000000000000000e+00,4.000000000000000000e+00,-3.732299804687500000e-01,2.695312500000000000e-01,7.165527343750000000e-01,5.239257812500000000e-01
-3.100000000000000000e+01,-1.000000000000000000e+00,-1.000000000000000000e+00,1.000000000000000000e+00,0.000000000000000000e+00,-5.000000000000000000e+00,-1.000000000000000000e+00,-7.000000000000000000e+00,-3.730468750000000000e-01,2.686157226562500000e-01,7.159423828125000000e-01,5.253906250000000000e-01
-4.500000000000000000e+01,-1.000000000000000000e+00,-1.800000000000000000e+01,-3.000000000000000000e+00,-1.000000000000000000e+00,1.000000000000000000e+00,-7.000000000000000000e+00,-9.000000000000000000e+00,-3.730468750000000000e-01,2.686157226562500000e-01,7.159423828125000000e-01,5.253906250000000000e-01
1.000000000000000000e+01,1.900000000000000000e+01,3.000000000000000000e+00,1.000000000000000000e+00,0.000000000000000000e+00,-6.000000000000000000e+00,3.000000000000000000e+00,4.000000000000000000e+00,-3.730468750000000000e-01,2.686157226562500000e-01,7.159423828125000000e-01,5.253906250000000000e-01
2.400000000000000000e+01,-6.000000000000000000e+00,1.600000000000000000e+01,-1.000000000000000000e+00,-1.000000000000000000e+00,-2.000000000000000000e+00,-4.000000000000000000e+00,1.000000000000000000e+00,-3.730468750000000000e-01,2.686157226562500000e-01,7.159423828125000000e-01,5.253906250000000000e-01
-1.500000000000000000e+01,-5.000000000000000000e+00,-3.000000000000000000e+01,-7.000000000000000000e+00,-1.000000000000000000e+00,4.000000000000000000e+00,1.000000000000000000e+00,-3.000000000000000000e+00,-3.721313476562500000e-01,2.689819335937500000e-01,7.155761718750000000e-01,5.263061523437500000e-01
7.000000000000000000e+00,7.000000000000000000e+00,1.400000000000000000e+01,-2.000000000000000000e+00,-3.000000000000000000e+00,-6.000000000000000000e+00,-9.000000000000000000e+00,-3.000000000000000000e+00,-3.721313476562500000e-01,2.689819335937500000e-01,7.155761718750000000e-01,5.263061523437500000e-01
1.100000000000000000e+01,1.100000000000000000e+01,4.000000000000000000e+00,7.000000000000000000e+00,2.000000000000000000e+00,5.000000000000000000e+00,5.000000000000000000e+00,2.000000000000000000e+00,-3.721313476562500000e-01,2.689819335937500000e-01,7.155761718750000000e-01,5.263061523437500000e-01
-9.000000000000000000e+00,1.000000000000000000e+00,1.200000000000000000e+01,1.000000000000000000e+00,-2.000000000000000000e+00,-2.000000000000000000e+00,6.000000000000000000e+00,-2.000000000000000000e+00,-3.721313476562500000e-01,2.689819335937500000e-01,7.155761718750000000e-01,5.263061523437500000e-01
1.000000000000000000e+01,1.000000000000000000e+01,1.000000000000000000e+00,-2.000000000000000000e+00,2.000000000000000000e+00,-3.000000000000000000e+00,-2.000000000000000000e+00,-2.000000000000000000e+00,-3.716430664062500000e-01,2.695312500000000000e-01,7.156982421875000000e-01,5.262451171875000000e-01
-2.500000000000000000e+01,-4.300000000000000000e+01,-2.000000000000000000e+00,-3.000000000000000000e+00,-4.000000000000000000e+00,-4.000000000000000000e+00,-3.000000000000000000e+00,-1.000000000000000000e+00,-3.716430664062500000e-01,2.695312500000000000e-01,7.156982421875000000e-01,5.262451171875000000e-01
1.100000000000000000e+01,2.600000000000000000e+01,5.000000000000000000e+00,4.000000000000000000e+00,2.000000000000000000e+00,5.000000000000000000e+00,-2.000000000000000000e+00,-2.000000000000000000e+00,-3.716430664062500000e-01,2.695312500000000000e-01,7.156982421875000000e-01,5.262451171875000000e-01
1.200000000000000000e+01,1.200000000000000000e+01,0.000000000000000000e+00,-1.400000000000000000e+01,-4.000000000000000000e+00,-4.000000000000000000e+00,0.000000000000000000e+00,-2.000000000000000000e+00,-3.716430664062500000e-01,2.695312500000000000e-01,7.156982421875000000e-01,5.262451171875000000e-01
0.000000000000000000e+00,-4.300000000000000000e+01,-1.000000000000000000e+01,-1.000000000000000000e+00,-4.000000000000000000e+00,3.000000000000000000e+00,-1.000000000000000000e+00,0.000000000000000000e+00,-3.722534179687500000e-01,2.689819335937500000e-01,7.158813476562500000e-01,5.258789062500000000e-01
1.200000000000000000e+01,2.100000000000000000e+01,3.000000000000000000e+00,-6.000000000000000000e+00,-2.000000000000000000e+00,-5.000000000000000000e+00,-7.000000000000000000e+00,-1.000000000000000000e+00,-3.722534179687500000e-01,2.689819335937500000e-01,7.158813476562500000e-01,5.258789062500000000e-01
-3.500000000000000000e+01,-2.600000000000000000e+01,-1.500000000000000000e+01,1.000000000000000000e+00,-1.000000000000000000e+00,-1.000000000000000000e+00,2.000000000000000000e+00,-5.000000000000000000e+00,-3.728637695312500000e-01,2.683105468750000000e-01,7.155151367187500000e-01,5.262451171875000000e-01
1.400000000000000000e+01,1.200000000000000000e+01,5.000000000000000000e+00,7.000000000000000000e+00,2.000000000000000000e+00,-9.000000000000000000e+00,1.200000000000000000e+01,3.000000000000000000e+00,-3.728637695312500000e-01,2.683105468750000000e-01,7.155151367187500000e-01,5.262451171875000000e-01
1.000000000000000000e+01,1.000000000000000000e+01,-5.000000000000000000e+00,-3.000000000000000000e+00,4.000000000000000000e+00,5.000000000000000000e+00,0.000000000000000000e+00,2.000000000000000000e+00,-3.728637695312500000e-01,2.683105468750000000e-01,7.155151367187500000e-01,5.262451171875000000e-01
-1.600000000000000000e+01,3.000000000000000000e+00,1.100000000000000000e+01,-1.100000000000000000e+01,-7.000000000000000000e+00,-3.000000000000000000e+00,-1.000000000000000000e+00,-7.000000000000000000e+00,-3.728637695312500000e-01,2.683105468750000000e-01,7.155151367187500000e-01,5.262451171875000000e-01
1.800000000000000000e+01,8.000000000000000000e+00,-4.000000000000000000e+00,7.000000000000000000e+00,0.000000000000000000e+00,-1.200000000000000000e+01,-9.000000000000000000e+00,1.000000000000000000e+00,-3.727416992187500000e-01,2.684326171875000000e-01,7.144165039062500000e-01,5.277709960937500000e-01
-8.000000000000000000e+00,-1.800000000000000000e+01,-2.000000000000000000e+00,3.000000000000000000e+00,-8.000000000000000000e+00,6.000000000000000000e+00,2.000000000000000000e+00,-3.000000000000000000e+00,-3.727416992187500000e-01,2.684326171875000000e-01,7.144165039062500000e-01,5.277709960937500000e-01
-2.200000000000000000e+01,-7.000000000000000000e+00,9.000000000000000000e+00,-3.000000000000000000e+00,0.000000000000000000e+00,-8.000000000000000000e+00,-6.000000000000000000e+00,-4.000000000000000000e+00,-3.727416992187500000e-01,2.684326171875000000e-01,7.144165039062500000e-01,5.277709960937500000e-01
-4.000000000000000000e+00,1.600000000000000000e+01,-1.000000000000000000e+00,7.000000000000000000e+00,0.000000000000000000e+00,-7.000000000000000000e+00,-7.000000000000000000e+00,-3.000000000000000000e+00,-3.727416992187500000e-01,2.684326171875000000e-01,7.144165039062500000e-01,5.277709960937500000e-01
2.900000000000000000e+01,2.700000000000000000e+01,-4.000000000000000000e+00,-1.000000000000000000e+00,-1.000000000000000000e+00,-2.000000000000000000e+00,1.300000000000000000e+01,8.000000000000000000e+00,-3.726196289062500000e-01,2.688598632812500000e-01,7.132568359375000000e-01,5.292358398437500000e-01
2.800000000000000000e+01,-8.000000000000000000e+00,3.000000000000000000e+00,-6.000000000000000000e+00,2.000000000000000000e+00,7.000000000000000000e+00,-1.000000000000000000e+01,8.000000000000000000e+00,-3.726196289062500000e-01,2.688598632812500000e-01,7.132568359375000000e-01,5.292358398437500000e-01
-4.200000000000000000e+01,-4.700000000000000000e+01,1.400000000000000000e+01,-1.000000000000000000e+00,-8.000000000000000000e+00,-5.000000000000000000e+00,-9.000000000000000000e+00,-1.300000000000000000e+01,-3.726196289062500000e-01,2.688598632812500000e-01,7.132568359375000000e-01,5.292358398437500000e-01
1.000000000000000000e+01,2.200000000000000000e+01,-3.000000000000000000e+00,3.000000000000000000e+00,0.000000000000000000e+00,7.000000000000000000e+00,-2.000000000000000000e+00,-2.000000000000000000e+00,-3.726196289062500000e-01,2.688598632812500000e-01,7.132568359375000000e-01,5.292358398437500000e-01
2.500000000000000000e+01,1.300000000000000000e+01,-1.400000000000000000e+01,4.000000000000000000e+00,-4.000000000000000000e+00,-9.000000000000000000e+00,-6.000000000000000000e+00,-3.000000000000000000e+00,-3.722534179687500000e-01,2.695312500000000000e-01,7.127685546875000000e-01,5.297851562500000000e-01
8.000000000000000000e+00,1.600000000000000000e+01,1.300000000000000000e+01,-1.300000000000000000e+01,1.000000000000000000e+00,3.000000000000000000e+00,-1.000000000000000000e+00,-2.000000000000000000e+00,-3.722534179687500000e-01,2.695312500000000000e-01,7.127685546875000000e-01,5.297851562500000000e-01
2.400000000000000000e+01,2.100000000000000000e+01,9.000000000000000000e+00,3.400000000000000000e+01,6.000000000000000000e+00,5.000000000000000000e+00,1.000000000000000000e+00,4.000000000000000000e+00,-3.722534179687500000e-01,2.695312500000000000e-01,7.127685546875000000e-01,5.297851562500000000e-01
-3.800000000000000000e+01,-2.700000000000000000e+01,-3.100000000000000000e+01,-4.000000000000000000e+00,-6.000000000000000000e+00,0.000000000000000000e+00,-7.000000000000000000e+00,-8.000000000000000000e+00,-3.722534179687500000e-01,2.695312500000000000e-01,7.127685546875000000e-01,5.297851562500000000e-01
-1.800000000000000000e+01,5.000000000000000000e+00,4.000000000000000000e+00,-7.000000000000000000e+00,-1.000000000000000000e+00,-4.000000000000000000e+00,-2.000000000000000000e+00,-4.000000000000000000e+00,-3.723144531250000000e-01,2.693481445312500000e-01,7.133178710937500000e-01,5.290527343750000000e-01
-1.300000000000000000e+01,-1.000000000000000000e+01,-3.000000000000000000e+01,-3.000000000000000000e+00,1.000000000000000000e+00,2.000000000000000000e+00,-1.000000000000000000e+00,1.000000000000000000e+00,-3.723144531250000000e-01,2.693481445312500000e-01,7.133178710937500000e-01,5.290527343750000000e-01
1.900000000000000000e+01,1.400000000000000000e+01,5.000000000000000000e+00,-1.100000000000000000e+01,-2.000000000000000000e+00,-1.000000000000000000e+00,2.000000000000000000e+00,3.000000000000000000e+00,-3.723144531250000000e-01,2.693481445312500000e-01,7.133178710937500000e-01,5.290527343750000000e-01
4.000000000000000000e+00,5.000000000000000000e+00,9.000000000000000000e+00,-1.000000000000000000e+00,0.000000000000000000e+00,-4.000000000000000000e+00,0.000000000000000000e+00,3.000000000000000000e+00,-3.723144531250000000e-01,2.693481445312500000e-01,7.133178710937500000e-01,5.290527343750000000e-01
-1.000000000000000000e+01,-1.400000000000000000e+01,-4.000000000000000000e+00,-4.000000000000000000e+00,-5.000000000000000000e+00,-8.000000000000000000e+00,1.000000000000000000e+00,-1.000000000000000000e+00,-3.726196289062500000e-01,2.685546875000000000e-01,7.142333984375000000e-01,5.280151367187500000e-01
-3.000000000000000000e+00,-1.800000000000000000e+01,-1.000000000000000000e+01,-1.000000000000000000e+00,1.000000000000000000e+00,8.000000000000000000e+00,-1.400000000000000000e+01,-8.000000000000000000e+00,-3.726196289062500000e-01,2.685546875000000000e-01,7.142333984375000000e-01,5.280151367187500000e-01
-3.000000000000000000e+00,6.000000000000000000e+00,-1.000000000000000000e+00,-7.000000000000000000e+00,-7.000000000000000000e+00,-3.000000000000000000e+00,-4.000000000000000000e+00,-2.000000000000000000e+00,-3.726196289062500000e-01,2.685546875000000000e-01,7.142333984375000000e-01,5.280151367187500000e-01
9.000000000000000000e+00,4.000000000000000000e+00,0.000000000000000000e+00,5.000000000000000000e+00,3.000000000000000000e+00,2.000000000000000000e+00,1.400000000000000000e+01,0.000000000000000000e+00,-3.726196289062500000e-01,2.685546875000000000e-01,7.142333984375000000e-01,5.280151367187500000e-01
-3.400000000000000000e+01,-1.100000000000000000e+01,-3.000000000000000000e+00,-4.000000000000000000e+00,-1.000000000000000000e+00,2.000000000000000000e+00,-1.600000000000000000e+01,-8.000000000000000000e+00,-3.725585937500000000e-01,2.686157226562500000e-01,7.147216796875000000e-01,5.274047851562500000e-01
2.100000000000000000e+01,4.000000000000000000e+00,2.000000000000000000e+00,6.000000000000000000e+00,2.000000000000000000e+00,-8.000000000000000000e+00,7.000000000000000000e+00,-1.000000000000000000e+00,-3.725585937500000000e-01,2.686157226562500000e-01,7.147216796875000000e-01,5.274047851562500000e-01
6.700000000000000000e+01,-5.000000000000000000e+00,2.000000000000000000e+00,-1.000000000000000000e+00,-2.000000000000000000e+00,4.000000000000000000e+00,6.000000000000000000e+00,2.100000000000000000e+01,-3.725585937500000000e-01,2.686157226562500000e-01,7.147216796875000000e-01,5.274047851562500000e-01
-2.000000000000000000e+01,3.000000000000000000e+00,-1.000000000000000000e+00,-5.000000000000000000e+00,-4.000000000000000000e+00,2.000000000000000000e+00,-1.300000000000000000e+01,-1.100000000000000000e+01,-3.725585937500000000e-01,2.686157226562500000e-01,7.147216796875000000e-01,5.274047851562500000e-01
-6.700000000000000000e+01,-2.000000000000000000e+00,3.000000000000000000e+00,-7.000000000000000000e+00,-4.000000000000000000e+00,-2.000000000000000000e+00,2.000000000000000000e+00,-7.000000000000000000e+00,-3.730468750000000000e-01,2.684936523437500000e-01,7.144775390625000000e-01,5.274658203125000000e-01
3.500000000000000000e+01,3.100000000000000000e+01,0.000000000000000000e+00,1.600000000000000000e+01,3.000000000000000000e+00,-9.000000000000000000e+00,-2.000000000000000000e+00,1.000000000000000000e+00,-3.730468750000000000e-01,2.684936523437500000e-01,7.144775390625000000e-01,5.274658203125000000e-01
-1.000000000000000000e+01,-4.000000000000000000e+01,1.000000000000000000e+00,-4.000000000000000000e+00,-3.000000000000000000e+00,1.000000000000000000e+01,3.000000000000000000e+00,2.000000000000000000e+00,-3.730468750000000000e-01,2.684936523437500000e-01,7.144775390625000000e-01,5.274658203125000000e-01
-3.100000000000000000e+01,-3.800000000000000000e+01,0.000000000000000000e+00,3.000000000000000000e+00,-3.000000000000000000e+00,-3.000000000000000000e+00,-9.000000000000000000e+00,-1.300000000000000000e+01,-3.730468750000000000e-01,2.684936523437500000e-01,7.144775390625000000e-01,5.274658203125000000e-01
7.000000000000000000e+00,-3.000000000000000000e+00,7.000000000000000000e+00,-7.000000000000000000e+00,-2.000000000000000000e+00,4.000000000000000000e+00,6.000000000000000000e+00,1.000000000000000000e+00,-3.729858398437500000e-01,2.690429687500000000e-01,7.139282226562500000e-01,5.279541015625000000e-01
-1.300000000000000000e+01,9.000000000000000000e+00,-1.000000000000000000e+00,0.000000000000000000e+00,-5.000000000000000000e+00,-7.000000000000000000e+00,-1.000000000000000000e+00,-1.000000000000000000e+00,-3.729858398437500000e-01,2.690429687500000000e-01,7.139282226562500000e-01,5.279541015625000000e-01
1.600000000000000000e+01,3.300000000000000000e+01,-3.000000000000000000e+00,2.000000000000000000e+00,1.000000000000000000e+00,-6.000000000000000000e+00,4.000000000000000000e+00,1.000000000000000000e+00,-3.729858398437500000e-01,2.690429687500000000e-01,7.139282226562500000e-01,5.279541015625000000e-01
9.000000000000000000e+00,3.000000000000000000e+00,8.000000000000000000e+00,-1.000000000000000000e+00,3.000000000000000000e+00,1.000000000000000000e+00,4.000000000000000000e+00,7.000000000000000000e+00,-3.729858398437500000e-01,2.690429687500000000e-01,7.139282226562500000e-01,5.279541015625000000e-01
-1.000000000000000000e+01,-2.200000000000000000e+01,1.100000000000000000e+01,-1.000000000000000000e+00,-3.000000000000000000e+00,-7.000000000000000000e+00,-4.000000000000000000e+00,-8.000000000000000000e+00,-3.726806640625000000e-01,2.703857421875000000e-01,7.131958007812500000e-01,5.285034179687500000e-01
-8.000000000000000000e+00,1.000000000000000000e+00,-1.000000000000000000e+00,3.000000000000000000e+00,3.000000000000000000e+00,2.000000000000000000e+00,-3.000000000000000000e+00,-3.000000000000000000e+00,-3.726806640625000000e-01,2.703857421875000000e-01,7.131958007812500000e-01,5.285034179687500000e-01
1.100000000000000000e+01,8.000000000000000000e+00,5.000000000000000000e+00,-4.000000000000000000e+00,-4.000000000000000000e+00,-3.000000000000000000e+00,-1.000000000000000000e+00,-1.000000000000000000e+00,-3.726806640625000000e-01,2.703857421875000000e-01,7.131958007812500000e-01,5.285034179687500000e-01
-1.500000000000000000e+01,-6.000000000000000000e+00,-6.000000000000000000e+00,-3.000000000000000000e+00,1.000000000000000000e+00,2.000000000000000000e+00,-1.000000000000000000e+00,-1.000000000000000000e+00,-3.726806640625000000e-01,2.703857421875000000e-01,7.131958007812500000e-01,5.285034179687500000e-01
3.300000000000000000e+01,1.600000000000000000e+01,-9.000000000000000000e+00,5.000000000000000000e+00,2.000000000000000000e+00,0.000000000000000000e+00,-3.000000000000000000e+00,0.000000000000000000e+00,-3.722534179687500000e-01,2.719116210937500000e-01,7.122192382812500000e-01,5.292968750000000000e-01
-1.100000000000000000e+01,-4.100000000000000000e+01,-3.000000000000000000e+00,-1.000000000000000000e+01,-9.000000000000000000e+00,-8.000000000000000000e+00,2.000000000000000000e+00,-1.000000000000000000e+00,-3.722534179687500000e-01,2.719116210937500000e-01,7.122192382812500000e-01,5.292968750000000000e-01
-3.800000000000000000e+01,-1.000000000000000000e+00,4.000000000000000000e+00,1.000000000000000000e+00,4.000000000000000000e+00,2.000000000000000000e+00,-5.000000000000000000e+00,-1.200000000000000000e+01,-3.722534179687500000e-01,2.719116210937500000e-01,7.122192382812500000e-01,5.292968750000000000e-01
2.300000000000000000e+01,1.400000000000000000e+01,-5.000000000000000000e+00,1.000000000000000000e+00,0.000000000000000000e+00,-1.100000000000000000e+01,-9.000000000000000000e+00,5.000000000000000000e+00,-3.722534179687500000e-01,2.719116210937500000e-01,7.122192382812500000e-01,5.292968750000000000e-01
-9.000000000000000000e+00,-4.000000000000000000e+00,-1.700000000000000000e+01,-2.000000000000000000e+00,-2.000000000000000000e+00,1.200000000000000000e+01,2.500000000000000000e+01,-2.000000000000000000e+00,-3.715820312500000000e-01,2.726440429687500000e-01,7.113037109375000000e-01,5.306396484375000000e-01
-3.000000000000000000e+00,-2.500000000000000000e+01,9.000000000000000000e+00,7.000000000000000000e+00,0.000000000000000000e+00,1.000000000000000000e+00,-8.000000000000000000e+00,5.000000000000000000e+00,-3.715820312500000000e-01,2.726440429687500000e-01,7.113037109375000000e-01,5.306396484375000000e-01
1.800000000000000000e+01,-4.000000000000000000e+00,-5.000000000000000000e+00,-4.000000000000000000e+00,-1.000000000000000000e+00,-8.000000000000000000e+00,-1.000000000000000000e+00,2.000000000000000000e+00,-3.715820312500000000e-01,2.726440429687500000e-01,7.113037109375000000e-01,5.306396484375000000e-01
6.000000000000000000e+00,-2.000000000000000000e+00,-2.000000000000000000e+00,-1.200000000000000000e+01,-8.000000000000000000e+00,3.000000000000000000e+00,-1.300000000000000000e+01,-5.000000000000000000e+00,-3.715820312500000000e-01,2.726440429687500000e-01,7.113037109375000000e-01,5.306396484375000000e-01
3.100000000000000000e+01,1.000000000000000000e+00,-5.000000000000000000e+00,-2.000000000000000000e+00,2.000000000000000000e+00,-3.000000000000000000e+00,9.000000000000000000e+00,1.000000000000000000e+01,-3.715209960937500000e-01,2.719726562500000000e-01,7.110595703125000000e-01,5.313720703125000000e-01
-4.400000000000000000e+01,-2.000000000000000000e+00,7.000000000000000000e+00,2.000000000000000000e+00,3.000000000000000000e+00,7.000000000000000000e+00,2.000000000000000000e+00,-1.100000000000000000e+01,-3.715209960937500000e-01,2.719726562500000000e-01,7.110595703125000000e-01,5.313720703125000000e-01
-1.000000000000000000e+00,2.000000000000000000e+01,-9.000000000000000000e+00,-3.000000000000000000e+00,1.000000000000000000e+00,-3.000000000000000000e+00,-3.000000000000000000e+00,1.000000000000000000e+00,-3.715209960937500000e-01,2.719726562500000000e-01,7.110595703125000000e-01,5.313720703125000000e-01
5.000000000000000000e+00,-1.900000000000000000e+01,9.000000000000000000e+00,3.000000000000000000e+00,3.000000000000000000e+00,-5.000000000000000000e+00,7.000000000000000000e+00,2.000000000000000000e+00,-3.715209960937500000e-01,2.719726562500000000e-01,7.110595703125000000e-01,5.313720703125000000e-01
-3.000000000000000000e+00,-1.400000000000000000e+01,1.000000000000000000e+00,-3.000000000000000000e+00,0.000000000000000000e+00,0.000000000000000000e+00,-8.000000000000000000e+00,0.000000000000000000e+00,-3.723144531250000000e-01,2.706298828125000000e-01,7.108764648437500000e-01,5.317382812500000000e-01
4.000000000000000000e+00,1.800000000000000000e+01,-5.000000000000000000e+00,0.000000000000000000e+00,0.000000000000000000e+00,3.000000000000000000e+00,0.000000000000000000e+00,1.000000000000000000e+00,-3.723144531250000000e-01,2.706298828125000000e-01,7.108764648437500000e-01,5.317382812500000000e-01
-2.400000000000000000e+01,-1.800000000000000000e+01,-2.000000000000000000e+00,-6.000000000000000000e+00,-7.000000000000000000e+00,-7.000000000000000000e+00,-5.000000000000000000e+00,-1.200000000000000000e+01,-3.723144531250000000e-01,2.706298828125000000e-01,7.108764648437500000e-01,5.317382812500000000e-01
1.800000000000000000e+01,1.000000000000000000e+00,1.000000000000000000e+00,0.000000000000000000e+00,4.000000000000000000e+00,4.000000000000000000e+00,3.000000000000000000e+00,4.000000000000000000e+00,-3.723144531250000000e-01,2.706298828125000000e-01,7.108764648437500000e-01,5.317382812500000000e-01
-8.000000000000000000e+00,-9.000000000000000000e+00,1.100000000000000000e+01,-4.000000000000000000e+00,-7.000000000000000000e+00,-7.000000000000000000e+00,-1.300000000000000000e+01,-7.000000000000000000e+00,-3.721923828125000000e-01,2.713623046875000000e-01,7.098999023437500000e-01,5.327758789062500000e-01
-8.000000000000000000e+00,-2.000000000000000000e+00,-1.600000000000000000e+01,-1.000000000000000000e+00,-1.000000000000000000e+00,-4.000000000000000000e+00,5.000000000000000000e+00,-1.000000000000000000e+00,-3.721923828125000000e-01,2.713623046875000000e-01,7.098999023437500000e-01,5.327758789062500000e-01
-1.000000000000000000e+00,3.000000000000000000e+00,3.000000000000000000e+00,3.000000000000000000e+00,4.000000000000000000e+00,6.000000000000000000e+00,5.000000000000000000e+00,0.000000000000000000e+00,-3.721923828125000000e-01,2.713623046875000000e-01,7.098999023437500000e-01,5.327758789062500000e-01
-5.000000000000000000e+00,1.100000000000000000e+01,4.000000000000000000e+00,3.000000000000000000e+00,1.000000000000000000e+00,1.000000000000000000e+00,3.000000000000000000e+00,3.000000000000000000e+00,-3.721923828125000000e-01,2.713623046875000000e-01,7.098999023437500000e-01,5.327758789062500000e-01
-4.000000000000000000e+00,-1.400000000000000000e+01,-6.000000000000000000e+00,-2.000000000000000000e+00,-1.000000000000000000e+00,-6.000000000000000000e+00,-8.000000000000000000e+00,-3.000000000000000000e+00,-3.710937500000000000e-01,2.734375000000000000e-01,7.088012695312500000e-01,5.339355468750000000e-01
6.000000000000000000e+00,1.000000000000000000e+01,0.000000000000000000e+00,-1.000000000000000000e+01,-7.000000000000000000e+00,-3.000000000000000000e+00,2.000000000000000000e+00,-1.000000000000000000e+00,-3.710937500000000000e-01,2.734375000000000000e-01,7.088012695312500000e-01,5.339355468750000000e-01
-5.000000000000000000e+00,4.000000000000000000e+00,-3.000000000000000000e+00,1.100000000000000000e+01,1.000000000000000000e+00,-2.000000000000000000e+00,-5.000000000000000000e+00,-8.000000000000000000e+00,-3.710937500000000000e-01,2.734375000000000000e-01,7.088012695312500000e-01,5.339355468750000000e-01
-2.000000000000000000e+00,4.000000000000000000e+00,-9.000000000000000000e+00,-1.000000000000000000e+01,2.000000000000000000e+00,4.000000000000000000e+00,-2.000000000000000000e+00,-9.000000000000000000e+00,-3.710937500000000000e-01,2.734375000000000000e-01,7.088012695312500000e-01,5.339355468750000000e-01
1.200000000000000000e+01,1.100000000000000000e+01,3.000000000000000000e+00,4.000000000000000000e+00,4.000000000000000000e+00,0.000000000000000000e+00,0.000000000000000000e+00,2.800000000000000000e+01,-3.705444335937500000e-01,2.750244140625000000e-01,7.080078125000000000e-01,5.345458984375000000e-01
1.400000000000000000e+01,-2.000000000000000000e+00,2.000000000000000000e+00,-7.000000000000000000e+00,0.000000000000000000e+00,7.000000000000000000e+00,1.600000000000000000e+01,-4.000000000000000000e+00,-3.705444335937500000e-01,2.750244140625000000e-01,7.080078125000000000e-01,5.345458984375000000e-01
9.000000000000000000e+00,1.200000000000000000e+01,7.000000000000000000e+00,-1.300000000000000000e+01,-7.000000000000000000e+00,-2.100000000000000000e+01,-1.800000000000000000e+01,-4.000000000000000000e+00,-3.705444335937500000e-01,2.750244140625000000e-01,7.080078125000000000e-01,5.345458984375000000e-01
-3.000000000000000000e+01,-1.200000000000000000e+01,7.000000000000000000e+00,1.300000000000000000e+01,3.000000000000000000e+00,-1.000000000000000000e+00,5.000000000000000000e+00,-6.000000000000000000e+00,-3.705444335937500000e-01,2.750244140625000000e-01,7.080078125000000000e-01,5.345458984375000000e-01
1.800000000000000000e+01,-1.000000000000000000e+01,-7.000000000000000000e+00,-7.000000000000000000e+00,-4.000000000000000000e+00,2.000000000000000000e+00,-2.000000000000000000e+00,-1.000000000000000000e+01,-3.711547851562500000e-01,2.746582031250000000e-01,7.077026367187500000e-01,5.347290039062500000e-01
-7.000000000000000000e+00,2.600000000000000000e+01,-2.300000000000000000e+01,1.300000000000000000e+01,4.000000000000000000e+00,-1.000000000000000000e+00,3.000000000000000000e+00,3.000000000000000000e+00,-3.711547851562500000e-01,2.746582031250000000e-01,7.077026367187500000e-01,5.347290039062500000e-01
-5.000000000000000000e+00,-1.100000000000000000e+01,-1.000000000000000000e+00,-7.000000000000000000e+00,-4.000000000000000000e+00,-2.000000000000000000e+00,0.000000000000000000e+00,-2.000000000000000000e+00,-3.711547851562500000e-01,2.746582031250000000e-01,7.077026367187500000e-01,5.347290039062500000e-01
-3.000000000000000000e+00,-3.100000000000000000e+01,6.000000000000000000e+00,-2.000000000000000000e+00,0.000000000000000000e+00,-1.000000000000000000e+00,4.000000000000000000e+00,2.000000000000000000e+00,-3.711547851562500000e-01,2.746582031250000000e-01,7.077026367187500000e-01,5.347290039062500000e-01
9.000000000000000000e+00,1.400000000000000000e+01,-3.000000000000000000e+00,1.000000000000000000e+00,0.000000000000000000e+00,-2.000000000000000000e+00,1.000000000000000000e+00,5.000000000000000000e+00,-3.720703125000000000e-01,2.731323242187500000e-01,7.078247070312500000e-01,5.346679687500000000e-01
8.000000000000000000e+00,-2.000000000000000000e+01,7.000000000000000000e+00,-4.000000000000000000e+00,-3.000000000000000000e+00,1.000000000000000000e+00,-6.000000000000000000e+00,0.000000000000000000e+00,-3.720703125000000000e-01,2.731323242187500000e-01,7.078247070312500000e-01,5.346679687500000000e-01
2.000000000000000000e+01,1.600000000000000000e+01,-9.000000000000000000e+00,2.000000000000000000e+00,2.000000000000000000e+00,-4.000000000000000000e+00,0.000000000000000000e+00,-5.000000000000000000e+00,-3.720703125000000000e-01,2.731323242187500000e-01,7.078247070312500000e-01,5.346679687500000000e-01
-3.000000000000000000e+00,-1.000000000000000000e+00,-5.000000000000000000e+00,-6.000000000000000000e+00,-1.000000000000000000e+00,6.000000000000000000e+00,-2.000000000000000000e+00,7.000000000000000000e+00,-3.720703125000000000e-01,2.731323242187500000e-01,7.078247070312500000e-01,5.346679687500000000e-01
5.000000000000000000e+00,-2.000000000000000000e+01,9.000000000000000000e+00,7.000000000000000000e+00,1.000000000000000000e+00,3.000000000000000000e+00,3.000000000000000000e+00,-2.000000000000000000e+00,-3.721923828125000000e-01,2.723999023437500000e-01,7.081909179687500000e-01,5.344848632812500000e-01
3.000000000000000000e+00,1.300000000000000000e+01,-1.000000000000000000e+00,-2.000000000000000000e+00,-3.000000000000000000e+00,1.000000000000000000e+00,-1.000000000000000000e+00,-5.000000000000000000e+00,-3.721923828125000000e-01,2.723999023437500000e-01,7.081909179687500000e-01,5.344848632812500000e-01
-1.900000000000000000e+01,-1.000000000000000000e+00,-9.000000000000000000e+00,0.000000000000000000e+00,-7.000000000000000000e+00,-8.000000000000000000e+00,-7.000000000000000000e+00,1.000000000000000000e+00,-3.721923828125000000e-01,2.723999023437500000e-01,7.081909179687500000e-01,5.344848632812500000e-01
1.700000000000000000e+01,1.800000000000000000e+01,3.000000000000000000e+00,-3.000000000000000000e+00,-2.000000000000000000e+00,-1.300000000000000000e+01,-3.000000000000000000e+00,1.000000000000000000e+00,-3.721923828125000000e-01,2.723999023437500000e-01,7.081909179687500000e-01,5.344848632812500000e-01
0.000000000000000000e+00,1.200000000000000000e+01,1.000000000000000000e+01,-2.000000000000000000e+00,0.000000000000000000e+00,1.000000000000000000e+00,-9.000000000000000000e+00,-7.000000000000000000e+00,-3.701782226562500000e-01,2.740478515625000000e-01,7.084350585937500000e-01,5.347290039062500000e-01
-1.400000000000000000e+01,-1.200000000000000000e+01,-5.000000000000000000e+00,8.000000000000000000e+00,-1.000000000000000000e+00,-1.000000000000000000e+00,-7.000000000000000000e+00,-4.000000000000000000e+00,-3.701782226562500000e-01,2.740478515625000000e-01,7.084350585937500000e-01,5.347290039062500000e-01
-6.000000000000000000e+00,5.000000000000000000e+00,-5.000000000000000000e+00,-2.000000000000000000e+00,-1.000000000000000000e+00,-2.000000000000000000e+00,1.000000000000000000e+00,3.000000000000000000e+00,-3.701782226562500000e-01,2.740478515625000000e-01,7.084350585937500000e-01,5.347290039062500000e-01
1.100000000000000000e+01,1.100000000000000000e+01,2.000000000000000000e+00,3.000000000000000000e+00,0.000000000000000000e+00,1.000000000000000000e+00,8.000000000000000000e+00,3.000000000000000000e+00,-3.701782226562500000e-01,2.740478515625000000e-01,7.084350585937500000e-01,5.347290039062500000e-01
-7.000000000000000000e+00,2.000000000000000000e+00,-1.000000000000000000e+00,-1.000000000000000000e+00,0.000000000000000000e+00,-2.000000000000000000e+00,0.000000000000000000e+00,-5.000000000000000000e+00,-3.684082031250000000e-01,2.764892578125000000e-01,7.084350585937500000e-01,5.346679687500000000e-01
-8.000000000000000000e+00,-6.000000000000000000e+00,1.200000000000000000e+01,-3.000000000000000000e+00,-3.000000000000000000e+00,-6.000000000000000000e+00,-4.000000000000000000e+00,2.000000000000000000e+00,-3.684082031250000000e-01,2.764892578125000000e-01,7.084350585937500000e-01,5.346679687500000000e-01
-5.000000000000000000e+00,-1.400000000000000000e+01,-2.000000000000000000e+01,0.000000000000000000e+00,2.000000000000000000e+00,7.000000000000000000e+00,3.000000000000000000e+00,0.000000000000000000e+00,-3.684082031250000000e-01,2.764892578125000000e-01,7.084350585937500000e-01,5.346679687500000000e-01
6.000000000000000000e+00,-6.000000000000000000e+00,2.000000000000000000e+00,3.000000000000000000e+00,-1.000000000000000000e+00,-2.000000000000000000e+00,1.000000000000000000e+00,-2.000000000000000000e+00,-3.684082031250000000e-01,2.764892578125000000e-01,7.084350585937500000e-01,5.346679687500000000e-01
-3.000000000000000000e+00,2.400000000000000000e+01,1.000000000000000000e+00,0.000000000000000000e+00,3.000000000000000000e+00,2.000000000000000000e+00,-1.000000000000000000e+00,0.000000000000000000e+00,-3.676147460937500000e-01,2.780761718750000000e-01,7.088012695312500000e-01,5.338745117187500000e-01
-4.000000000000000000e+00,-2.100000000000000000e+01,-1.000000000000000000e+00,0.000000000000000000e+00,1.000000000000000000e+00,0.000000000000000000e+00,-1.000000000000000000e+00,-1.000000000000000000e+00,-3.676147460937500000e-01,2.780761718750000000e-01,7.088012695312500000e-01,5.338745117187500000e-01
-1.600000000000000000e+01,-2.000000000000000000e+00,1.000000000000000000e+00,2.000000000000000000e+00,1.000000000000000000e+00,3.000000000000000000e+00,4.000000000000000000e+00,0.000000000000000000e+00,-3.676147460937500000e-01,2.780761718750000000e-01,7.088012695312500000e-01,5.338745117187500000e-01
-1.200000000000000000e+01,1.600000000000000000e+01,5.000000000000000000e+00,0.000000000000000000e+00,1.000000000000000000e+00,5.000000000000000000e+00,0.000000000000000000e+00,1.000000000000000000e+00,-3.676147460937500000e-01,2.780761718750000000e-01,7.088012695312500000e-01,5.338745117187500000e-01
-2.700000000000000000e+01,-4.000000000000000000e+00,-2.000000000000000000e+00,-5.000000000000000000e+00,-4.000000000000000000e+00,-1.000000000000000000e+00,-8.000000000000000000e+00,-3.000000000000000000e+00,-3.678588867187500000e-01,2.784423828125000000e-01,7.092895507812500000e-01,5.328979492187500000e-01
5.700000000000000000e+01,-5.400000000000000000e+01,4.000000000000000000e+00,-1.000000000000000000e+00,-3.000000000000000000e+00,-1.000000000000000000e+00,2.000000000000000000e+00,5.000000000000000000e+00,-3.678588867187500000e-01,2.784423828125000000e-01,7.092895507812500000e-01,5.328979492187500000e-01
-4.000000000000000000e+00,6.600000000000000000e+01,7.000000000000000000e+00,-1.100000000000000000e+01,-5.000000000000000000e+00,-2.000000000000000000e+00,-1.000000000000000000e+00,-6.000000000000000000e+00,-3.678588867187500000e-01,2.784423828125000000e-01,7.092895507812500000e-01,5.328979492187500000e-01
-8.000000000000000000e+00,1.000000000000000000e+00,6.000000000000000000e+00,7.000000000000000000e+00,4.000000000000000000e+00,1.100000000000000000e+01,-3.000000000000000000e+00,-1.100000000000000000e+01,-3.678588867187500000e-01,2.784423828125000000e-01,7.092895507812500000e-01,5.328979492187500000e-01
-8.000000000000000000e+00,-1.400000000000000000e+01,-2.200000000000000000e+01,-5.000000000000000000e+00,-3.000000000000000000e+00,-1.000000000000000000e+01,6.000000000000000000e+00,1.300000000000000000e+01,-3.684082031250000000e-01,2.783813476562500000e-01,7.091064453125000000e-01,5.327758789062500000e-01
-3.000000000000000000e+01,-5.000000000000000000e+00,-2.000000000000000000e+00,-1.000000000000000000e+00,2.000000000000000000e+00,0.000000000000000000e+00,0.000000000000000000e+00,-1.800000000000000000e+01,-3.684082031250000000e-01,2.783813476562500000e-01,7.091064453125000000e-01,5.327758789062500000e-01
3.000000000000000000e+00,-5.000000000000000000e+00,9.000000000000000000e+00,3.000000000000000000e+00,4.000000000000000000e+00,0.000000000000000000e+00,-7.000000000000000000e+00,3.200000000000000000e+01,-3.684082031250000000e-01,2.783813476562500000e-01,7.091064453125000000e-01,5.327758789062500000e-01
2.100000000000000000e+01,5.000000000000000000e+00,-3.000000000000000000e+00,-7.000000000000000000e+00,-7.000000000000000000e+00,-1.100000000000000000e+01,-1.300000000000000000e+01,-7.000000000000000000e+00,-3.684082031250000000e-01,2.783813476562500000e-01,7.091064453125000000e-01,5.327758789062500000e-01
-6.000000000000000000e+00,1.000000000000000000e+01,-4.000000000000000000e+00,-1.000000000000000000e+00,-2.000000000000000000e+00,1.000000000000000000e+00,2.000000000000000000e+00,-5.000000000000000000e+00,-3.677368164062500000e-01,2.789306640625000000e-01,7.086181640625000000e-01,5.335693359375000000e-01
0.000000000000000000e+00,-8.000000000000000000e+00,-6.000000000000000000e+00,-3.000000000000000000e+00,-2.000000000000000000e+00,-1.000000000000000000e+01,1.000000000000000000e+00,-7.000000000000000000e+00,-3.677368164062500000e-01,2.789306640625000000e-01,7.086181640625000000e-01,5.335693359375000000e-01
4.000000000000000000e+00,-8.000000000000000000e+00,-2.000000000000000000e+00,-1.000000000000000000e+00,6.000000000000000000e+00,1.700000000000000000e+01,6.000000000000000000e+00,-4.000000000000000000e+00,-3.677368164062500000e-01,2.789306640625000000e-01,7.086181640625000000e-01,5.335693359375000000e-01
-8.000000000000000000e+00,6.000000000000000000e+00,-1.900000000000000000e+01,-2.000000000000000000e+00,0.000000000000000000e+00,0.000000000000000000e+00,2.000000000000000000e+00,6.000000000000000000e+00,-3.677368164062500000e-01,2.789306640625000000e-01,7.086181640625000000e-01,5.335693359375000000e-01
7.000000000000000000e+00,-1.400000000000000000e+01,4.000000000000000000e+00,3.000000000000000000e+00,-1.000000000000000000e+00,-5.000000000000000000e+00,-4.000000000000000000e+00,-3.000000000000000000e+00,-3.664550781250000000e-01,2.797241210937500000e-01,7.084350585937500000e-01,5.343627929687500000e-01
-1.400000000000000000e+01,1.700000000000000000e+01,-3.000000000000000000e+00,-3.000000000000000000e+00,-2.000000000000000000e+00,-3.000000000000000000e+00,1.000000000000000000e+00,4.000000000000000000e+00,-3.664550781250000000e-01,2.797241210937500000e-01,7.084350585937500000e-01,5.343627929687500000e-01
-3.000000000000000000e+00,-1.700000000000000000e+01,8.000000000000000000e+00,5.000000000000000000e+00,0.000000000000000000e+00,-4.000000000000000000e+00,-3.000000000000000000e+00,-9.000000000000000000e+00,-3.664550781250000000e-01,2.797241210937500000e-01,7.084350585937500000e-01,5.343627929687500000e-01
1.000000000000000000e+01,-8.000000000000000000e+00,8.000000000000000000e+00,-1.000000000000000000e+00,2.000000000000000000e+00,6.000000000000000000e+00,5.000000000000000000e+00,9.000000000000000000e+00,-3.664550781250000000e-01,2.797241210937500000e-01,7.084350585937500000e-01,5.343627929687500000e-01
-1.100000000000000000e+01,1.700000000000000000e+01,-6.000000000000000000e+00,0.000000000000000000e+00,-2.000000000000000000e+00,1.000000000000000000e+00,1.000000000000000000e+00,-9.000000000000000000e+00,-3.665771484375000000e-01,2.795410156250000000e-01,7.087402343750000000e-01,5.339965820312500000e-01
2.900000000000000000e+01,-6.000000000000000000e+00,-8.000000000000000000e+00,-9.000000000000000000e+00,1.000000000000000000e+00,1.000000000000000000e+00,-8.000000000000000000e+00,0.000000000000000000e+00,-3.665771484375000000e-01,2.795410156250000000e-01,7.087402343750000000e-01,5.339965820312500000e-01
1.500000000000000000e+01,9.000000000000000000e+00,1.700000000000000000e+01,1.400000000000000000e+01,-3.000000000000000000e+00,-6.000000000000000000e+00,4.000000000000000000e+00,6.000000000000000000e+00,-3.665771484375000000e-01,2.795410156250000000e-01,7.087402343750000000e-01,5.339965820312500000e-01
-1.000000000000000000e+01,-2.000000000000000000e+01,-1.000000000000000000e+01,-2.000000000000000000e+00,3.000000000000000000e+00,5.000000000000000000e+00,0.000000000000000000e+00,-6.000000000000000000e+00,-3.665771484375000000e-01,2.795410156250000000e-01,7.087402343750000000e-01,5.339965820312500000e-01
1.400000000000000000e+01,1.000000000000000000e+01,1.100000000000000000e+01,0.000000000000000000e+00,-1.000000000000000000e+00,-3.000000000000000000e+00,0.000000000000000000e+00,3.000000000000000000e+00,-3.671264648437500000e-01,2.780151367187500000e-01,7.093505859375000000e-01,5.335693359375000000e-01
-4.700000000000000000e+01,-1.200000000000000000e+01,-4.000000000000000000e+00,1.000000000000000000e+00,-1.000000000000000000e+00,7.000000000000000000e+00,-4.000000000000000000e+00,-3.000000000000000000e+00,-3.671264648437500000e-01,2.780151367187500000e-01,7.093505859375000000e-01,5.335693359375000000e-01
-1.300000000000000000e+01,-1.000000000000000000e+01,-1.200000000000000000e+01,-6.000000000000000000e+00,-3.000000000000000000e+00,-7.000000000000000000e+00,-3.000000000000000000e+00,-1.000000000000000000e+01,-3.671264648437500000e-01,2.780151367187500000e-01,7.093505859375000000e-01,5.335693359375000000e-01
1.100000000000000000e+01,-1.600000000000000000e+01,7.000000000000000000e+00,2.000000000000000000e+00,0.000000000000000000e+00,-4.000000000000000000e+00,5.000000000000000000e+00,5.000000000000000000e+00,-3.671264648437500000e-01,2.780151367187500000e-01,7.093505859375000000e-01,5.335693359375000000e-01
2.600000000000000000e+01,3.800000000000000000e+01,3.000000000000000000e+00,-5.000000000000000000e+00,-1.000000000000000000e+00,3.000000000000000000e+00,-2.000000000000000000e+00,2.000000000000000000e+00,-3.670654296875000000e-01,2.755737304687500000e-01,7.099609375000000000e-01,5.341186523437500000e-01
-7.000000000000000000e+00,-3.000000000000000000e+00,1.000000000000000000e+00,-2.000000000000000000e+00,-3.000000000000000000e+00,-1.000000000000000000e+00,-4.000000000000000000e+00,3.000000000000000000e+00,-3.670654296875000000e-01,2.755737304687500000e-01,7.099609375000000000e-01,5.341186523437500000e-01
-1.000000000000000000e+01,-2.500000000000000000e+01,-4.000000000000000000e+00,-3.000000000000000000e+00,-2.000000000000000000e+00,1.000000000000000000e+00,3.000000000000000000e+00,-6.000000000000000000e+00,-3.670654296875000000e-01,2.755737304687500000e-01,7.099609375000000000e-01,5.341186523437500000e-01
-3.000000000000000000e+00,1.500000000000000000e+01,2.000000000000000000e+00,-5.000000000000000000e+00,-5.000000000000000000e+00,-5.000000000000000000e+00,-2.000000000000000000e+00,-1.000000000000000000e+00,-3.670654296875000000e-01,2.755737304687500000e-01,7.099609375000000000e-01,5.341186523437500000e-01
-3.000000000000000000e+00,-1.200000000000000000e+01,-9.000000000000000000e+00,-4.000000000000000000e+00,-2.000000000000000000e+00,-1.000000000000000000e+00,-4.000000000000000000e+00,-8.000000000000000000e+00,-3.658447265625000000e-01,2.733764648437500000e-01,7.101440429687500000e-01,5.357666015625000000e-01
5.000000000000000000e+00,2.100000000000000000e+01,1.000000000000000000e+00,5.000000000000000000e+00,-1.000000000000000000e+00,-3.000000000000000000e+00,-5.000000000000000000e+00,-4.000000000000000000e+00,-3.658447265625000000e-01,2.733764648437500000e-01,7.101440429687500000e-01,5.357666015625000000e-01
-1.400000000000000000e+01,-3.000000000000000000e+01,-3.000000000000000000e+00,-6.000000000000000000e+00,-1.000000000000000000e+00,-7.000000000000000000e+00,7.000000000000000000e+00,1.300000000000000000e+01,-3.658447265625000000e-01,2.733764648437500000e-01,7.101440429687500000e-01,5.357666015625000000e-01
1.500000000000000000e+01,1.300000000000000000e+01,1.000000000000000000e+00,-2.000000000000000000e+00,-6.000000000000000000e+00,-1.000000000000000000e+01,-1.600000000000000000e+01,-7.000000000000000000e+00,-3.658447265625000000e-01,2.733764648437500000e-01,7.101440429687500000e-01,5.357666015625000000e-01
1.100000000000000000e+01,-4.000000000000000000e+00,1.200000000000000000e+01,6.000000000000000000e+00,7.000000000000000000e+00,1.700000000000000000e+01,8.000000000000000000e+00,1.000000000000000000e+00,-3.634033203125000000e-01,2.715454101562500000e-01,7.103271484375000000e-01,5.380859375000000000e-01
2.300000000000000000e+01,1.600000000000000000e+01,3.000000000000000000e+00,6.000000000000000000e+00,0.000000000000000000e+00,0.000000000000000000e+00,6.000000000000000000e+00,5.000000000000000000e+00,-3.634033203125000000e-01,2.715454101562500000e-01,7.103271484375000000e-01,5.380859375000000000e-01
-3.700000000000000000e+01,-1.000000000000000000e+01,-2.300000000000000000e+01,4.000000000000000000e+00,-1.000000000000000000e+00,-1.000000000000000000e+00,-6.000000000000000000e+00,-1.700000000000000000e+01,-3.634033203125000000e-01,2.715454101562500000e-01,7.103271484375000000e-01,5.380859375000000000e-01
3.300000000000000000e+01,9.000000000000000000e+00,3.000000000000000000e+00,-2.000000000000000000e+00,-5.000000000000000000e+00,-2.000000000000000000e+00,6.000000000000000000e+00,1.700000000000000000e+01,-3.634033203125000000e-01,2.715454101562500000e-01,7.103271484375000000e-01,5.380859375000000000e-01
-1.400000000000000000e+01,-1.600000000000000000e+01,-3.000000000000000000e+00,-1.000000000000000000e+00,-2.000000000000000000e+00,-4.000000000000000000e+00,-4.000000000000000000e+00,-5.000000000000000000e+00,-3.606567382812500000e-01,2.694091796875000000e-01,7.108764648437500000e-01,5.402832031250000000e-01
1.000000000000000000e+01,1.300000000000000000e+01,6.000000000000000000e+00,-2.000000000000000000e+00,2.000000000000000000e+00,1.000000000000000000e+00,1.000000000000000000e+00,2.000000000000000000e+00,-3.606567382812500000e-01,2.694091796875000000e-01,7.108764648437500000e-01,5.402832031250000000e-01
-6.300000000000000000e+01,-4.000000000000000000e+00,6.000000000000000000e+00,-1.000000000000000000e+00,1.000000000000000000e+00,2.000000000000000000e+00,0.000000000000000000e+00,-1.000000000000000000e+01,-3.606567382812500000e-01,2.694091796875000000e-01,7.108764648437500000e-01,5.402832031250000000e-01
2.000000000000000000e+01,-5.000000000000000000e+00,-2.000000000000000000e+00,1.000000000000000000e+00,-1.000000000000000000e+00,-4.000000000000000000e+00,1.000000000000000000e+00,1.000000000000000000e+00,-3.606567382812500000e-01,2.694091796875000000e-01,7.108764648437500000e-01,5.402832031250000000e-01
2.500000000000000000e+01,-1.500000000000000000e+01,-7.000000000000000000e+00,1.000000000000000000e+00,1.000000000000000000e+00,0.000000000000000000e+00,-3.000000000000000000e+00,1.000000000000000000e+00,-3.585815429687500000e-01,2.658081054687500000e-01,7.122192382812500000e-01,5.416870117187500000e-01
-1.100000000000000000e+01,7.000000000000000000e+00,5.000000000000000000e+00,-6.000000000000000000e+00,-5.000000000000000000e+00,-4.000000000000000000e+00,-5.000000000000000000e+00,-1.000000000000000000e+00,-3.585815429687500000e-01,2.658081054687500000e-01,7.122192382812500000e-01,5.416870117187500000e-01
1.900000000000000000e+01,8.000000000000000000e+00,-1.000000000000000000e+00,-4.000000000000000000e+00,-9.000000000000000000e+00,-8.000000000000000000e+00,-4.000000000000000000e+00,-1.000000000000000000e+00,-3.585815429687500000e-01,2.658081054687500000e-01,7.122192382812500000e-01,5.416870117187500000e-01
-1.800000000000000000e+01,2.500000000000000000e+01,-9.000000000000000000e+00,4.000000000000000000e+00,7.000000000000000000e+00,9.000000000000000000e+00,6.000000000000000000e+00,-2.000000000000000000e+00,-3.585815429687500000e-01,2.658081054687500000e-01,7.122192382812500000e-01,5.416870117187500000e-01
-2.500000000000000000e+01,-3.400000000000000000e+01,4.000000000000000000e+00,-1.200000000000000000e+01,-1.000000000000000000e+00,-1.000000000000000000e+00,-1.000000000000000000e+00,-5.000000000000000000e+00,-3.558349609375000000e-01,2.609252929687500000e-01,7.148437500000000000e-01,5.424804687500000000e-01
-1.600000000000000000e+01,1.200000000000000000e+01,2.000000000000000000e+01,1.800000000000000000e+01,4.000000000000000000e+00,-1.000000000000000000e+00,0.000000000000000000e+00,-1.000000000000000000e+00,-3.558349609375000000e-01,2.609252929687500000e-01,7.148437500000000000e-01,5.424804687500000000e-01
3.000000000000000000e+01,6.000000000000000000e+00,-2.400000000000000000e+01,-1.200000000000000000e+01,-1.000000000000000000e+00,1.000000000000000000e+00,-3.000000000000000000e+00,3.000000000000000000e+00,-3.558349609375000000e-01,2.609252929687500000e-01,7.148437500000000000e-01,5.424804687500000000e-01
-2.100000000000000000e+01,-1.800000000000000000e+01,-1.500000000000000000e+01,-8.000000000000000000e+00,-7.000000000000000000e+00,-6.000000000000000000e+00,-4.000000000000000000e+00,-7.000000000000000000e+00,-3.558349609375000000e-01,2.609252929687500000e-01,7.148437500000000000e-01,5.424804687500000000e-01
-7.000000000000000000e+00,1.000000000000000000e+01,5.000000000000000000e+00,1.000000000000000000e+00,-5.000000000000000000e+00,-8.000000000000000000e+00,4.000000000000000000e+00,0.000000000000000000e+00,-3.525390625000000000e-01,2.562255859375000000e-01,7.178955078125000000e-01,5.427856445312500000e-01
4.000000000000000000e+01,5.000000000000000000e+00,-5.000000000000000000e+00,-9.000000000000000000e+00,0.000000000000000000e+00,9.000000000000000000e+00,-3.000000000000000000e+00,1.100000000000000000e+01,-3.525390625000000000e-01,2.562255859375000000e-01,7.178955078125000000e-01,5.427856445312500000e-01
6.000000000000000000e+00,-1.900000000000000000e+01,1.300000000000000000e+01,-2.000000000000000000e+00,-4.000000000000000000e+00,-4.000000000000000000e+00,-6.000000000000000000e+00,-2.000000000000000000e+00,-3.525390625000000000e-01,2.562255859375000000e-01,7.178955078125000000e-01,5.427856445312500000e-01
-1.900000000000000000e+01,0.000000000000000000e+00,-7.000000000000000000e+00,1.200000000000000000e+01,1.000000000000000000e+00,1.000000000000000000e+00,0.000000000000000000e+00,-1.000000000000000000e+01,-3.525390625000000000e-01,2.562255859375000000e-01,7.178955078125000000e-01,5.427856445312500000e-01
-1.100000000000000000e+01,-2.000000000000000000e+00,2.000000000000000000e+00,-5.000000000000000000e+00,1.000000000000000000e+00,-7.000000000000000000e+00,-9.000000000000000000e+00,4.000000000000000000e+00,-3.480834960937500000e-01,2.536621093750000000e-01,7.208251953125000000e-01,5.429687500000000000e-01
-1.000000000000000000e+00,-1.000000000000000000e+00,3.000000000000000000e+00,-7.000000000000000000e+00,-7.000000000000000000e+00,4.000000000000000000e+00,7.000000000000000000e+00,0.000000000000000000e+00,-3.480834960937500000e-01,2.536621093750000000e-01,7.208251953125000000e-01,5.429687500000000000e-01
1.400000000000000000e+01,1.500000000000000000e+01,-4.000000000000000000e+00,5.000000000000000000e+00,1.000000000000000000e+00,-5.000000000000000000e+00,2.000000000000000000e+00,2.000000000000000000e+00,-3.480834960937500000e-01,2.536621093750000000e-01,7.208251953125000000e-01,5.429687500000000000e-01
-1.200000000000000000e+01,-1.600000000000000000e+01,-4.000000000000000000e+00,-6.000000000000000000e+00,-4.000000000000000000e+00,4.000000000000000000e+00,-2.000000000000000000e+00,0.000000000000000000e+00,-3.480834960937500000e-01,2.536621093750000000e-01,7.208251953125000000e-01,5.429687500000000000e-01
-7.000000000000000000e+00,-2.000000000000000000e+00,0.000000000000000000e+00,2.000000000000000000e+00,-6.000000000000000000e+00,-8.000000000000000000e+00,5.000000000000000000e+00,-6.000000000000000000e+00,-3.431396484375000000e-01,2.522583007812500000e-01,7.229614257812500000e-01,5.440063476562500000e-01
-1.300000000000000000e+01,-4.000000000000000000e+00,-3.000000000000000000e+00,-2.000000000000000000e+00,0.000000000000000000e+00,-3.000000000000000000e+00,-3.000000000000000000e+00,-4.000000000000000000e+00,-3.431396484375000000e-01,2.522583007812500000e-01,7.229614257812500000e-01,5.440063476562500000e-01
1.500000000000000000e+01,8.000000000000000000e+00,1.000000000000000000e+00,-5.000000000000000000e+00,-2.000000000000000000e+00,-5.000000000000000000e+00,3.000000000000000000e+00,1.000000000000000000e+00,-3.431396484375000000e-01,2.522583007812500000e-01,7.229614257812500000e-01,5.440063476562500000e-01
-2.300000000000000000e+01,-1.000000000000000000e+01,6.000000000000000000e+00,3.000000000000000000e+00,1.000000000000000000e+00,-5.000000000000000000e+00,-1.100000000000000000e+01,-6.000000000000000000e+00,-3.431396484375000000e-01,2.522583007812500000e-01,7.229614257812500000e-01,5.440063476562500000e-01
2.000000000000000000e+01,1.500000000000000000e+01,1.100000000000000000e+01,8.000000000000000000e+00,1.000000000000000000e+00,2.000000000000000000e+00,-2.000000000000000000e+00,3.000000000000000000e+00,-3.384399414062500000e-01,2.520141601562500000e-01,7.243652343750000000e-01,5.451049804687500000e-01
-3.400000000000000000e+01,-1.800000000000000000e+01,-1.700000000000000000e+01,-3.000000000000000000e+00,3.000000000000000000e+00,5.000000000000000000e+00,-1.000000000000000000e+00,-6.000000000000000000e+00,-3.384399414062500000e-01,2.520141601562500000e-01,7.243652343750000000e-01,5.451049804687500000e-01
2.500000000000000000e+01,3.000000000000000000e+00,5.000000000000000000e+00,-5.000000000000000000e+00,-4.000000000000000000e+00,-4.000000000000000000e+00,-1.000000000000000000e+00,2.000000000000000000e+00,-3.384399414062500000e-01,2.520141601562500000e-01,7.243652343750000000e-01,5.451049804687500000e-01
-5.000000000000000000e+00,-1.200000000000000000e+01,5.000000000000000000e+00,-5.000000000000000000e+00,-4.000000000000000000e+00,-4.000000000000000000e+00,-2.000000000000000000e+00,2.000000000000000000e+00,-3.384399414062500000e-01,2.520141601562500000e-01,7.243652343750000000e-01,5.451049804687500000e-01
-1.600000000000000000e+01,-2.300000000000000000e+01,-8.000000000000000000e+00,-2.000000000000000000e+00,-4.000000000000000000e+00,-6.000000000000000000e+00,-7.000000000000000000e+00,-7.000000000000000000e+00,-3.350830078125000000e-01,2.523803710937500000e-01,7.257080078125000000e-01,5.452880859375000000e-01
9.000000000000000000e+00,8.000000000000000000e+00,-9.000000000000000000e+00,0.000000000000000000e+00,1.000000000000000000e+00,-8.000000000000000000e+00,-4.000000000000000000e+00,3.000000000000000000e+00,-3.350830078125000000e-01,2.523803710937500000e-01,7.257080078125000000e-01,5.452880859375000000e-01
-3.400000000000000000e+01,-2.400000000000000000e+01,-9.000000000000000000e+00,5.000000000000000000e+00,2.000000000000000000e+00,5.000000000000000000e+00,-3.000000000000000000e+00,-7.000000000000000000e+00,-3.350830078125000000e-01,2.523803710937500000e-01,7.257080078125000000e-01,5.452880859375000000e-01
1.000000000000000000e+00,1.700000000000000000e+01,-1.400000000000000000e+01,-1.100000000000000000e+01,-2.000000000000000000e+00,2.000000000000000000e+00,1.000000000000000000e+01,1.000000000000000000e+00,-3.350830078125000000e-01,2.523803710937500000e-01,7.257080078125000000e-01,5.452880859375000000e-01
2.300000000000000000e+01,7.000000000000000000e+00,-4.000000000000000000e+00,0.000000000000000000e+00,-2.000000000000000000e+00,-2.000000000000000000e+00,-7.000000000000000000e+00,-3.000000000000000000e+00,-3.336181640625000000e-01,2.515258789062500000e-01,7.271118164062500000e-01,5.446777343750000000e-01
1.000000000000000000e+01,-7.000000000000000000e+00,-2.000000000000000000e+00,-5.000000000000000000e+00,-5.000000000000000000e+00,-8.000000000000000000e+00,-3.000000000000000000e+00,-9.000000000000000000e+00,-3.336181640625000000e-01,2.515258789062500000e-01,7.271118164062500000e-01,5.446777343750000000e-01
-4.500000000000000000e+01,-1.700000000000000000e+01,1.100000000000000000e+01,0.000000000000000000e+00,0.000000000000000000e+00,6.000000000000000000e+00,1.500000000000000000e+01,4.200000000000000000e+01,-3.336181640625000000e-01,2.515258789062500000e-01,7.271118164062500000e-01,5.446777343750000000e-01
9.000000000000000000e+01,1.800000000000000000e+01,6.000000000000000000e+00,0.000000000000000000e+00,-1.000000000000000000e+00,-1.000000000000000000e+00,0.000000000000000000e+00,1.100000000000000000e+01,-3.336181640625000000e-01,2.515258789062500000e-01,7.271118164062500000e-01,5.446777343750000000e-01
-1.900000000000000000e+01,0.000000000000000000e+00,-5.000000000000000000e+00,-4.000000000000000000e+00,-2.000000000000000000e+00,1.000000000000000000e+00,-1.000000000000000000e+00,5.000000000000000000e+00,-3.333740234375000000e-01,2.498168945312500000e-01,7.279663085937500000e-01,5.444946289062500000e-01
-1.500000000000000000e+01,-1.000000000000000000e+01,3.000000000000000000e+00,0.000000000000000000e+00,0.000000000000000000e+00,-2.000000000000000000e+00,-5.000000000000000000e+00,-2.500000000000000000e+01,-3.333740234375000000e-01,2.498168945312500000e-01,7.279663085937500000e-01,5.444946289062500000e-01
-7.000000000000000000e+00,6.000000000000000000e+00,-3.000000000000000000e+00,4.000000000000000000e+00,0.000000000000000000e+00,-4.000000000000000000e+00,-1.100000000000000000e+01,-1.600000000000000000e+01,-3.333740234375000000e-01,2.498168945312500000e-01,7.279663085937500000e-01,5.444946289062500000e-01
-2.800000000000000000e+01,-5.000000000000000000e+00,-2.000000000000000000e+00,-4.000000000000000000e+00,-2.000000000000000000e+00,-7.000000000000000000e+00,-1.000000000000000000e+00,-4.000000000000000000e+00,-3.333740234375000000e-01,2.498168945312500000e-01,7.279663085937500000e-01,5.444946289062500000e-01
4.000000000000000000e+00,3.000000000000000000e+00,-1.000000000000000000e+00,9.000000000000000000e+00,0.000000000000000000e+00,5.000000000000000000e+00,6.000000000000000000e+00,-2.000000000000000000e+00,-3.341064453125000000e-01,2.479858398437500000e-01,7.283325195312500000e-01,5.444335937500000000e-01
-1.100000000000000000e+01,-1.000000000000000000e+00,-1.100000000000000000e+01,0.000000000000000000e+00,-1.000000000000000000e+00,0.000000000000000000e+00,-7.000000000000000000e+00,5.000000000000000000e+00,-3.341064453125000000e-01,2.479858398437500000e-01,7.283325195312500000e-01,5.444335937500000000e-01
2.000000000000000000e+01,4.000000000000000000e+00,1.000000000000000000e+01,-1.000000000000000000e+00,2.000000000000000000e+00,2.000000000000000000e+00,-3.000000000000000000e+00,-4.000000000000000000e+00,-3.341064453125000000e-01,2.479858398437500000e-01,7.283325195312500000e-01,5.444335937500000000e-01
-1.000000000000000000e+01,-1.000000000000000000e+00,1.000000000000000000e+00,0.000000000000000000e+00,-3.000000000000000000e+00,-3.000000000000000000e+00,0.000000000000000000e+00,-1.000000000000000000e+00,-3.341064453125000000e-01,2.479858398437500000e-01,7.283325195312500000e-01,5.444335937500000000e-01
8.000000000000000000e+00,1.000000000000000000e+00,-2.000000000000000000e+00,-5.000000000000000000e+00,3.000000000000000000e+00,2.000000000000000000e+00,-3.000000000000000000e+00,-4.000000000000000000e+00,-3.352050781250000000e-01,2.464599609375000000e-01,7.286376953125000000e-01,5.440063476562500000e-01
-1.000000000000000000e+01,3.000000000000000000e+00,5.000000000000000000e+00,-2.000000000000000000e+00,-1.000000000000000000e+00,2.000000000000000000e+00,8.000000000000000000e+00,9.000000000000000000e+00,-3.352050781250000000e-01,2.464599609375000000e-01,7.286376953125000000e-01,5.440063476562500000e-01
1.400000000000000000e+01,2.000000000000000000e+00,-7.000000000000000000e+00,3.000000000000000000e+00,2.000000000000000000e+00,8.000000000000000000e+00,2.000000000000000000e+00,-3.000000000000000000e+00,-3.352050781250000000e-01,2.464599609375000000e-01,7.286376953125000000e-01,5.440063476562500000e-01
-1.500000000000000000e+01,3.000000000000000000e+00,1.000000000000000000e+00,-3.000000000000000000e+00,-2.000000000000000000e+00,-1.200000000000000000e+01,-6.000000000000000000e+00,-7.000000000000000000e+00,-3.352050781250000000e-01,2.464599609375000000e-01,7.286376953125000000e-01,5.440063476562500000e-01
1.600000000000000000e+01,1.000000000000000000e+00,5.000000000000000000e+00,6.000000000000000000e+00,-1.000000000000000000e+00,1.000000000000000000e+01,2.000000000000000000e+00,9.000000000000000000e+00,-3.361816406250000000e-01,2.448730468750000000e-01,7.291259765625000000e-01,5.433959960937500000e-01
-5.000000000000000000e+00,-2.000000000000000000e+00,-1.000000000000000000e+00,-7.000000000000000000e+00,-2.000000000000000000e+00,-6.000000000000000000e+00,-1.000000000000000000e+00,3.000000000000000000e+00,-3.361816406250000000e-01,2.448730468750000000e-01,7.291259765625000000e-01,5.433959960937500000e-01
1.300000000000000000e+01,6.000000000000000000e+00,9.000000000000000000e+00,4.000000000000000000e+00,0.000000000000000000e+00,-1.000000000000000000e+00,4.000000000000000000e+00,-6.000000000000000000e+00,-3.361816406250000000e-01,2.448730468750000000e-01,7.291259765625000000e-01,5.433959960937500000e-01
-1.300000000000000000e+01,-4.000000000000000000e+00,-3.000000000000000000e+00,7.000000000000000000e+00,-1.000000000000000000e+00,-5.000000000000000000e+00,-6.000000000000000000e+00,-3.000000000000000000e+00,-3.361816406250000000e-01,2.448730468750000000e-01,7.291259765625000000e-01,5.433959960937500000e-01
-1.500000000000000000e+01,-1.300000000000000000e+01,-1.800000000000000000e+01,-5.000000000000000000e+00,-2.000000000000000000e+00,3.000000000000000000e+00,5.000000000000000000e+00,-2.000000000000000000e+00,-3.372192382812500000e-01,2.437744140625000000e-01,7.288818359375000000e-01,5.435791015625000000e-01
2.000000000000000000e+00,1.100000000000000000e+01,6.000000000000000000e+00,2.000000000000000000e+00,-2.000000000000000000e+00,-4.000000000000000000e+00,-4.000000000000000000e+00,2.000000000000000000e+00,-3.372192382812500000e-01,2.437744140625000000e-01,7.288818359375000000e-01,5.435791015625000000e-01
1.300000000000000000e+01,1.000000000000000000e+00,1.000000000000000000e+00,-7.000000000000000000e+00,-3.000000000000000000e+00,0.000000000000000000e+00,1.000000000000000000e+00,-7.000000000000000000e+00,-3.372192382812500000e-01,2.437744140625000000e-01,7.288818359375000000e-01,5.435791015625000000e-01
-2.000000000000000000e+01,3.000000000000000000e+00,3.000000000000000000e+00,-3.000000000000000000e+00,1.000000000000000000e+00,-8.000000000000000000e+00,-1.100000000000000000e+01,-6.000000000000000000e+00,-3.372192382812500000e-01,2.437744140625000000e-01,7.288818359375000000e-01,5.435791015625000000e-01
1.000000000000000000e+00,-3.000000000000000000e+00,-8.000000000000000000e+00,-4.000000000000000000e+00,1.000000000000000000e+00,3.000000000000000000e+00,1.200000000000000000e+01,0.000000000000000000e+00,-3.378906250000000000e-01,2.427978515625000000e-01,7.281494140625000000e-01,5.445556640625000000e-01
3.800000000000000000e+01,0.000000000000000000e+00,4.000000000000000000e+00,2.000000000000000000e+00,-4.000000000000000000e+00,0.000000000000000000e+00,1.000000000000000000e+00,2.000000000000000000e+00,-3.378906250000000000e-01,2.427978515625000000e-01,7.281494140625000000e-01,5.445556640625000000e-01
3.000000000000000000e+00,1.600000000000000000e+01,-1.000000000000000000e+00,-9.000000000000000000e+00,-7.000000000000000000e+00,-6.000000000000000000e+00,-4.000000000000000000e+00,-4.000000000000000000e+00,-3.378906250000000000e-01,2.427978515625000000e-01,7.281494140625000000e-01,5.445556640625000000e-01
-3.800000000000000000e+01,-5.200000000000000000e+01,-1.000000000000000000e+01,1.000000000000000000e+00,-4.000000000000000000e+00,-5.000000000000000000e+00,0.000000000000000000e+00,-5.000000000000000000e+00,-3.378906250000000000e-01,2.427978515625000000e-01,7.281494140625000000e-01,5.445556640625000000e-01
1.200000000000000000e+01,5.100000000000000000e+01,7.000000000000000000e+00,-4.000000000000000000e+00,-2.000000000000000000e+00,3.000000000000000000e+00,-1.000000000000000000e+00,3.000000000000000000e+00,-3.377075195312500000e-01,2.426757812500000000e-01,7.275390625000000000e-01,5.455932617187500000e-01
9.000000000000000000e+00,-1.800000000000000000e+01,-9.000000000000000000e+00,-2.000000000000000000e+00,0.000000000000000000e+00,1.000000000000000000e+00,0.000000000000000000e+00,2.000000000000000000e+00,-3.377075195312500000e-01,2.426757812500000000e-01,7.275390625000000000e-01,5.455932617187500000e-01
