5.000000000000000000e+00,-1.600000000000000000e+01,1.000000000000000000e+00,2.000000000000000000e+00,1.000000000000000000e+00,-9.000000000000000000e+00,-2.000000000000000000e+00,-5.000000000000000000e+00,-3.991699218750000000e-01,1.998291015625000000e-01,7.202148437500000000e-01,5.310058593750000000e-01
7.000000000000000000e+00,2.000000000000000000e+00,-6.000000000000000000e+00,-2.000000000000000000e+00,-5.000000000000000000e+00,-1.000000000000000000e+00,4.000000000000000000e+00,3.000000000000000000e+00,-3.991699218750000000e-01,1.998291015625000000e-01,7.202148437500000000e-01,5.310058593750000000e-01
-1.000000000000000000e+00,8.000000000000000000e+00,1.000000000000000000e+00,4.000000000000000000e+00,3.000000000000000000e+00,-9.000000000000000000e+00,-7.000000000000000000e+00,-3.000000000000000000e+00,-3.991699218750000000e-01,1.998291015625000000e-01,7.202148437500000000e-01,5.310058593750000000e-01
4.000000000000000000e+00,-1.600000000000000000e+01,-1.400000000000000000e+01,-1.000000000000000000e+01,-3.000000000000000000e+00,5.000000000000000000e+00,-1.000000000000000000e+00,1.000000000000000000e+00,-3.991699218750000000e-01,1.998291015625000000e-01,7.202148437500000000e-01,5.310058593750000000e-01
3.000000000000000000e+00,5.000000000000000000e+00,-3.000000000000000000e+00,1.000000000000000000e+00,-2.000000000000000000e+00,-6.000000000000000000e+00,1.000000000000000000e+00,-3.000000000000000000e+00,-3.984985351562500000e-01,1.981811523437500000e-01,7.186889648437500000e-01,5.341796875000000000e-01
-4.000000000000000000e+00,-1.300000000000000000e+01,-3.000000000000000000e+00,-1.000000000000000000e+00,-4.000000000000000000e+00,0.000000000000000000e+00,-6.000000000000000000e+00,-5.000000000000000000e+00,-3.984985351562500000e-01,1.981811523437500000e-01,7.186889648437500000e-01,5.341796875000000000e-01
1.300000000000000000e+01,1.800000000000000000e+01,6.000000000000000000e+00,4.000000000000000000e+00,-2.000000000000000000e+00,-8.000000000000000000e+00,7.000000000000000000e+00,1.500000000000000000e+01,-3.984985351562500000e-01,1.981811523437500000e-01,7.186889648437500000e-01,5.341796875000000000e-01
1.000000000000000000e+00,-1.100000000000000000e+01,3.000000000000000000e+00,-2.000000000000000000e+00,2.000000000000000000e+00,5.000000000000000000e+00,-2.000000000000000000e+00,-1.000000000000000000e+00,-3.984985351562500000e-01,1.981811523437500000e-01,7.186889648437500000e-01,5.341796875000000000e-01
-1.000000000000000000e+01,3.000000000000000000e+00,-1.200000000000000000e+01,2.000000000000000000e+00,-4.000000000000000000e+00,-4.000000000000000000e+00,-5.000000000000000000e+00,-1.000000000000000000e+00,-3.968505859375000000e-01,1.971435546875000000e-01,7.174072265625000000e-01,5.374755859375000000e-01
-7.000000000000000000e+00,-1.000000000000000000e+00,-8.000000000000000000e+00,-1.000000000000000000e+00,-4.000000000000000000e+00,2.000000000000000000e+00,-4.000000000000000000e+00,-3.000000000000000000e+00,-3.968505859375000000e-01,1.971435546875000000e-01,7.174072265625000000e-01,5.374755859375000000e-01
-1.700000000000000000e+01,-2.500000000000000000e+01,2.000000000000000000e+00,6.000000000000000000e+00,3.000000000000000000e+00,3.000000000000000000e+00,5.000000000000000000e+00,-8.000000000000000000e+00,-3.968505859375000000e-01,1.971435546875000000e-01,7.174072265625000000e-01,5.374755859375000000e-01
2.500000000000000000e+01,2.200000000000000000e+01,-1.300000000000000000e+01,-1.700000000000000000e+01,-7.000000000000000000e+00,-8.000000000000000000e+00,-7.000000000000000000e+00,7.000000000000000000e+00,-3.968505859375000000e-01,1.971435546875000000e-01,7.174072265625000000e-01,5.374755859375000000e-01
1.200000000000000000e+01,2.200000000000000000e+01,1.900000000000000000e+01,-8.000000000000000000e+00,-3.000000000000000000e+00,0.000000000000000000e+00,-4.000000000000000000e+00,6.000000000000000000e+00,-3.947143554687500000e-01,1.968994140625000000e-01,7.171020507812500000e-01,5.395507812500000000e-01
-3.000000000000000000e+00,-1.800000000000000000e+01,-7.000000000000000000e+00,1.100000000000000000e+01,4.000000000000000000e+00,-1.000000000000000000e+00,2.000000000000000000e+00,-5.000000000000000000e+00,-3.947143554687500000e-01,1.968994140625000000e-01,7.171020507812500000e-01,5.395507812500000000e-01
-2.000000000000000000e+00,6.000000000000000000e+00,0.000000000000000000e+00,-4.000000000000000000e+00,-3.000000000000000000e+00,-1.000000000000000000e+00,0.000000000000000000e+00,-2.000000000000000000e+00,-3.947143554687500000e-01,1.968994140625000000e-01,7.171020507812500000e-01,5.395507812500000000e-01
-2.100000000000000000e+01,-1.700000000000000000e+01,-1.100000000000000000e+01,-2.000000000000000000e+00,-7.000000000000000000e+00,-9.000000000000000000e+00,-6.000000000000000000e+00,-7.000000000000000000e+00,-3.947143554687500000e-01,1.968994140625000000e-01,7.171020507812500000e-01,5.395507812500000000e-01
-1.900000000000000000e+01,-5.000000000000000000e+00,6.000000000000000000e+00,8.000000000000000000e+00,2.000000000000000000e+00,8.000000000000000000e+00,9.000000000000000000e+00,-1.000000000000000000e+00,-3.941650390625000000e-01,1.940917968750000000e-01,7.177124023437500000e-01,5.401611328125000000e-01
3.200000000000000000e+01,1.400000000000000000e+01,6.000000000000000000e+00,-7.000000000000000000e+00,-6.000000000000000000e+00,-9.000000000000000000e+00,-5.000000000000000000e+00,9.000000000000000000e+00,-3.941650390625000000e-01,1.940917968750000000e-01,7.177124023437500000e-01,5.401611328125000000e-01
-3.900000000000000000e+01,-1.800000000000000000e+01,0.000000000000000000e+00,-1.000000000000000000e+00,-7.000000000000000000e+00,-3.000000000000000000e+00,-3.000000000000000000e+00,-7.000000000000000000e+00,-3.941650390625000000e-01,1.940917968750000000e-01,7.177124023437500000e-01,5.401611328125000000e-01
2.800000000000000000e+01,0.000000000000000000e+00,-9.000000000000000000e+00,4.000000000000000000e+00,7.000000000000000000e+00,-1.000000000000000000e+00,4.000000000000000000e+00,7.000000000000000000e+00,-3.941650390625000000e-01,1.940917968750000000e-01,7.177124023437500000e-01,5.401611328125000000e-01
-1.200000000000000000e+01,-1.000000000000000000e+00,4.000000000000000000e+00,0.000000000000000000e+00,-2.000000000000000000e+00,-2.000000000000000000e+00,-7.000000000000000000e+00,-3.000000000000000000e+00,-3.942260742187500000e-01,1.899414062500000000e-01,7.179565429687500000e-01,5.412597656250000000e-01
-1.200000000000000000e+01,8.000000000000000000e+00,3.000000000000000000e+00,7.000000000000000000e+00,0.000000000000000000e+00,1.600000000000000000e+01,1.300000000000000000e+01,0.000000000000000000e+00,-3.942260742187500000e-01,1.899414062500000000e-01,7.179565429687500000e-01,5.412597656250000000e-01
1.500000000000000000e+01,-4.000000000000000000e+00,-4.000000000000000000e+00,-5.000000000000000000e+00,3.000000000000000000e+00,-1.300000000000000000e+01,-1.600000000000000000e+01,0.000000000000000000e+00,-3.942260742187500000e-01,1.899414062500000000e-01,7.179565429687500000e-01,5.412597656250000000e-01
4.000000000000000000e+00,-8.000000000000000000e+00,8.000000000000000000e+00,-1.000000000000000000e+00,-3.000000000000000000e+00,1.900000000000000000e+01,6.000000000000000000e+00,-1.000000000000000000e+00,-3.942260742187500000e-01,1.899414062500000000e-01,7.179565429687500000e-01,5.412597656250000000e-01
-5.000000000000000000e+00,-2.000000000000000000e+01,-5.000000000000000000e+00,-4.000000000000000000e+00,-2.000000000000000000e+00,-7.000000000000000000e+00,0.000000000000000000e+00,-6.000000000000000000e+00,-3.940429687500000000e-01,1.865234375000000000e-01,7.172851562500000000e-01,5.435180664062500000e-01
1.100000000000000000e+01,1.100000000000000000e+01,-1.000000000000000000e+00,-4.000000000000000000e+00,4.000000000000000000e+00,-1.000000000000000000e+00,0.000000000000000000e+00,3.000000000000000000e+00,-3.940429687500000000e-01,1.865234375000000000e-01,7.172851562500000000e-01,5.435180664062500000e-01
0.000000000000000000e+00,-3.000000000000000000e+00,-1.000000000000000000e+00,-1.000000000000000000e+00,-3.000000000000000000e+00,3.000000000000000000e+00,1.000000000000000000e+01,1.000000000000000000e+00,-3.940429687500000000e-01,1.865234375000000000e-01,7.172851562500000000e-01,5.435180664062500000e-01
-2.000000000000000000e+00,-6.000000000000000000e+00,1.000000000000000000e+00,0.000000000000000000e+00,2.000000000000000000e+00,-3.000000000000000000e+00,-9.000000000000000000e+00,-2.000000000000000000e+00,-3.940429687500000000e-01,1.865234375000000000e-01,7.172851562500000000e-01,5.435180664062500000e-01
0.000000000000000000e+00,5.000000000000000000e+00,-8.000000000000000000e+00,1.000000000000000000e+00,-3.000000000000000000e+00,-6.000000000000000000e+00,-5.000000000000000000e+00,-4.000000000000000000e+00,-3.937988281250000000e-01,1.845092773437500000e-01,7.161254882812500000e-01,5.458984375000000000e-01
-1.300000000000000000e+01,-4.000000000000000000e+00,2.000000000000000000e+00,-4.000000000000000000e+00,-1.000000000000000000e+00,-3.000000000000000000e+00,-1.000000000000000000e+00,-3.000000000000000000e+00,-3.937988281250000000e-01,1.845092773437500000e-01,7.161254882812500000e-01,5.458984375000000000e-01
6.000000000000000000e+00,1.100000000000000000e+01,-1.600000000000000000e+01,1.000000000000000000e+00,-3.000000000000000000e+00,4.000000000000000000e+00,-2.000000000000000000e+00,-2.000000000000000000e+00,-3.937988281250000000e-01,1.845092773437500000e-01,7.161254882812500000e-01,5.458984375000000000e-01
-1.600000000000000000e+01,-5.000000000000000000e+01,-2.000000000000000000e+01,-8.000000000000000000e+00,-3.000000000000000000e+00,-8.000000000000000000e+00,-5.000000000000000000e+00,-1.000000000000000000e+00,-3.937988281250000000e-01,1.845092773437500000e-01,7.161254882812500000e-01,5.458984375000000000e-01
-3.000000000000000000e+00,2.700000000000000000e+01,0.000000000000000000e+00,-2.000000000000000000e+00,-1.000000000000000000e+00,1.000000000000000000e+00,-1.000000000000000000e+00,-2.000000000000000000e+00,-3.933105468750000000e-01,1.836547851562500000e-01,7.150268554687500000e-01,5.479125976562500000e-01
-1.000000000000000000e+01,-9.000000000000000000e+00,-5.000000000000000000e+00,-5.000000000000000000e+00,2.000000000000000000e+00,-8.000000000000000000e+00,3.000000000000000000e+00,-1.000000000000000000e+00,-3.933105468750000000e-01,1.836547851562500000e-01,7.150268554687500000e-01,5.479125976562500000e-01
9.000000000000000000e+00,6.000000000000000000e+00,1.000000000000000000e+00,0.000000000000000000e+00,0.000000000000000000e+00,1.000000000000000000e+00,-1.000000000000000000e+00,2.000000000000000000e+00,-3.933105468750000000e-01,1.836547851562500000e-01,7.150268554687500000e-01,5.479125976562500000e-01
-4.000000000000000000e+00,6.000000000000000000e+00,4.000000000000000000e+00,4.000000000000000000e+00,1.000000000000000000e+00,-3.000000000000000000e+00,4.000000000000000000e+00,0.000000000000000000e+00,-3.933105468750000000e-01,1.836547851562500000e-01,7.150268554687500000e-01,5.479125976562500000e-01
-1.000000000000000000e+00,-1.100000000000000000e+01,5.000000000000000000e+00,0.000000000000000000e+00,5.000000000000000000e+00,9.000000000000000000e+00,9.000000000000000000e+00,-1.000000000000000000e+00,-3.933715820312500000e-01,1.829833984375000000e-01,7.142333984375000000e-01,5.491943359375000000e-01
-3.000000000000000000e+00,-1.000000000000000000e+00,0.000000000000000000e+00,-2.000000000000000000e+00,4.000000000000000000e+00,1.000000000000000000e+00,4.000000000000000000e+00,1.000000000000000000e+00,-3.933715820312500000e-01,1.829833984375000000e-01,7.142333984375000000e-01,5.491943359375000000e-01
7.000000000000000000e+00,2.000000000000000000e+00,-2.000000000000000000e+00,-2.000000000000000000e+00,-1.000000000000000000e+00,-2.000000000000000000e+00,-7.000000000000000000e+00,-3.000000000000000000e+00,-3.933715820312500000e-01,1.829833984375000000e-01,7.142333984375000000e-01,5.491943359375000000e-01
-6.000000000000000000e+00,9.000000000000000000e+00,6.000000000000000000e+00,1.000000000000000000e+00,-4.000000000000000000e+00,-9.000000000000000000e+00,-8.000000000000000000e+00,-9.000000000000000000e+00,-3.933715820312500000e-01,1.829833984375000000e-01,7.142333984375000000e-01,5.491943359375000000e-01
3.000000000000000000e+00,-2.000000000000000000e+00,-1.000000000000000000e+00,-3.000000000000000000e+00,-4.000000000000000000e+00,-7.000000000000000000e+00,0.000000000000000000e+00,9.000000000000000000e+00,-3.941040039062500000e-01,1.813964843750000000e-01,7.136840820312500000e-01,5.498657226562500000e-01
-3.000000000000000000e+00,6.000000000000000000e+00,5.000000000000000000e+00,-3.000000000000000000e+00,-4.000000000000000000e+00,8.000000000000000000e+00,6.000000000000000000e+00,-3.000000000000000000e+00,-3.941040039062500000e-01,1.813964843750000000e-01,7.136840820312500000e-01,5.498657226562500000e-01
-8.000000000000000000e+00,-1.200000000000000000e+01,-9.000000000000000000e+00,-1.000000000000000000e+00,-4.000000000000000000e+00,-1.900000000000000000e+01,-1.700000000000000000e+01,-3.000000000000000000e+00,-3.941040039062500000e-01,1.813964843750000000e-01,7.136840820312500000e-01,5.498657226562500000e-01
1.000000000000000000e+00,1.200000000000000000e+01,5.000000000000000000e+00,7.000000000000000000e+00,1.300000000000000000e+01,3.100000000000000000e+01,1.300000000000000000e+01,2.000000000000000000e+00,-3.941040039062500000e-01,1.813964843750000000e-01,7.136840820312500000e-01,5.498657226562500000e-01
-4.700000000000000000e+01,-2.000000000000000000e+00,-7.000000000000000000e+00,-2.000000000000000000e+00,-3.000000000000000000e+00,-6.000000000000000000e+00,-4.000000000000000000e+00,-1.000000000000000000e+01,-3.950195312500000000e-01,1.794433593750000000e-01,7.130737304687500000e-01,5.506591796875000000e-01
3.600000000000000000e+01,-2.000000000000000000e+01,-2.000000000000000000e+00,-1.300000000000000000e+01,-8.000000000000000000e+00,-1.300000000000000000e+01,-9.000000000000000000e+00,-4.000000000000000000e+00,-3.950195312500000000e-01,1.794433593750000000e-01,7.130737304687500000e-01,5.506591796875000000e-01
1.000000000000000000e+00,-2.000000000000000000e+00,1.100000000000000000e+01,-5.000000000000000000e+00,-4.000000000000000000e+00,4.000000000000000000e+00,-3.000000000000000000e+00,9.000000000000000000e+00,-3.950195312500000000e-01,1.794433593750000000e-01,7.130737304687500000e-01,5.506591796875000000e-01
-9.000000000000000000e+00,3.000000000000000000e+00,6.000000000000000000e+00,2.000000000000000000e+00,-6.000000000000000000e+00,-1.300000000000000000e+01,-1.000000000000000000e+01,-7.000000000000000000e+00,-3.950195312500000000e-01,1.794433593750000000e-01,7.130737304687500000e-01,5.506591796875000000e-01
1.900000000000000000e+01,6.000000000000000000e+00,-2.000000000000000000e+00,-8.000000000000000000e+00,-6.000000000000000000e+00,-7.000000000000000000e+00,-2.000000000000000000e+00,4.000000000000000000e+00,-3.954467773437500000e-01,1.784057617187500000e-01,7.124023437500000000e-01,5.515136718750000000e-01
-3.000000000000000000e+01,-4.000000000000000000e+00,5.000000000000000000e+00,1.100000000000000000e+01,1.000000000000000000e+00,-2.000000000000000000e+00,7.000000000000000000e+00,-4.000000000000000000e+00,-3.954467773437500000e-01,1.784057617187500000e-01,7.124023437500000000e-01,5.515136718750000000e-01
1.600000000000000000e+01,2.000000000000000000e+01,-1.000000000000000000e+00,-1.200000000000000000e+01,-1.000000000000000000e+00,-3.000000000000000000e+00,-1.100000000000000000e+01,-4.000000000000000000e+00,-3.954467773437500000e-01,1.784057617187500000e-01,7.124023437500000000e-01,5.515136718750000000e-01
-4.000000000000000000e+00,9.000000000000000000e+00,1.000000000000000000e+01,8.000000000000000000e+00,1.000000000000000000e+00,-4.000000000000000000e+00,-1.000000000000000000e+00,2.000000000000000000e+00,-3.954467773437500000e-01,1.784057617187500000e-01,7.124023437500000000e-01,5.515136718750000000e-01
-6.100000000000000000e+01,-1.300000000000000000e+01,1.600000000000000000e+01,1.000000000000000000e+00,2.000000000000000000e+00,1.000000000000000000e+00,-6.000000000000000000e+00,-1.200000000000000000e+01,-3.956909179687500000e-01,1.778564453125000000e-01,7.117309570312500000e-01,5.524291992187500000e-01
6.100000000000000000e+01,1.800000000000000000e+01,-3.000000000000000000e+00,1.000000000000000000e+00,2.000000000000000000e+00,2.000000000000000000e+00,5.000000000000000000e+00,1.500000000000000000e+01,-3.956909179687500000e-01,1.778564453125000000e-01,7.117309570312500000e-01,5.524291992187500000e-01
-6.000000000000000000e+00,7.000000000000000000e+00,7.000000000000000000e+00,5.000000000000000000e+00,0.000000000000000000e+00,3.000000000000000000e+00,5.000000000000000000e+00,-4.000000000000000000e+00,-3.956909179687500000e-01,1.778564453125000000e-01,7.117309570312500000e-01,5.524291992187500000e-01
-1.300000000000000000e+01,2.000000000000000000e+00,0.000000000000000000e+00,-1.000000000000000000e+00,2.000000000000000000e+00,1.000000000000000000e+00,1.000000000000000000e+00,-1.000000000000000000e+00,-3.956909179687500000e-01,1.778564453125000000e-01,7.117309570312500000e-01,5.524291992187500000e-01
-7.000000000000000000e+00,-2.000000000000000000e+01,4.000000000000000000e+00,1.000000000000000000e+00,0.000000000000000000e+00,-1.000000000000000000e+00,3.000000000000000000e+00,-3.000000000000000000e+00,-3.955688476562500000e-01,1.779785156250000000e-01,7.109375000000000000e-01,5.534667968750000000e-01
-1.100000000000000000e+01,-6.000000000000000000e+00,-8.000000000000000000e+00,-1.200000000000000000e+01,2.000000000000000000e+00,6.000000000000000000e+00,0.000000000000000000e+00,-2.000000000000000000e+00,-3.955688476562500000e-01,1.779785156250000000e-01,7.109375000000000000e-01,5.534667968750000000e-01
1.300000000000000000e+01,2.000000000000000000e+01,6.000000000000000000e+00,1.400000000000000000e+01,1.000000000000000000e+00,4.000000000000000000e+00,1.300000000000000000e+01,1.000000000000000000e+00,-3.955688476562500000e-01,1.779785156250000000e-01,7.109375000000000000e-01,5.534667968750000000e-01
8.000000000000000000e+00,-5.000000000000000000e+00,1.000000000000000000e+00,-7.000000000000000000e+00,-7.000000000000000000e+00,-6.000000000000000000e+00,-2.600000000000000000e+01,0.000000000000000000e+00,-3.955688476562500000e-01,1.779785156250000000e-01,7.109375000000000000e-01,5.534667968750000000e-01
1.200000000000000000e+01,-5.000000000000000000e+00,-6.000000000000000000e+00,0.000000000000000000e+00,-2.000000000000000000e+00,0.000000000000000000e+00,4.000000000000000000e+00,-1.000000000000000000e+00,-3.947753906250000000e-01,1.781616210937500000e-01,7.106933593750000000e-01,5.543212890625000000e-01
-1.600000000000000000e+01,-3.000000000000000000e+00,5.000000000000000000e+00,1.000000000000000000e+00,-1.000000000000000000e+00,-4.000000000000000000e+00,-5.000000000000000000e+00,-2.000000000000000000e+00,-3.947753906250000000e-01,1.781616210937500000e-01,7.106933593750000000e-01,5.543212890625000000e-01
-2.000000000000000000e+00,-1.200000000000000000e+01,-2.000000000000000000e+00,-8.000000000000000000e+00,-6.000000000000000000e+00,-1.100000000000000000e+01,-4.000000000000000000e+00,0.000000000000000000e+00,-3.947753906250000000e-01,1.781616210937500000e-01,7.106933593750000000e-01,5.543212890625000000e-01
-4.000000000000000000e+00,2.000000000000000000e+00,-2.000000000000000000e+00,2.000000000000000000e+00,1.000000000000000000e+00,1.100000000000000000e+01,9.000000000000000000e+00,-1.000000000000000000e+00,-3.947753906250000000e-01,1.781616210937500000e-01,7.106933593750000000e-01,5.543212890625000000e-01
2.600000000000000000e+01,4.000000000000000000e+00,-1.000000000000000000e+00,-2.000000000000000000e+00,1.000000000000000000e+00,-6.000000000000000000e+00,-8.000000000000000000e+00,3.000000000000000000e+00,-3.940429687500000000e-01,1.771850585937500000e-01,7.108764648437500000e-01,5.549316406250000000e-01
-1.300000000000000000e+01,-1.900000000000000000e+01,-2.000000000000000000e+00,-1.000000000000000000e+00,-5.000000000000000000e+00,5.000000000000000000e+00,-1.000000000000000000e+00,-2.000000000000000000e+00,-3.940429687500000000e-01,1.771850585937500000e-01,7.108764648437500000e-01,5.549316406250000000e-01
1.000000000000000000e+00,1.200000000000000000e+01,0.000000000000000000e+00,2.000000000000000000e+00,0.000000000000000000e+00,2.000000000000000000e+00,4.000000000000000000e+00,-2.000000000000000000e+00,-3.940429687500000000e-01,1.771850585937500000e-01,7.108764648437500000e-01,5.549316406250000000e-01
-1.000000000000000000e+00,5.000000000000000000e+00,-9.000000000000000000e+00,-3.000000000000000000e+00,0.000000000000000000e+00,-9.000000000000000000e+00,-2.000000000000000000e+00,-2.000000000000000000e+00,-3.940429687500000000e-01,1.771850585937500000e-01,7.108764648437500000e-01,5.549316406250000000e-01
-1.400000000000000000e+01,-1.800000000000000000e+01,-2.000000000000000000e+00,-2.000000000000000000e+00,-2.000000000000000000e+00,-3.000000000000000000e+00,-5.000000000000000000e+00,-2.000000000000000000e+00,-3.939819335937500000e-01,1.753540039062500000e-01,7.108764648437500000e-01,5.555419921875000000e-01
-1.000000000000000000e+00,5.000000000000000000e+00,3.000000000000000000e+00,-2.000000000000000000e+00,-2.000000000000000000e+00,0.000000000000000000e+00,5.000000000000000000e+00,-4.000000000000000000e+00,-3.939819335937500000e-01,1.753540039062500000e-01,7.108764648437500000e-01,5.555419921875000000e-01
-1.000000000000000000e+00,-1.500000000000000000e+01,-6.000000000000000000e+00,3.000000000000000000e+00,4.000000000000000000e+00,4.000000000000000000e+00,0.000000000000000000e+00,2.000000000000000000e+00,-3.939819335937500000e-01,1.753540039062500000e-01,7.108764648437500000e-01,5.555419921875000000e-01
3.200000000000000000e+01,4.000000000000000000e+00,-4.000000000000000000e+00,-6.000000000000000000e+00,-3.000000000000000000e+00,-5.000000000000000000e+00,3.000000000000000000e+00,4.000000000000000000e+00,-3.939819335937500000e-01,1.753540039062500000e-01,7.108764648437500000e-01,5.555419921875000000e-01
2.100000000000000000e+01,1.100000000000000000e+01,5.000000000000000000e+00,1.000000000000000000e+00,1.000000000000000000e+00,6.000000000000000000e+00,4.000000000000000000e+00,3.000000000000000000e+00,-3.942871093750000000e-01,1.732177734375000000e-01,7.106323242187500000e-01,5.562744140625000000e-01
-2.900000000000000000e+01,-2.000000000000000000e+00,-9.000000000000000000e+00,-9.000000000000000000e+00,-5.000000000000000000e+00,-5.000000000000000000e+00,-4.000000000000000000e+00,-4.000000000000000000e+00,-3.942871093750000000e-01,1.732177734375000000e-01,7.106323242187500000e-01,5.562744140625000000e-01
-9.000000000000000000e+00,-4.000000000000000000e+00,2.000000000000000000e+00,3.000000000000000000e+00,4.000000000000000000e+00,2.000000000000000000e+00,1.000000000000000000e+00,-3.000000000000000000e+00,-3.942871093750000000e-01,1.732177734375000000e-01,7.106323242187500000e-01,5.562744140625000000e-01
-1.400000000000000000e+01,-5.000000000000000000e+00,-1.300000000000000000e+01,1.600000000000000000e+01,3.000000000000000000e+00,-6.000000000000000000e+00,-3.000000000000000000e+00,-2.000000000000000000e+00,-3.942871093750000000e-01,1.732177734375000000e-01,7.106323242187500000e-01,5.562744140625000000e-01
8.000000000000000000e+00,1.100000000000000000e+01,2.000000000000000000e+00,-1.500000000000000000e+01,1.000000000000000000e+00,7.000000000000000000e+00,4.000000000000000000e+00,1.000000000000000000e+00,-3.939819335937500000e-01,1.724853515625000000e-01,7.104492187500000000e-01,5.569458007812500000e-01
9.000000000000000000e+00,3.000000000000000000e+00,3.000000000000000000e+00,1.600000000000000000e+01,2.000000000000000000e+00,-4.000000000000000000e+00,-6.000000000000000000e+00,0.000000000000000000e+00,-3.939819335937500000e-01,1.724853515625000000e-01,7.104492187500000000e-01,5.569458007812500000e-01
-4.000000000000000000e+00,-4.000000000000000000e+00,-7.000000000000000000e+00,-8.000000000000000000e+00,-1.000000000000000000e+00,-1.000000000000000000e+00,-5.000000000000000000e+00,-4.000000000000000000e+00,-3.939819335937500000e-01,1.724853515625000000e-01,7.104492187500000000e-01,5.569458007812500000e-01
-4.000000000000000000e+00,-1.000000000000000000e+00,2.000000000000000000e+00,-1.400000000000000000e+01,-1.200000000000000000e+01,-1.000000000000000000e+00,2.000000000000000000e+00,2.000000000000000000e+00,-3.939819335937500000e-01,1.724853515625000000e-01,7.104492187500000000e-01,5.569458007812500000e-01
7.000000000000000000e+00,-2.500000000000000000e+01,-1.500000000000000000e+01,7.000000000000000000e+00,2.000000000000000000e+00,-3.000000000000000000e+00,0.000000000000000000e+00,-1.000000000000000000e+00,-3.936767578125000000e-01,1.726074218750000000e-01,7.102661132812500000e-01,5.573730468750000000e-01
-3.200000000000000000e+01,1.700000000000000000e+01,-9.000000000000000000e+00,-8.000000000000000000e+00,-3.000000000000000000e+00,-1.000000000000000000e+00,-7.000000000000000000e+00,-3.000000000000000000e+00,-3.936767578125000000e-01,1.726074218750000000e-01,7.102661132812500000e-01,5.573730468750000000e-01
1.900000000000000000e+01,-2.000000000000000000e+00,-3.000000000000000000e+00,4.000000000000000000e+00,2.000000000000000000e+00,2.000000000000000000e+00,1.000000000000000000e+00,0.000000000000000000e+00,-3.936767578125000000e-01,1.726074218750000000e-01,7.102661132812500000e-01,5.573730468750000000e-01
-7.000000000000000000e+00,-1.300000000000000000e+01,6.000000000000000000e+00,7.000000000000000000e+00,-2.000000000000000000e+00,-3.000000000000000000e+00,3.000000000000000000e+00,-3.000000000000000000e+00,-3.936767578125000000e-01,1.726074218750000000e-01,7.102661132812500000e-01,5.573730468750000000e-01
1.000000000000000000e+01,1.800000000000000000e+01,3.000000000000000000e+00,6.000000000000000000e+00,1.000000000000000000e+00,3.000000000000000000e+00,2.000000000000000000e+00,2.000000000000000000e+00,-3.937988281250000000e-01,1.728515625000000000e-01,7.100830078125000000e-01,5.574951171875000000e-01
-8.000000000000000000e+00,-2.900000000000000000e+01,-1.300000000000000000e+01,-3.200000000000000000e+01,-1.600000000000000000e+01,-1.000000000000000000e+01,-1.100000000000000000e+01,-4.000000000000000000e+00,-3.937988281250000000e-01,1.728515625000000000e-01,7.100830078125000000e-01,5.574951171875000000e-01
-3.000000000000000000e+00,-3.000000000000000000e+00,1.000000000000000000e+00,3.000000000000000000e+00,-2.000000000000000000e+00,-7.000000000000000000e+00,9.000000000000000000e+00,1.000000000000000000e+00,-3.937988281250000000e-01,1.728515625000000000e-01,7.100830078125000000e-01,5.574951171875000000e-01
-2.000000000000000000e+00,1.300000000000000000e+01,-3.000000000000000000e+00,4.000000000000000000e+00,5.000000000000000000e+00,6.000000000000000000e+00,-7.000000000000000000e+00,-4.000000000000000000e+00,-3.937988281250000000e-01,1.728515625000000000e-01,7.100830078125000000e-01,5.574951171875000000e-01
2.100000000000000000e+01,-8.000000000000000000e+00,-1.000000000000000000e+00,-2.000000000000000000e+00,-2.000000000000000000e+00,0.000000000000000000e+00,1.100000000000000000e+01,0.000000000000000000e+00,-3.945922851562500000e-01,1.726684570312500000e-01,7.093505859375000000e-01,5.578613281250000000e-01
-7.000000000000000000e+00,2.500000000000000000e+01,1.000000000000000000e+01,1.200000000000000000e+01,4.000000000000000000e+00,-1.200000000000000000e+01,-3.100000000000000000e+01,-5.000000000000000000e+00,-3.945922851562500000e-01,1.726684570312500000e-01,7.093505859375000000e-01,5.578613281250000000e-01
-4.000000000000000000e+00,7.000000000000000000e+00,-8.000000000000000000e+00,-5.000000000000000000e+00,3.000000000000000000e+00,2.700000000000000000e+01,2.200000000000000000e+01,6.000000000000000000e+00,-3.945922851562500000e-01,1.726684570312500000e-01,7.093505859375000000e-01,5.578613281250000000e-01
-1.600000000000000000e+01,-1.500000000000000000e+01,-4.000000000000000000e+00,-9.000000000000000000e+00,-4.000000000000000000e+00,-1.100000000000000000e+01,0.000000000000000000e+00,-3.000000000000000000e+00,-3.945922851562500000e-01,1.726684570312500000e-01,7.093505859375000000e-01,5.578613281250000000e-01
6.000000000000000000e+00,1.400000000000000000e+01,2.000000000000000000e+00,9.000000000000000000e+00,-1.000000000000000000e+00,-5.000000000000000000e+00,-2.000000000000000000e+00,1.000000000000000000e+00,-3.947143554687500000e-01,1.724243164062500000e-01,7.090454101562500000e-01,5.582275390625000000e-01
1.300000000000000000e+01,-3.000000000000000000e+00,2.000000000000000000e+00,-3.000000000000000000e+00,1.000000000000000000e+00,-3.000000000000000000e+00,3.000000000000000000e+00,-2.000000000000000000e+00,-3.947143554687500000e-01,1.724243164062500000e-01,7.090454101562500000e-01,5.582275390625000000e-01
-1.500000000000000000e+01,-1.000000000000000000e+01,-2.000000000000000000e+00,-4.000000000000000000e+00,-5.000000000000000000e+00,-5.000000000000000000e+00,-5.000000000000000000e+00,-5.000000000000000000e+00,-3.947143554687500000e-01,1.724243164062500000e-01,7.090454101562500000e-01,5.582275390625000000e-01
-1.000000000000000000e+00,-5.000000000000000000e+00,7.000000000000000000e+00,0.000000000000000000e+00,2.000000000000000000e+00,-6.000000000000000000e+00,-6.000000000000000000e+00,-1.000000000000000000e+00,-3.947143554687500000e-01,1.724243164062500000e-01,7.090454101562500000e-01,5.582275390625000000e-01
-5.000000000000000000e+00,-4.000000000000000000e+00,-1.500000000000000000e+01,-4.000000000000000000e+00,-7.000000000000000000e+00,-2.000000000000000000e+00,-1.000000000000000000e+00,-1.000000000000000000e+00,-3.946533203125000000e-01,1.718750000000000000e-01,7.089233398437500000e-01,5.586547851562500000e-01
3.000000000000000000e+00,1.200000000000000000e+01,-1.000000000000000000e+00,5.000000000000000000e+00,1.000000000000000000e+00,1.000000000000000000e+00,8.000000000000000000e+00,4.000000000000000000e+00,-3.946533203125000000e-01,1.718750000000000000e-01,7.089233398437500000e-01,5.586547851562500000e-01
-9.000000000000000000e+00,-1.900000000000000000e+01,-3.000000000000000000e+00,-6.000000000000000000e+00,-3.000000000000000000e+00,-4.000000000000000000e+00,-1.000000000000000000e+01,-4.000000000000000000e+00,-3.946533203125000000e-01,1.718750000000000000e-01,7.089233398437500000e-01,5.586547851562500000e-01
-2.000000000000000000e+00,0.000000000000000000e+00,-3.000000000000000000e+00,-2.000000000000000000e+00,4.000000000000000000e+00,5.000000000000000000e+00,1.000000000000000000e+01,1.000000000000000000e+00,-3.946533203125000000e-01,1.718750000000000000e-01,7.089233398437500000e-01,5.586547851562500000e-01
-7.000000000000000000e+00,1.100000000000000000e+01,8.000000000000000000e+00,1.000000000000000000e+00,-1.000000000000000000e+00,-4.000000000000000000e+00,-7.000000000000000000e+00,-2.000000000000000000e+00,-3.943481445312500000e-01,1.723022460937500000e-01,7.091674804687500000e-01,5.584716796875000000e-01
1.200000000000000000e+01,-1.000000000000000000e+01,-5.000000000000000000e+00,-1.000000000000000000e+00,-2.000000000000000000e+00,5.000000000000000000e+00,0.000000000000000000e+00,-1.000000000000000000e+00,-3.943481445312500000e-01,1.723022460937500000e-01,7.091674804687500000e-01,5.584716796875000000e-01
-2.000000000000000000e+00,-3.000000000000000000e+00,0.000000000000000000e+00,-2.000000000000000000e+00,-1.000000000000000000e+00,-6.000000000000000000e+00,-9.000000000000000000e+00,-5.000000000000000000e+00,-3.943481445312500000e-01,1.723022460937500000e-01,7.091674804687500000e-01,5.584716796875000000e-01
1.500000000000000000e+01,1.700000000000000000e+01,6.000000000000000000e+00,3.000000000000000000e+00,-2.000000000000000000e+00,3.000000000000000000e+00,4.000000000000000000e+00,6.000000000000000000e+00,-3.943481445312500000e-01,1.723022460937500000e-01,7.091674804687500000e-01,5.584716796875000000e-01
-6.000000000000000000e+00,-1.100000000000000000e+01,-1.000000000000000000e+00,-2.000000000000000000e+00,2.000000000000000000e+00,4.000000000000000000e+00,1.000000000000000000e+00,-1.000000000000000000e+00,-3.945922851562500000e-01,1.733398437500000000e-01,7.095336914062500000e-01,5.574340820312500000e-01
-1.000000000000000000e+00,-4.000000000000000000e+00,-2.000000000000000000e+00,6.000000000000000000e+00,3.000000000000000000e+00,-1.000000000000000000e+00,0.000000000000000000e+00,0.000000000000000000e+00,-3.945922851562500000e-01,1.733398437500000000e-01,7.095336914062500000e-01,5.574340820312500000e-01
-2.500000000000000000e+01,1.000000000000000000e+00,-5.000000000000000000e+00,-1.000000000000000000e+01,-5.000000000000000000e+00,-3.000000000000000000e+00,1.000000000000000000e+00,-4.000000000000000000e+00,-3.945922851562500000e-01,1.733398437500000000e-01,7.095336914062500000e-01,5.574340820312500000e-01
2.800000000000000000e+01,1.000000000000000000e+00,-1.000000000000000000e+00,-1.000000000000000000e+00,-4.000000000000000000e+00,-4.000000000000000000e+00,-3.000000000000000000e+00,-3.000000000000000000e+00,-3.945922851562500000e-01,1.733398437500000000e-01,7.095336914062500000e-01,5.574340820312500000e-01
2.500000000000000000e+01,5.000000000000000000e+00,4.000000000000000000e+00,-6.000000000000000000e+00,-4.000000000000000000e+00,-7.000000000000000000e+00,-7.000000000000000000e+00,3.000000000000000000e+00,-3.955078125000000000e-01,1.738281250000000000e-01,7.095947265625000000e-01,5.565795898437500000e-01
-5.000000000000000000e+00,-6.000000000000000000e+00,8.000000000000000000e+00,1.200000000000000000e+01,4.000000000000000000e+00,1.200000000000000000e+01,7.000000000000000000e+00,1.000000000000000000e+00,-3.955078125000000000e-01,1.738281250000000000e-01,7.095947265625000000e-01,5.565795898437500000e-01
1.000000000000000000e+00,7.000000000000000000e+00,3.000000000000000000e+00,3.000000000000000000e+00,1.000000000000000000e+00,-7.000000000000000000e+00,-8.000000000000000000e+00,-3.000000000000000000e+00,-3.955078125000000000e-01,1.738281250000000000e-01,7.095947265625000000e-01,5.565795898437500000e-01
-2.400000000000000000e+01,-6.000000000000000000e+00,2.000000000000000000e+00,-5.000000000000000000e+00,-2.000000000000000000e+00,-8.000000000000000000e+00,-4.000000000000000000e+00,-6.000000000000000000e+00,-3.955078125000000000e-01,1.738281250000000000e-01,7.095947265625000000e-01,5.565795898437500000e-01
-1.100000000000000000e+01,-2.000000000000000000e+00,4.000000000000000000e+00,-1.000000000000000000e+00,0.000000000000000000e+00,3.000000000000000000e+00,6.000000000000000000e+00,-6.000000000000000000e+00,-3.961181640625000000e-01,1.743164062500000000e-01,7.094726562500000000e-01,5.561523437500000000e-01
1.100000000000000000e+01,-8.000000000000000000e+00,-3.000000000000000000e+00,2.000000000000000000e+00,0.000000000000000000e+00,-2.000000000000000000e+00,-7.000000000000000000e+00,1.000000000000000000e+00,-3.961181640625000000e-01,1.743164062500000000e-01,7.094726562500000000e-01,5.561523437500000000e-01
4.000000000000000000e+00,8.000000000000000000e+00,-3.000000000000000000e+00,-8.000000000000000000e+00,-6.000000000000000000e+00,-7.000000000000000000e+00,-1.000000000000000000e+00,0.000000000000000000e+00,-3.961181640625000000e-01,1.743164062500000000e-01,7.094726562500000000e-01,5.561523437500000000e-01
1.200000000000000000e+01,1.000000000000000000e+00,-6.000000000000000000e+00,-1.000000000000000000e+00,1.000000000000000000e+00,1.400000000000000000e+01,-2.000000000000000000e+00,-2.000000000000000000e+00,-3.961181640625000000e-01,1.743164062500000000e-01,7.094726562500000000e-01,5.561523437500000000e-01
2.000000000000000000e+01,-1.500000000000000000e+01,4.000000000000000000e+00,1.000000000000000000e+00,-3.000000000000000000e+00,-6.000000000000000000e+00,-2.000000000000000000e+00,2.000000000000000000e+00,-3.969116210937500000e-01,1.747436523437500000e-01,7.090454101562500000e-01,5.559692382812500000e-01
-1.600000000000000000e+01,4.000000000000000000e+00,-3.000000000000000000e+00,-2.000000000000000000e+00,0.000000000000000000e+00,-2.000000000000000000e+00,6.000000000000000000e+00,-5.000000000000000000e+00,-3.969116210937500000e-01,1.747436523437500000e-01,7.090454101562500000e-01,5.559692382812500000e-01
1.100000000000000000e+01,1.100000000000000000e+01,-6.000000000000000000e+00,1.000000000000000000e+00,3.000000000000000000e+00,6.000000000000000000e+00,-5.000000000000000000e+00,2.000000000000000000e+00,-3.969116210937500000e-01,1.747436523437500000e-01,7.090454101562500000e-01,5.559692382812500000e-01
-7.000000000000000000e+00,-9.000000000000000000e+00,8.000000000000000000e+00,-2.000000000000000000e+00,0.000000000000000000e+00,-3.000000000000000000e+00,4.000000000000000000e+00,3.000000000000000000e+00,-3.969116210937500000e-01,1.747436523437500000e-01,7.090454101562500000e-01,5.559692382812500000e-01
-2.700000000000000000e+01,0.000000000000000000e+00,0.000000000000000000e+00,-4.000000000000000000e+00,0.000000000000000000e+00,2.000000000000000000e+00,-9.000000000000000000e+00,-1.300000000000000000e+01,-3.978271484375000000e-01,1.743164062500000000e-01,7.086181640625000000e-01,5.559692382812500000e-01
1.400000000000000000e+01,-5.000000000000000000e+00,4.000000000000000000e+00,0.000000000000000000e+00,3.000000000000000000e+00,6.000000000000000000e+00,1.200000000000000000e+01,9.000000000000000000e+00,-3.978271484375000000e-01,1.743164062500000000e-01,7.086181640625000000e-01,5.559692382812500000e-01
-2.000000000000000000e+00,4.000000000000000000e+00,-1.000000000000000000e+00,-1.300000000000000000e+01,-3.000000000000000000e+00,-4.000000000000000000e+00,-8.000000000000000000e+00,3.000000000000000000e+00,-3.978271484375000000e-01,1.743164062500000000e-01,7.086181640625000000e-01,5.559692382812500000e-01
0.000000000000000000e+00,-5.000000000000000000e+00,8.000000000000000000e+00,9.000000000000000000e+00,-4.000000000000000000e+00,-8.000000000000000000e+00,-7.000000000000000000e+00,-6.000000000000000000e+00,-3.978271484375000000e-01,1.743164062500000000e-01,7.086181640625000000e-01,5.559692382812500000e-01
-8.000000000000000000e+00,3.000000000000000000e+00,-3.000000000000000000e+00,9.000000000000000000e+00,0.000000000000000000e+00,2.000000000000000000e+00,0.000000000000000000e+00,0.000000000000000000e+00,-3.984985351562500000e-01,1.736450195312500000e-01,7.081909179687500000e-01,5.562744140625000000e-01
-6.000000000000000000e+00,4.000000000000000000e+00,-3.000000000000000000e+00,-1.000000000000000000e+01,-1.000000000000000000e+00,-4.000000000000000000e+00,3.000000000000000000e+00,-8.000000000000000000e+00,-3.984985351562500000e-01,1.736450195312500000e-01,7.081909179687500000e-01,5.562744140625000000e-01
2.000000000000000000e+00,-6.000000000000000000e+00,-2.000000000000000000e+00,8.000000000000000000e+00,5.000000000000000000e+00,-3.000000000000000000e+00,-7.000000000000000000e+00,-4.000000000000000000e+00,-3.984985351562500000e-01,1.736450195312500000e-01,7.081909179687500000e-01,5.562744140625000000e-01
-4.000000000000000000e+00,2.000000000000000000e+00,-1.000000000000000000e+00,-1.600000000000000000e+01,-3.000000000000000000e+00,5.000000000000000000e+00,4.000000000000000000e+00,3.000000000000000000e+00,-3.984985351562500000e-01,1.736450195312500000e-01,7.081909179687500000e-01,5.562744140625000000e-01
-1.000000000000000000e+00,0.000000000000000000e+00,-1.000000000000000000e+00,1.200000000000000000e+01,5.000000000000000000e+00,2.000000000000000000e+00,-2.000000000000000000e+00,-3.000000000000000000e+00,-3.989868164062500000e-01,1.727294921875000000e-01,7.080078125000000000e-01,5.564575195312500000e-01
-5.000000000000000000e+00,-4.000000000000000000e+00,-1.300000000000000000e+01,-2.500000000000000000e+01,-7.000000000000000000e+00,-1.000000000000000000e+01,-4.000000000000000000e+00,0.000000000000000000e+00,-3.989868164062500000e-01,1.727294921875000000e-01,7.080078125000000000e-01,5.564575195312500000e-01
9.000000000000000000e+00,0.000000000000000000e+00,1.500000000000000000e+01,2.100000000000000000e+01,0.000000000000000000e+00,9.000000000000000000e+00,1.100000000000000000e+01,3.000000000000000000e+00,-3.989868164062500000e-01,1.727294921875000000e-01,7.080078125000000000e-01,5.564575195312500000e-01
-6.000000000000000000e+00,2.000000000000000000e+00,-1.500000000000000000e+01,1.000000000000000000e+00,-1.000000000000000000e+00,1.000000000000000000e+00,-5.000000000000000000e+00,-2.000000000000000000e+00,-3.989868164062500000e-01,1.727294921875000000e-01,7.080078125000000000e-01,5.564575195312500000e-01
3.000000000000000000e+00,-5.000000000000000000e+00,5.000000000000000000e+00,-5.000000000000000000e+00,-4.000000000000000000e+00,-2.000000000000000000e+00,-6.000000000000000000e+00,-1.000000000000000000e+00,-3.999023437500000000e-01,1.713256835937500000e-01,7.074584960937500000e-01,5.568847656250000000e-01
-5.000000000000000000e+00,1.400000000000000000e+01,-8.000000000000000000e+00,3.000000000000000000e+00,-1.000000000000000000e+00,-4.000000000000000000e+00,-1.000000000000000000e+00,-2.000000000000000000e+00,-3.999023437500000000e-01,1.713256835937500000e-01,7.074584960937500000e-01,5.568847656250000000e-01
-3.000000000000000000e+00,1.000000000000000000e+00,-1.000000000000000000e+00,1.000000000000000000e+00,4.000000000000000000e+00,0.000000000000000000e+00,-3.000000000000000000e+00,-4.000000000000000000e+00,-3.999023437500000000e-01,1.713256835937500000e-01,7.074584960937500000e-01,5.568847656250000000e-01
-3.000000000000000000e+00,0.000000000000000000e+00,-2.000000000000000000e+00,-1.000000000000000000e+00,1.000000000000000000e+00,-1.000000000000000000e+00,-1.000000000000000000e+00,0.000000000000000000e+00,-3.999023437500000000e-01,1.713256835937500000e-01,7.074584960937500000e-01,5.568847656250000000e-01
-1.000000000000000000e+00,1.000000000000000000e+00,-7.000000000000000000e+00,-1.200000000000000000e+01,-3.000000000000000000e+00,0.000000000000000000e+00,0.000000000000000000e+00,2.000000000000000000e+00,-3.999023437500000000e-01,1.702270507812500000e-01,7.072143554687500000e-01,5.575561523437500000e-01
1.300000000000000000e+01,1.000000000000000000e+01,1.200000000000000000e+01,4.000000000000000000e+00,-2.000000000000000000e+00,2.000000000000000000e+00,3.000000000000000000e+00,3.000000000000000000e+00,-3.999023437500000000e-01,1.702270507812500000e-01,7.072143554687500000e-01,5.575561523437500000e-01
-1.600000000000000000e+01,-1.700000000000000000e+01,-1.000000000000000000e+01,-5.000000000000000000e+00,4.000000000000000000e+00,4.000000000000000000e+00,0.000000000000000000e+00,-2.000000000000000000e+00,-3.999023437500000000e-01,1.702270507812500000e-01,7.072143554687500000e-01,5.575561523437500000e-01
2.000000000000000000e+01,2.200000000000000000e+01,6.000000000000000000e+00,1.100000000000000000e+01,-1.000000000000000000e+00,2.000000000000000000e+00,-2.000000000000000000e+00,2.000000000000000000e+00,-3.999023437500000000e-01,1.702270507812500000e-01,7.072143554687500000e-01,5.575561523437500000e-01
-1.100000000000000000e+01,-5.000000000000000000e+00,2.000000000000000000e+00,-9.000000000000000000e+00,-3.000000000000000000e+00,-8.000000000000000000e+00,3.000000000000000000e+00,-1.000000000000000000e+00,-3.997192382812500000e-01,1.683959960937500000e-01,7.067871093750000000e-01,5.587768554687500000e-01
-1.200000000000000000e+01,6.000000000000000000e+00,8.000000000000000000e+00,3.000000000000000000e+00,0.000000000000000000e+00,7.000000000000000000e+00,-1.300000000000000000e+01,-5.000000000000000000e+00,-3.997192382812500000e-01,1.683959960937500000e-01,7.067871093750000000e-01,5.587768554687500000e-01
9.000000000000000000e+00,-1.200000000000000000e+01,5.000000000000000000e+00,1.000000000000000000e+00,-1.000000000000000000e+00,-1.000000000000000000e+00,7.000000000000000000e+00,-2.000000000000000000e+00,-3.997192382812500000e-01,1.683959960937500000e-01,7.067871093750000000e-01,5.587768554687500000e-01
-5.000000000000000000e+00,7.000000000000000000e+00,-1.500000000000000000e+01,-5.000000000000000000e+00,-1.000000000000000000e+00,-8.000000000000000000e+00,6.000000000000000000e+00,1.000000000000000000e+00,-3.997192382812500000e-01,1.683959960937500000e-01,7.067871093750000000e-01,5.587768554687500000e-01
1.000000000000000000e+00,1.000000000000000000e+00,1.000000000000000000e+01,3.000000000000000000e+00,2.000000000000000000e+00,6.000000000000000000e+00,-9.000000000000000000e+00,0.000000000000000000e+00,-3.996582031250000000e-01,1.659545898437500000e-01,7.062988281250000000e-01,5.601806640625000000e-01
-1.900000000000000000e+01,-4.000000000000000000e+00,-4.000000000000000000e+00,1.300000000000000000e+01,-2.000000000000000000e+00,-9.000000000000000000e+00,-4.000000000000000000e+00,-3.000000000000000000e+00,-3.996582031250000000e-01,1.659545898437500000e-01,7.062988281250000000e-01,5.601806640625000000e-01
1.400000000000000000e+01,-1.500000000000000000e+01,-1.000000000000000000e+00,-5.000000000000000000e+00,-6.000000000000000000e+00,-4.000000000000000000e+00,-2.000000000000000000e+00,-1.000000000000000000e+00,-3.996582031250000000e-01,1.659545898437500000e-01,7.062988281250000000e-01,5.601806640625000000e-01
-2.700000000000000000e+01,-7.000000000000000000e+00,0.000000000000000000e+00,-6.000000000000000000e+00,-2.000000000000000000e+00,-3.000000000000000000e+00,-6.000000000000000000e+00,-5.000000000000000000e+00,-3.996582031250000000e-01,1.659545898437500000e-01,7.062988281250000000e-01,5.601806640625000000e-01
2.400000000000000000e+01,7.000000000000000000e+00,3.000000000000000000e+00,-1.000000000000000000e+00,0.000000000000000000e+00,0.000000000000000000e+00,-2.000000000000000000e+00,-6.000000000000000000e+00,-3.993530273437500000e-01,1.646728515625000000e-01,7.057495117187500000e-01,5.614624023437500000e-01
-1.000000000000000000e+00,-7.000000000000000000e+00,-2.000000000000000000e+00,-1.000000000000000000e+00,-6.000000000000000000e+00,0.000000000000000000e+00,1.000000000000000000e+00,8.000000000000000000e+00,-3.993530273437500000e-01,1.646728515625000000e-01,7.057495117187500000e-01,5.614624023437500000e-01
-7.000000000000000000e+00,6.000000000000000000e+00,-1.000000000000000000e+00,-2.000000000000000000e+00,-6.000000000000000000e+00,-5.000000000000000000e+00,-5.000000000000000000e+00,-4.000000000000000000e+00,-3.993530273437500000e-01,1.646728515625000000e-01,7.057495117187500000e-01,5.614624023437500000e-01
-2.000000000000000000e+00,-8.000000000000000000e+00,-8.000000000000000000e+00,-1.000000000000000000e+01,-2.000000000000000000e+00,3.000000000000000000e+00,2.000000000000000000e+00,-2.000000000000000000e+00,-3.993530273437500000e-01,1.646728515625000000e-01,7.057495117187500000e-01,5.614624023437500000e-01
-7.000000000000000000e+00,2.000000000000000000e+00,3.000000000000000000e+00,1.300000000000000000e+01,3.000000000000000000e+00,-4.000000000000000000e+00,0.000000000000000000e+00,0.000000000000000000e+00,-3.986816406250000000e-01,1.641235351562500000e-01,7.053833007812500000e-01,5.626220703125000000e-01
7.000000000000000000e+00,-1.100000000000000000e+01,-1.200000000000000000e+01,-1.000000000000000000e+01,-1.000000000000000000e+00,3.000000000000000000e+00,0.000000000000000000e+00,-2.000000000000000000e+00,-3.986816406250000000e-01,1.641235351562500000e-01,7.053833007812500000e-01,5.626220703125000000e-01
1.000000000000000000e+00,-1.000000000000000000e+00,0.000000000000000000e+00,4.000000000000000000e+00,-3.000000000000000000e+00,-6.000000000000000000e+00,-4.000000000000000000e+00,1.000000000000000000e+00,-3.986816406250000000e-01,1.641235351562500000e-01,7.053833007812500000e-01,5.626220703125000000e-01
0.000000000000000000e+00,-2.000000000000000000e+00,1.200000000000000000e+01,-1.300000000000000000e+01,-5.000000000000000000e+00,-6.000000000000000000e+00,-1.000000000000000000e+00,0.000000000000000000e+00,-3.986816406250000000e-01,1.641235351562500000e-01,7.053833007812500000e-01,5.626220703125000000e-01
-4.000000000000000000e+00,-2.000000000000000000e+00,-2.100000000000000000e+01,6.000000000000000000e+00,0.000000000000000000e+00,6.000000000000000000e+00,3.000000000000000000e+00,1.000000000000000000e+00,-3.980712890625000000e-01,1.640014648437500000e-01,7.052612304687500000e-01,5.631713867187500000e-01
0.000000000000000000e+00,-8.000000000000000000e+00,6.000000000000000000e+00,-5.000000000000000000e+00,-2.000000000000000000e+00,-4.000000000000000000e+00,2.000000000000000000e+00,-3.000000000000000000e+00,-3.980712890625000000e-01,1.640014648437500000e-01,7.052612304687500000e-01,5.631713867187500000e-01
-1.000000000000000000e+00,6.000000000000000000e+00,-1.000000000000000000e+00,-7.000000000000000000e+00,0.000000000000000000e+00,1.000000000000000000e+00,2.000000000000000000e+00,0.000000000000000000e+00,-3.980712890625000000e-01,1.640014648437500000e-01,7.052612304687500000e-01,5.631713867187500000e-01
-1.300000000000000000e+01,-7.000000000000000000e+00,-1.000000000000000000e+00,3.000000000000000000e+00,6.000000000000000000e+00,6.000000000000000000e+00,3.000000000000000000e+00,0.000000000000000000e+00,-3.980712890625000000e-01,1.640014648437500000e-01,7.052612304687500000e-01,5.631713867187500000e-01
1.300000000000000000e+01,0.000000000000000000e+00,2.000000000000000000e+00,-5.000000000000000000e+00,-1.000000000000000000e+00,2.000000000000000000e+00,0.000000000000000000e+00,3.000000000000000000e+00,-3.981323242187500000e-01,1.633300781250000000e-01,7.050170898437500000e-01,5.637207031250000000e-01
5.000000000000000000e+00,1.000000000000000000e+00,-6.000000000000000000e+00,5.000000000000000000e+00,0.000000000000000000e+00,-9.000000000000000000e+00,-2.000000000000000000e+00,1.000000000000000000e+00,-3.981323242187500000e-01,1.633300781250000000e-01,7.050170898437500000e-01,5.637207031250000000e-01
-5.000000000000000000e+00,1.000000000000000000e+00,-9.000000000000000000e+00,-2.000000000000000000e+00,0.000000000000000000e+00,5.000000000000000000e+00,1.300000000000000000e+01,-2.000000000000000000e+00,-3.981323242187500000e-01,1.633300781250000000e-01,7.050170898437500000e-01,5.637207031250000000e-01
2.000000000000000000e+00,0.000000000000000000e+00,1.000000000000000000e+00,3.000000000000000000e+00,-2.000000000000000000e+00,-4.000000000000000000e+00,-1.300000000000000000e+01,-5.000000000000000000e+00,-3.981323242187500000e-01,1.633300781250000000e-01,7.050170898437500000e-01,5.637207031250000000e-01
-1.000000000000000000e+01,-7.000000000000000000e+00,-8.000000000000000000e+00,-9.000000000000000000e+00,-7.000000000000000000e+00,-6.000000000000000000e+00,-4.000000000000000000e+00,-3.000000000000000000e+00,-3.982543945312500000e-01,1.622924804687500000e-01,7.046508789062500000e-01,5.643310546875000000e-01
-1.800000000000000000e+01,-2.000000000000000000e+00,-1.000000000000000000e+00,0.000000000000000000e+00,3.000000000000000000e+00,2.000000000000000000e+00,-8.000000000000000000e+00,-3.000000000000000000e+00,-3.982543945312500000e-01,1.622924804687500000e-01,7.046508789062500000e-01,5.643310546875000000e-01
1.800000000000000000e+01,6.000000000000000000e+00,-7.000000000000000000e+00,6.000000000000000000e+00,3.000000000000000000e+00,4.000000000000000000e+00,1.300000000000000000e+01,-1.000000000000000000e+00,-3.982543945312500000e-01,1.622924804687500000e-01,7.046508789062500000e-01,5.643310546875000000e-01
-1.000000000000000000e+00,-1.500000000000000000e+01,-3.000000000000000000e+00,-4.000000000000000000e+00,-1.000000000000000000e+00,-4.000000000000000000e+00,-3.000000000000000000e+00,1.000000000000000000e+00,-3.982543945312500000e-01,1.622924804687500000e-01,7.046508789062500000e-01,5.643310546875000000e-01
9.000000000000000000e+00,1.300000000000000000e+01,0.000000000000000000e+00,-2.000000000000000000e+00,-1.000000000000000000e+00,-1.000000000000000000e+00,-1.300000000000000000e+01,2.000000000000000000e+00,-3.981933593750000000e-01,1.611328125000000000e-01,7.045288085937500000e-01,5.648193359375000000e-01
3.000000000000000000e+00,-3.000000000000000000e+00,2.000000000000000000e+00,-4.000000000000000000e+00,-2.000000000000000000e+00,-3.000000000000000000e+00,1.800000000000000000e+01,-2.000000000000000000e+00,-3.981933593750000000e-01,1.611328125000000000e-01,7.045288085937500000e-01,5.648193359375000000e-01
-1.000000000000000000e+01,-3.000000000000000000e+00,0.000000000000000000e+00,0.000000000000000000e+00,0.000000000000000000e+00,0.000000000000000000e+00,-4.000000000000000000e+00,5.000000000000000000e+00,-3.981323242187500000e-01,1.598510742187500000e-01,7.048339843750000000e-01,5.648803710937500000e-01
-3.000000000000000000e+00,-3.000000000000000000e+00,-7.000000000000000000e+00,1.000000000000000000e+00,0.000000000000000000e+00,-1.000000000000000000e+00,-4.000000000000000000e+00,-4.000000000000000000e+00,-3.981323242187500000e-01,1.598510742187500000e-01,7.048339843750000000e-01,5.648803710937500000e-01
-9.000000000000000000e+00,1.400000000000000000e+01,1.000000000000000000e+01,0.000000000000000000e+00,-2.000000000000000000e+00,-4.000000000000000000e+00,0.000000000000000000e+00,-3.000000000000000000e+00,-3.981323242187500000e-01,1.598510742187500000e-01,7.048339843750000000e-01,5.648803710937500000e-01
0.000000000000000000e+00,-9.000000000000000000e+00,-1.000000000000000000e+01,1.000000000000000000e+00,-2.000000000000000000e+00,-1.000000000000000000e+00,-7.000000000000000000e+00,-1.000000000000000000e+00,-3.981323242187500000e-01,1.598510742187500000e-01,7.048339843750000000e-01,5.648803710937500000e-01
6.000000000000000000e+00,2.000000000000000000e+00,0.000000000000000000e+00,-1.000000000000000000e+01,-5.000000000000000000e+00,-2.000000000000000000e+00,-7.000000000000000000e+00,1.000000000000000000e+00,-3.983154296875000000e-01,1.580200195312500000e-01,7.056884765625000000e-01,5.641479492187500000e-01
6.000000000000000000e+00,-1.200000000000000000e+01,1.000000000000000000e+01,4.000000000000000000e+00,3.000000000000000000e+00,0.000000000000000000e+00,9.000000000000000000e+00,-1.000000000000000000e+00,-3.983154296875000000e-01,1.580200195312500000e-01,7.056884765625000000e-01,5.641479492187500000e-01
-1.000000000000000000e+00,-1.000000000000000000e+01,0.000000000000000000e+00,5.000000000000000000e+00,-2.000000000000000000e+00,-1.000000000000000000e+00,-3.000000000000000000e+00,-1.000000000000000000e+00,-3.983154296875000000e-01,1.580200195312500000e-01,7.056884765625000000e-01,5.641479492187500000e-01
-5.000000000000000000e+00,-8.000000000000000000e+00,-1.200000000000000000e+01,-1.200000000000000000e+01,-7.000000000000000000e+00,-1.000000000000000000e+00,-4.000000000000000000e+00,-3.000000000000000000e+00,-3.983154296875000000e-01,1.580200195312500000e-01,7.056884765625000000e-01,5.641479492187500000e-01
-1.100000000000000000e+01,-7.000000000000000000e+00,6.000000000000000000e+00,5.000000000000000000e+00,-1.000000000000000000e+00,-4.000000000000000000e+00,-7.000000000000000000e+00,-3.000000000000000000e+00,-3.985595703125000000e-01,1.557006835937500000e-01,7.069091796875000000e-01,5.631713867187500000e-01
4.000000000000000000e+00,5.000000000000000000e+00,3.000000000000000000e+00,-5.000000000000000000e+00,-4.000000000000000000e+00,-5.000000000000000000e+00,-1.000000000000000000e+00,-6.000000000000000000e+00,-3.985595703125000000e-01,1.557006835937500000e-01,7.069091796875000000e-01,5.631713867187500000e-01
1.200000000000000000e+01,5.000000000000000000e+00,-5.000000000000000000e+00,2.000000000000000000e+00,-1.000000000000000000e+00,-5.000000000000000000e+00,5.000000000000000000e+00,3.000000000000000000e+00,-3.985595703125000000e-01,1.557006835937500000e-01,7.069091796875000000e-01,5.631713867187500000e-01
6.000000000000000000e+00,-1.200000000000000000e+01,5.000000000000000000e+00,-4.000000000000000000e+00,0.000000000000000000e+00,0.000000000000000000e+00,-2.000000000000000000e+00,0.000000000000000000e+00,-3.985595703125000000e-01,1.557006835937500000e-01,7.069091796875000000e-01,5.631713867187500000e-01
-1.200000000000000000e+01,-4.000000000000000000e+00,-4.000000000000000000e+00,5.000000000000000000e+00,0.000000000000000000e+00,-1.000000000000000000e+00,1.000000000000000000e+00,-8.000000000000000000e+00,-3.988037109375000000e-01,1.535644531250000000e-01,7.077026367187500000e-01,5.625610351562500000e-01
0.000000000000000000e+00,-9.000000000000000000e+00,-1.000000000000000000e+01,-7.000000000000000000e+00,-3.000000000000000000e+00,3.000000000000000000e+00,4.000000000000000000e+00,6.000000000000000000e+00,-3.988037109375000000e-01,1.535644531250000000e-01,7.077026367187500000e-01,5.625610351562500000e-01
-1.700000000000000000e+01,1.900000000000000000e+01,7.000000000000000000e+00,2.000000000000000000e+00,-1.000000000000000000e+00,-5.000000000000000000e+00,-3.000000000000000000e+00,-3.000000000000000000e+00,-3.988037109375000000e-01,1.535644531250000000e-01,7.077026367187500000e-01,5.625610351562500000e-01
6.000000000000000000e+00,-7.000000000000000000e+00,2.000000000000000000e+00,1.000000000000000000e+00,-1.000000000000000000e+00,0.000000000000000000e+00,3.000000000000000000e+00,0.000000000000000000e+00,-3.988037109375000000e-01,1.535644531250000000e-01,7.077026367187500000e-01,5.625610351562500000e-01
-1.000000000000000000e+00,1.800000000000000000e+01,3.000000000000000000e+00,-2.000000000000000000e+00,3.000000000000000000e+00,-5.000000000000000000e+00,-1.000000000000000000e+00,1.000000000000000000e+00,-3.981933593750000000e-01,1.524658203125000000e-01,7.074584960937500000e-01,5.635375976562500000e-01
1.100000000000000000e+01,-2.000000000000000000e+00,-2.000000000000000000e+00,1.000000000000000000e+00,1.000000000000000000e+00,1.000000000000000000e+01,0.000000000000000000e+00,-2.000000000000000000e+00,-3.981933593750000000e-01,1.524658203125000000e-01,7.074584960937500000e-01,5.635375976562500000e-01
-4.100000000000000000e+01,-2.000000000000000000e+00,-8.000000000000000000e+00,-6.000000000000000000e+00,-1.000000000000000000e+00,0.000000000000000000e+00,2.000000000000000000e+00,-5.000000000000000000e+00,-3.981933593750000000e-01,1.524658203125000000e-01,7.074584960937500000e-01,5.635375976562500000e-01
2.500000000000000000e+01,-4.000000000000000000e+00,0.000000000000000000e+00,5.000000000000000000e+00,0.000000000000000000e+00,-1.100000000000000000e+01,-8.000000000000000000e+00,2.000000000000000000e+00,-3.981933593750000000e-01,1.524658203125000000e-01,7.074584960937500000e-01,5.635375976562500000e-01
-1.500000000000000000e+01,-2.000000000000000000e+00,-6.000000000000000000e+00,-3.000000000000000000e+00,-2.000000000000000000e+00,1.000000000000000000e+01,1.000000000000000000e+00,-2.000000000000000000e+00,-3.969726562500000000e-01,1.521606445312500000e-01,7.067260742187500000e-01,5.654296875000000000e-01
-1.100000000000000000e+01,3.000000000000000000e+00,1.000000000000000000e+00,5.000000000000000000e+00,1.000000000000000000e+00,-1.000000000000000000e+00,7.000000000000000000e+00,-5.000000000000000000e+00,-3.969726562500000000e-01,1.521606445312500000e-01,7.067260742187500000e-01,5.654296875000000000e-01
1.200000000000000000e+01,-1.100000000000000000e+01,-4.000000000000000000e+00,-5.000000000000000000e+00,2.000000000000000000e+00,-1.000000000000000000e+00,-1.000000000000000000e+00,2.000000000000000000e+00,-3.969726562500000000e-01,1.521606445312500000e-01,7.067260742187500000e-01,5.654296875000000000e-01
-6.000000000000000000e+00,1.700000000000000000e+01,8.000000000000000000e+00,5.000000000000000000e+00,0.000000000000000000e+00,0.000000000000000000e+00,-6.000000000000000000e+00,-2.000000000000000000e+00,-3.969726562500000000e-01,1.521606445312500000e-01,7.067260742187500000e-01,5.654296875000000000e-01
1.000000000000000000e+00,-7.000000000000000000e+00,6.000000000000000000e+00,-8.000000000000000000e+00,-6.000000000000000000e+00,-7.000000000000000000e+00,4.000000000000000000e+00,-2.000000000000000000e+00,-3.953857421875000000e-01,1.527709960937500000e-01,7.063598632812500000e-01,5.668334960937500000e-01
-1.000000000000000000e+00,6.000000000000000000e+00,-9.000000000000000000e+00,4.000000000000000000e+00,-4.000000000000000000e+00,0.000000000000000000e+00,-2.000000000000000000e+00,5.000000000000000000e+00,-3.953857421875000000e-01,1.527709960937500000e-01,7.063598632812500000e-01,5.668334960937500000e-01
1.000000000000000000e+00,-1.000000000000000000e+01,-3.000000000000000000e+00,-1.000000000000000000e+01,-3.000000000000000000e+00,2.000000000000000000e+00,-2.000000000000000000e+00,-3.000000000000000000e+00,-3.953857421875000000e-01,1.527709960937500000e-01,7.063598632812500000e-01,5.668334960937500000e-01
-1.000000000000000000e+01,-2.000000000000000000e+00,1.000000000000000000e+00,7.000000000000000000e+00,-1.000000000000000000e+00,0.000000000000000000e+00,-1.000000000000000000e+00,-1.000000000000000000e+00,-3.953857421875000000e-01,1.527709960937500000e-01,7.063598632812500000e-01,5.668334960937500000e-01
1.200000000000000000e+01,-1.000000000000000000e+00,-1.000000000000000000e+01,-7.000000000000000000e+00,-3.000000000000000000e+00,-6.000000000000000000e+00,-5.000000000000000000e+00,1.000000000000000000e+00,-3.942260742187500000e-01,1.531372070312500000e-01,7.069702148437500000e-01,5.667724609375000000e-01
-5.000000000000000000e+00,-3.000000000000000000e+00,8.000000000000000000e+00,4.000000000000000000e+00,1.000000000000000000e+00,2.000000000000000000e+00,-4.000000000000000000e+00,0.000000000000000000e+00,-3.942260742187500000e-01,1.531372070312500000e-01,7.069702148437500000e-01,5.667724609375000000e-01
2.000000000000000000e+00,-6.000000000000000000e+00,-1.000000000000000000e+01,2.000000000000000000e+00,0.000000000000000000e+00,-1.000000000000000000e+00,6.000000000000000000e+00,-3.000000000000000000e+00,-3.942260742187500000e-01,1.531372070312500000e-01,7.069702148437500000e-01,5.667724609375000000e-01
6.000000000000000000e+00,5.000000000000000000e+00,4.000000000000000000e+00,-7.000000000000000000e+00,-5.000000000000000000e+00,-1.000000000000000000e+00,-1.100000000000000000e+01,-3.000000000000000000e+00,-3.942260742187500000e-01,1.531372070312500000e-01,7.069702148437500000e-01,5.667724609375000000e-01
-3.000000000000000000e+00,2.000000000000000000e+00,-3.000000000000000000e+00,-4.000000000000000000e+00,0.000000000000000000e+00,3.000000000000000000e+00,-4.000000000000000000e+00,0.000000000000000000e+00,-3.946533203125000000e-01,1.516723632812500000e-01,7.080078125000000000e-01,5.656127929687500000e-01
-4.000000000000000000e+00,4.000000000000000000e+00,-1.000000000000000000e+00,0.000000000000000000e+00,-3.000000000000000000e+00,-5.000000000000000000e+00,-7.000000000000000000e+00,-2.000000000000000000e+00,-3.946533203125000000e-01,1.516723632812500000e-01,7.080078125000000000e-01,5.656127929687500000e-01
-2.000000000000000000e+00,-8.000000000000000000e+00,-1.000000000000000000e+00,-8.000000000000000000e+00,-4.000000000000000000e+00,-7.000000000000000000e+00,9.000000000000000000e+00,-2.000000000000000000e+00,-3.946533203125000000e-01,1.516723632812500000e-01,7.080078125000000000e-01,5.656127929687500000e-01
4.000000000000000000e+00,2.000000000000000000e+00,1.400000000000000000e+01,3.000000000000000000e+00,4.000000000000000000e+00,1.400000000000000000e+01,4.000000000000000000e+00,0.000000000000000000e+00,-3.946533203125000000e-01,1.516723632812500000e-01,7.080078125000000000e-01,5.656127929687500000e-01
2.000000000000000000e+00,2.000000000000000000e+00,-1.100000000000000000e+01,5.000000000000000000e+00,2.000000000000000000e+00,-4.000000000000000000e+00,-1.900000000000000000e+01,-3.000000000000000000e+00,-3.956909179687500000e-01,1.493530273437500000e-01,7.085571289062500000e-01,5.648193359375000000e-01
-1.300000000000000000e+01,-1.200000000000000000e+01,-4.000000000000000000e+00,-9.000000000000000000e+00,-9.000000000000000000e+00,-1.100000000000000000e+01,-1.200000000000000000e+01,-2.000000000000000000e+00,-3.956909179687500000e-01,1.493530273437500000e-01,7.085571289062500000e-01,5.648193359375000000e-01
1.000000000000000000e+01,-1.700000000000000000e+01,3.000000000000000000e+00,-2.000000000000000000e+00,2.000000000000000000e+00,6.000000000000000000e+00,6.000000000000000000e+00,0.000000000000000000e+00,-3.956909179687500000e-01,1.493530273437500000e-01,7.085571289062500000e-01,5.648193359375000000e-01
-5.000000000000000000e+00,5.000000000000000000e+00,-8.000000000000000000e+00,-1.000000000000000000e+00,2.000000000000000000e+00,-3.000000000000000000e+00,-6.000000000000000000e+00,0.000000000000000000e+00,-3.956909179687500000e-01,1.493530273437500000e-01,7.085571289062500000e-01,5.648193359375000000e-01
6.000000000000000000e+00,-6.000000000000000000e+00,1.500000000000000000e+01,-5.000000000000000000e+00,-6.000000000000000000e+00,-3.000000000000000000e+00,9.000000000000000000e+00,-2.000000000000000000e+00,-3.965454101562500000e-01,1.475830078125000000e-01,7.081909179687500000e-01,5.651245117187500000e-01
-1.000000000000000000e+00,5.000000000000000000e+00,5.000000000000000000e+00,3.000000000000000000e+00,-2.000000000000000000e+00,6.000000000000000000e+00,9.000000000000000000e+00,2.000000000000000000e+00,-3.965454101562500000e-01,1.475830078125000000e-01,7.081909179687500000e-01,5.651245117187500000e-01
7.000000000000000000e+00,0.000000000000000000e+00,-1.000000000000000000e+01,-3.000000000000000000e+00,1.000000000000000000e+00,-1.000000000000000000e+00,-7.000000000000000000e+00,2.000000000000000000e+00,-3.965454101562500000e-01,1.475830078125000000e-01,7.081909179687500000e-01,5.651245117187500000e-01
-1.000000000000000000e+01,-6.000000000000000000e+00,6.000000000000000000e+00,1.000000000000000000e+00,1.000000000000000000e+00,1.000000000000000000e+00,0.000000000000000000e+00,-3.000000000000000000e+00,-3.965454101562500000e-01,1.475830078125000000e-01,7.081909179687500000e-01,5.651245117187500000e-01
-4.000000000000000000e+00,-8.000000000000000000e+00,-1.000000000000000000e+00,3.000000000000000000e+00,3.000000000000000000e+00,-1.000000000000000000e+00,-5.000000000000000000e+00,-3.000000000000000000e+00,-3.961181640625000000e-01,1.481323242187500000e-01,7.075195312500000000e-01,5.661010742187500000e-01
1.000000000000000000e+00,4.000000000000000000e+00,-6.000000000000000000e+00,-3.000000000000000000e+00,-1.000000000000000000e+00,-5.000000000000000000e+00,-7.000000000000000000e+00,-2.000000000000000000e+00,-3.961181640625000000e-01,1.481323242187500000e-01,7.075195312500000000e-01,5.661010742187500000e-01
-6.000000000000000000e+00,-2.400000000000000000e+01,3.000000000000000000e+00,-1.000000000000000000e+00,0.000000000000000000e+00,1.000000000000000000e+00,-1.000000000000000000e+00,-3.000000000000000000e+00,-3.961181640625000000e-01,1.481323242187500000e-01,7.075195312500000000e-01,5.661010742187500000e-01
-2.000000000000000000e+00,2.400000000000000000e+01,-1.000000000000000000e+00,-2.000000000000000000e+00,-2.000000000000000000e+00,-7.000000000000000000e+00,3.000000000000000000e+00,-3.000000000000000000e+00,-3.961181640625000000e-01,1.481323242187500000e-01,7.075195312500000000e-01,5.661010742187500000e-01
2.000000000000000000e+00,-2.000000000000000000e+00,4.000000000000000000e+00,-2.000000000000000000e+00,-5.000000000000000000e+00,-3.000000000000000000e+00,-7.000000000000000000e+00,0.000000000000000000e+00,-3.954467773437500000e-01,1.497802734375000000e-01,7.070312500000000000e-01,5.668334960937500000e-01
1.300000000000000000e+01,-4.000000000000000000e+00,-1.100000000000000000e+01,-1.000000000000000000e+01,-1.000000000000000000e+00,-1.000000000000000000e+00,5.000000000000000000e+00,0.000000000000000000e+00,-3.954467773437500000e-01,1.497802734375000000e-01,7.070312500000000000e-01,5.668334960937500000e-01
1.000000000000000000e+01,5.000000000000000000e+00,9.000000000000000000e+00,1.300000000000000000e+01,3.000000000000000000e+00,1.000000000000000000e+00,2.000000000000000000e+00,-1.000000000000000000e+00,-3.954467773437500000e-01,1.497802734375000000e-01,7.070312500000000000e-01,5.668334960937500000e-01
-8.000000000000000000e+00,-1.200000000000000000e+01,-1.300000000000000000e+01,-8.000000000000000000e+00,-4.000000000000000000e+00,0.000000000000000000e+00,-1.200000000000000000e+01,-1.000000000000000000e+00,-3.954467773437500000e-01,1.497802734375000000e-01,7.070312500000000000e-01,5.668334960937500000e-01
-1.500000000000000000e+01,-3.000000000000000000e+00,-4.000000000000000000e+00,3.000000000000000000e+00,1.000000000000000000e+00,-1.000000000000000000e+00,3.000000000000000000e+00,0.000000000000000000e+00,-3.955688476562500000e-01,1.502685546875000000e-01,7.072753906250000000e-01,5.662841796875000000e-01
4.000000000000000000e+00,6.000000000000000000e+00,1.000000000000000000e+00,-2.000000000000000000e+00,7.000000000000000000e+00,1.100000000000000000e+01,6.000000000000000000e+00,0.000000000000000000e+00,-3.955688476562500000e-01,1.502685546875000000e-01,7.072753906250000000e-01,5.662841796875000000e-01
-1.800000000000000000e+01,-8.000000000000000000e+00,-3.000000000000000000e+00,-4.000000000000000000e+00,1.000000000000000000e+00,1.000000000000000000e+00,-2.000000000000000000e+00,-1.000000000000000000e+00,-3.955688476562500000e-01,1.502685546875000000e-01,7.072753906250000000e-01,5.662841796875000000e-01
3.000000000000000000e+00,8.000000000000000000e+00,7.000000000000000000e+00,7.000000000000000000e+00,0.000000000000000000e+00,-1.000000000000000000e+00,1.000000000000000000e+00,0.000000000000000000e+00,-3.955688476562500000e-01,1.502685546875000000e-01,7.072753906250000000e-01,5.662841796875000000e-01
7.000000000000000000e+00,-6.000000000000000000e+00,2.000000000000000000e+00,-6.000000000000000000e+00,-5.000000000000000000e+00,-1.000000000000000000e+00,4.000000000000000000e+00,1.000000000000000000e+00,-3.967285156250000000e-01,1.490478515625000000e-01,7.076416015625000000e-01,5.653076171875000000e-01
-1.000000000000000000e+00,-4.000000000000000000e+00,7.000000000000000000e+00,4.000000000000000000e+00,-4.000000000000000000e+00,-8.000000000000000000e+00,0.000000000000000000e+00,-4.000000000000000000e+00,-3.967285156250000000e-01,1.490478515625000000e-01,7.076416015625000000e-01,5.653076171875000000e-01
1.300000000000000000e+01,1.300000000000000000e+01,-6.000000000000000000e+00,-2.000000000000000000e+00,0.000000000000000000e+00,4.000000000000000000e+00,-9.000000000000000000e+00,3.000000000000000000e+00,-3.967285156250000000e-01,1.490478515625000000e-01,7.076416015625000000e-01,5.653076171875000000e-01
-1.800000000000000000e+01,-1.000000000000000000e+01,-2.000000000000000000e+00,-3.000000000000000000e+00,0.000000000000000000e+00,-3.000000000000000000e+00,-5.000000000000000000e+00,-4.000000000000000000e+00,-3.967285156250000000e-01,1.490478515625000000e-01,7.076416015625000000e-01,5.653076171875000000e-01
0.000000000000000000e+00,-3.000000000000000000e+00,-5.000000000000000000e+00,-2.000000000000000000e+00,4.000000000000000000e+00,-2.000000000000000000e+00,0.000000000000000000e+00,-1.000000000000000000e+00,-3.980102539062500000e-01,1.473999023437500000e-01,7.076416015625000000e-01,5.648803710937500000e-01
0.000000000000000000e+00,4.000000000000000000e+00,-3.000000000000000000e+00,2.000000000000000000e+00,-5.000000000000000000e+00,-2.100000000000000000e+01,-5.000000000000000000e+00,-3.000000000000000000e+00,-3.980102539062500000e-01,1.473999023437500000e-01,7.076416015625000000e-01,5.648803710937500000e-01
-1.000000000000000000e+00,5.000000000000000000e+00,7.000000000000000000e+00,2.000000000000000000e+00,3.000000000000000000e+00,2.500000000000000000e+01,-2.000000000000000000e+00,-2.000000000000000000e+00,-3.980102539062500000e-01,1.473999023437500000e-01,7.076416015625000000e-01,5.648803710937500000e-01
-6.000000000000000000e+00,-3.000000000000000000e+00,-4.000000000000000000e+00,2.000000000000000000e+00,-2.000000000000000000e+00,-1.500000000000000000e+01,7.000000000000000000e+00,0.000000000000000000e+00,-3.980102539062500000e-01,1.473999023437500000e-01,7.076416015625000000e-01,5.648803710937500000e-01
0.000000000000000000e+00,2.000000000000000000e+00,5.000000000000000000e+00,-6.000000000000000000e+00,0.000000000000000000e+00,1.500000000000000000e+01,-8.000000000000000000e+00,-7.000000000000000000e+00,-3.980712890625000000e-01,1.470336914062500000e-01,7.072753906250000000e-01,5.653686523437500000e-01
2.500000000000000000e+01,1.000000000000000000e+00,-7.000000000000000000e+00,-8.000000000000000000e+00,-2.000000000000000000e+00,-8.000000000000000000e+00,5.000000000000000000e+00,1.200000000000000000e+01,-3.980712890625000000e-01,1.470336914062500000e-01,7.072753906250000000e-01,5.653686523437500000e-01
-2.000000000000000000e+00,-2.000000000000000000e+00,-1.200000000000000000e+01,1.100000000000000000e+01,-5.000000000000000000e+00,-1.100000000000000000e+01,-2.000000000000000000e+00,1.000000000000000000e+00,-3.980712890625000000e-01,1.470336914062500000e-01,7.072753906250000000e-01,5.653686523437500000e-01
-4.000000000000000000e+00,-2.900000000000000000e+01,6.000000000000000000e+00,-4.000000000000000000e+00,-5.000000000000000000e+00,0.000000000000000000e+00,1.000000000000000000e+01,-3.000000000000000000e+00,-3.980712890625000000e-01,1.470336914062500000e-01,7.072753906250000000e-01,5.653686523437500000e-01
-4.000000000000000000e+00,3.000000000000000000e+00,-4.000000000000000000e+00,2.000000000000000000e+00,2.000000000000000000e+00,-4.000000000000000000e+00,-5.000000000000000000e+00,-1.000000000000000000e+00,-3.974609375000000000e-01,1.476440429687500000e-01,7.069702148437500000e-01,5.659790039062500000e-01
-1.300000000000000000e+01,-2.000000000000000000e+00,2.000000000000000000e+00,1.000000000000000000e+00,2.000000000000000000e+00,4.000000000000000000e+00,-1.000000000000000000e+00,-6.000000000000000000e+00,-3.974609375000000000e-01,1.476440429687500000e-01,7.069702148437500000e-01,5.659790039062500000e-01
5.000000000000000000e+00,4.000000000000000000e+00,-1.000000000000000000e+00,-5.000000000000000000e+00,1.000000000000000000e+00,-4.000000000000000000e+00,0.000000000000000000e+00,2.000000000000000000e+00,-3.974609375000000000e-01,1.476440429687500000e-01,7.069702148437500000e-01,5.659790039062500000e-01
6.000000000000000000e+00,0.000000000000000000e+00,-6.000000000000000000e+00,1.000000000000000000e+00,-2.000000000000000000e+00,1.000000000000000000e+00,2.000000000000000000e+00,2.000000000000000000e+00,-3.974609375000000000e-01,1.476440429687500000e-01,7.069702148437500000e-01,5.659790039062500000e-01
-7.000000000000000000e+00,-4.000000000000000000e+00,-1.000000000000000000e+00,-1.000000000000000000e+00,-2.000000000000000000e+00,-8.000000000000000000e+00,-1.000000000000000000e+00,-1.000000000000000000e+00,-3.969726562500000000e-01,1.481323242187500000e-01,7.069091796875000000e-01,5.662841796875000000e-01
-2.000000000000000000e+00,-3.000000000000000000e+00,-8.000000000000000000e+00,-2.000000000000000000e+00,-2.000000000000000000e+00,5.000000000000000000e+00,-3.000000000000000000e+00,-2.000000000000000000e+00,-3.969726562500000000e-01,1.481323242187500000e-01,7.069091796875000000e-01,5.662841796875000000e-01
-3.000000000000000000e+00,5.000000000000000000e+00,4.000000000000000000e+00,-3.000000000000000000e+00,-2.000000000000000000e+00,-5.000000000000000000e+00,0.000000000000000000e+00,-1.000000000000000000e+00,-3.969726562500000000e-01,1.481323242187500000e-01,7.069091796875000000e-01,5.662841796875000000e-01
3.000000000000000000e+00,0.000000000000000000e+00,-7.000000000000000000e+00,4.000000000000000000e+00,1.000000000000000000e+00,1.000000000000000000e+00,-6.000000000000000000e+00,-4.000000000000000000e+00,-3.969726562500000000e-01,1.481323242187500000e-01,7.069091796875000000e-01,5.662841796875000000e-01
1.000000000000000000e+00,2.000000000000000000e+00,-1.000000000000000000e+00,0.000000000000000000e+00,0.000000000000000000e+00,0.000000000000000000e+00,2.000000000000000000e+00,2.000000000000000000e+00,-3.966674804687500000e-01,1.480102539062500000e-01,7.071533203125000000e-01,5.662231445312500000e-01
-1.000000000000000000e+00,4.000000000000000000e+00,-3.000000000000000000e+00,1.000000000000000000e+00,-2.000000000000000000e+00,-3.000000000000000000e+00,-3.000000000000000000e+00,-2.000000000000000000e+00,-3.966674804687500000e-01,1.480102539062500000e-01,7.071533203125000000e-01,5.662231445312500000e-01
-1.000000000000000000e+00,-3.000000000000000000e+00,-4.000000000000000000e+00,-3.000000000000000000e+00,-1.000000000000000000e+00,7.000000000000000000e+00,1.200000000000000000e+01,0.000000000000000000e+00,-3.966674804687500000e-01,1.480102539062500000e-01,7.071533203125000000e-01,5.662231445312500000e-01
-1.000000000000000000e+00,2.000000000000000000e+00,0.000000000000000000e+00,-6.000000000000000000e+00,-2.000000000000000000e+00,-1.000000000000000000e+01,-2.200000000000000000e+01,-2.000000000000000000e+00,-3.966674804687500000e-01,1.480102539062500000e-01,7.071533203125000000e-01,5.662231445312500000e-01
