1.700000000000000000e+01,1.000000000000000000e+00,-7.000000000000000000e+00,-2.000000000000000000e+00,1.000000000000000000e+00,0.000000000000000000e+00,1.300000000000000000e+01,6.000000000000000000e+00,-4.119873046875000000e-01,2.938232421875000000e-01,6.428833007812500000e-01,5.748901367187500000e-01
-8.000000000000000000e+00,1.000000000000000000e+00,2.000000000000000000e+00,-3.000000000000000000e+00,-2.000000000000000000e+00,-5.000000000000000000e+00,-1.400000000000000000e+01,-1.000000000000000000e+00,-4.119873046875000000e-01,2.938232421875000000e-01,6.428833007812500000e-01,5.748901367187500000e-01
1.000000000000000000e+00,-2.000000000000000000e+00,-6.000000000000000000e+00,6.000000000000000000e+00,5.000000000000000000e+00,3.000000000000000000e+00,4.000000000000000000e+00,-2.000000000000000000e+00,-4.119873046875000000e-01,2.938232421875000000e-01,6.428833007812500000e-01,5.748901367187500000e-01
-1.300000000000000000e+01,1.000000000000000000e+00,0.000000000000000000e+00,-3.000000000000000000e+00,-8.000000000000000000e+00,-3.000000000000000000e+00,-4.000000000000000000e+00,-3.000000000000000000e+00,-4.119873046875000000e-01,2.938232421875000000e-01,6.428833007812500000e-01,5.748901367187500000e-01
1.400000000000000000e+01,-1.000000000000000000e+00,-1.000000000000000000e+00,-1.000000000000000000e+00,5.000000000000000000e+00,-3.000000000000000000e+00,0.000000000000000000e+00,1.000000000000000000e+00,-4.119262695312500000e-01,2.935791015625000000e-01,6.428222656250000000e-01,5.751953125000000000e-01
-5.000000000000000000e+00,-1.000000000000000000e+00,-2.000000000000000000e+00,-2.000000000000000000e+00,1.000000000000000000e+00,0.000000000000000000e+00,5.000000000000000000e+00,1.000000000000000000e+00,-4.119262695312500000e-01,2.935791015625000000e-01,6.428222656250000000e-01,5.751953125000000000e-01
-7.000000000000000000e+00,1.000000000000000000e+00,2.000000000000000000e+00,-9.000000000000000000e+00,-4.000000000000000000e+00,-4.000000000000000000e+00,-3.000000000000000000e+00,-2.000000000000000000e+00,-4.119262695312500000e-01,2.935791015625000000e-01,6.428222656250000000e-01,5.751953125000000000e-01
-1.200000000000000000e+01,-1.000000000000000000e+00,-6.000000000000000000e+00,6.000000000000000000e+00,2.000000000000000000e+00,1.000000000000000000e+00,0.000000000000000000e+00,-2.000000000000000000e+00,-4.119262695312500000e-01,2.935791015625000000e-01,6.428222656250000000e-01,5.751953125000000000e-01
1.800000000000000000e+01,-3.000000000000000000e+00,9.000000000000000000e+00,-1.100000000000000000e+01,-5.000000000000000000e+00,0.000000000000000000e+00,-6.000000000000000000e+00,0.000000000000000000e+00,-4.119873046875000000e-01,2.930297851562500000e-01,6.427001953125000000e-01,5.755615234375000000e-01
-4.000000000000000000e+00,1.000000000000000000e+00,-9.000000000000000000e+00,0.000000000000000000e+00,-3.000000000000000000e+00,-4.000000000000000000e+00,1.000000000000000000e+00,0.000000000000000000e+00,-4.119873046875000000e-01,2.930297851562500000e-01,6.427001953125000000e-01,5.755615234375000000e-01
-3.000000000000000000e+00,0.000000000000000000e+00,1.000000000000000000e+00,1.000000000000000000e+00,-1.000000000000000000e+00,-3.000000000000000000e+00,-3.000000000000000000e+00,0.000000000000000000e+00,-4.119873046875000000e-01,2.930297851562500000e-01,6.427001953125000000e-01,5.755615234375000000e-01
-7.000000000000000000e+00,0.000000000000000000e+00,1.000000000000000000e+00,-1.000000000000000000e+00,5.000000000000000000e+00,-1.000000000000000000e+00,0.000000000000000000e+00,-4.000000000000000000e+00,-4.119873046875000000e-01,2.930297851562500000e-01,6.427001953125000000e-01,5.755615234375000000e-01
0.000000000000000000e+00,-5.000000000000000000e+00,4.000000000000000000e+00,0.000000000000000000e+00,-1.000000000000000000e+00,-3.000000000000000000e+00,-2.000000000000000000e+00,1.000000000000000000e+00,-4.119873046875000000e-01,2.926025390625000000e-01,6.425170898437500000e-01,5.759887695312500000e-01
4.000000000000000000e+00,0.000000000000000000e+00,-1.000000000000000000e+00,1.000000000000000000e+00,0.000000000000000000e+00,0.000000000000000000e+00,3.000000000000000000e+00,2.000000000000000000e+00,-4.119873046875000000e-01,2.926025390625000000e-01,6.425170898437500000e-01,5.759887695312500000e-01
1.000000000000000000e+00,2.000000000000000000e+00,-4.000000000000000000e+00,2.000000000000000000e+00,-3.000000000000000000e+00,0.000000000000000000e+00,-1.000000000000000000e+00,-1.000000000000000000e+00,-4.119873046875000000e-01,2.926025390625000000e-01,6.425170898437500000e-01,5.759887695312500000e-01
-5.000000000000000000e+00,-9.000000000000000000e+00,2.000000000000000000e+00,-7.000000000000000000e+00,-7.000000000000000000e+00,-1.000000000000000000e+00,0.000000000000000000e+00,-2.000000000000000000e+00,-4.119873046875000000e-01,2.926025390625000000e-01,6.425170898437500000e-01,5.759887695312500000e-01
1.000000000000000000e+00,9.000000000000000000e+00,1.000000000000000000e+00,1.000000000000000000e+01,1.100000000000000000e+01,2.000000000000000000e+00,-3.000000000000000000e+00,-2.000000000000000000e+00,-4.118652343750000000e-01,2.922973632812500000e-01,6.423339843750000000e-01,5.764160156250000000e-01
8.000000000000000000e+00,-1.000000000000000000e+00,-3.000000000000000000e+00,-2.000000000000000000e+00,1.000000000000000000e+00,-2.000000000000000000e+00,0.000000000000000000e+00,-3.000000000000000000e+00,-4.118652343750000000e-01,2.922973632812500000e-01,6.423339843750000000e-01,5.764160156250000000e-01
-4.000000000000000000e+00,-7.000000000000000000e+00,0.000000000000000000e+00,-9.000000000000000000e+00,-2.000000000000000000e+00,-1.000000000000000000e+00,-1.000000000000000000e+00,-1.000000000000000000e+00,-4.118652343750000000e-01,2.922973632812500000e-01,6.423339843750000000e-01,5.764160156250000000e-01
5.000000000000000000e+00,0.000000000000000000e+00,3.000000000000000000e+00,4.000000000000000000e+00,-2.000000000000000000e+00,-2.000000000000000000e+00,-3.000000000000000000e+00,4.000000000000000000e+00,-4.118652343750000000e-01,2.922973632812500000e-01,6.423339843750000000e-01,5.764160156250000000e-01
-1.000000000000000000e+01,-2.000000000000000000e+00,2.000000000000000000e+00,-4.000000000000000000e+00,-5.000000000000000000e+00,-2.000000000000000000e+00,-3.000000000000000000e+00,-4.000000000000000000e+00,-4.117431640625000000e-01,2.920532226562500000e-01,6.421508789062500000e-01,5.768432617187500000e-01
-9.000000000000000000e+00,2.000000000000000000e+00,5.000000000000000000e+00,0.000000000000000000e+00,-2.000000000000000000e+00,0.000000000000000000e+00,1.000000000000000000e+00,-4.000000000000000000e+00,-4.117431640625000000e-01,2.920532226562500000e-01,6.421508789062500000e-01,5.768432617187500000e-01
-3.000000000000000000e+00,-1.000000000000000000e+00,-4.000000000000000000e+00,1.000000000000000000e+00,-2.000000000000000000e+00,-1.000000000000000000e+00,3.000000000000000000e+00,-1.000000000000000000e+00,-4.117431640625000000e-01,2.920532226562500000e-01,6.421508789062500000e-01,5.768432617187500000e-01
1.300000000000000000e+01,-1.000000000000000000e+00,-2.000000000000000000e+00,-5.000000000000000000e+00,-1.000000000000000000e+00,-4.000000000000000000e+00,-1.400000000000000000e+01,0.000000000000000000e+00,-4.117431640625000000e-01,2.920532226562500000e-01,6.421508789062500000e-01,5.768432617187500000e-01
-1.300000000000000000e+01,-3.000000000000000000e+00,0.000000000000000000e+00,-1.000000000000000000e+00,-3.000000000000000000e+00,-1.000000000000000000e+00,0.000000000000000000e+00,-3.000000000000000000e+00,-4.114379882812500000e-01,2.916870117187500000e-01,6.421508789062500000e-01,5.772094726562500000e-01
2.000000000000000000e+00,-2.000000000000000000e+00,1.000000000000000000e+00,1.000000000000000000e+00,4.000000000000000000e+00,-1.000000000000000000e+00,0.000000000000000000e+00,-2.000000000000000000e+00,-4.114379882812500000e-01,2.916870117187500000e-01,6.421508789062500000e-01,5.772094726562500000e-01
1.000000000000000000e+00,-1.000000000000000000e+00,-3.000000000000000000e+00,4.000000000000000000e+00,-3.000000000000000000e+00,-2.000000000000000000e+00,-5.000000000000000000e+00,-1.000000000000000000e+00,-4.114379882812500000e-01,2.916870117187500000e-01,6.421508789062500000e-01,5.772094726562500000e-01
-1.000000000000000000e+00,-1.000000000000000000e+00,-1.000000000000000000e+00,-4.000000000000000000e+00,5.000000000000000000e+00,1.000000000000000000e+00,3.000000000000000000e+00,-2.000000000000000000e+00,-4.114379882812500000e-01,2.916870117187500000e-01,6.421508789062500000e-01,5.772094726562500000e-01
-8.000000000000000000e+00,0.000000000000000000e+00,-7.000000000000000000e+00,2.000000000000000000e+00,-1.000000000000000000e+00,3.000000000000000000e+00,0.000000000000000000e+00,-3.000000000000000000e+00,-4.113159179687500000e-01,2.910156250000000000e-01,6.422729492187500000e-01,5.775146484375000000e-01
-3.000000000000000000e+00,-1.000000000000000000e+00,-2.000000000000000000e+00,-3.000000000000000000e+00,-3.000000000000000000e+00,-2.000000000000000000e+00,-3.000000000000000000e+00,-3.000000000000000000e+00,-4.113159179687500000e-01,2.910156250000000000e-01,6.422729492187500000e-01,5.775146484375000000e-01
3.000000000000000000e+00,0.000000000000000000e+00,4.000000000000000000e+00,-1.000000000000000000e+00,-2.000000000000000000e+00,-3.000000000000000000e+00,-5.000000000000000000e+00,-2.000000000000000000e+00,-4.113159179687500000e-01,2.910156250000000000e-01,6.422729492187500000e-01,5.775146484375000000e-01
-2.300000000000000000e+01,0.000000000000000000e+00,-4.000000000000000000e+00,2.000000000000000000e+00,-4.000000000000000000e+00,3.000000000000000000e+00,8.000000000000000000e+00,-4.000000000000000000e+00,-4.113159179687500000e-01,2.910156250000000000e-01,6.422729492187500000e-01,5.775146484375000000e-01
1.700000000000000000e+01,-1.000000000000000000e+00,3.000000000000000000e+00,-1.000000000000000000e+00,-2.000000000000000000e+00,-3.000000000000000000e+00,-9.000000000000000000e+00,0.000000000000000000e+00,-4.113159179687500000e-01,2.904663085937500000e-01,6.419677734375000000e-01,5.781860351562500000e-01
-9.000000000000000000e+00,0.000000000000000000e+00,0.000000000000000000e+00,-2.000000000000000000e+00,-3.000000000000000000e+00,0.000000000000000000e+00,0.000000000000000000e+00,-4.000000000000000000e+00,-4.113159179687500000e-01,2.904663085937500000e-01,6.419677734375000000e-01,5.781860351562500000e-01
-2.000000000000000000e+00,1.000000000000000000e+00,-2.000000000000000000e+00,0.000000000000000000e+00,-1.000000000000000000e+00,-2.000000000000000000e+00,-2.000000000000000000e+00,1.000000000000000000e+00,-4.113159179687500000e-01,2.904663085937500000e-01,6.419677734375000000e-01,5.781860351562500000e-01
1.100000000000000000e+01,5.000000000000000000e+00,2.000000000000000000e+00,5.000000000000000000e+00,5.000000000000000000e+00,-1.000000000000000000e+00,4.000000000000000000e+00,-1.000000000000000000e+00,-4.113159179687500000e-01,2.904663085937500000e-01,6.419677734375000000e-01,5.781860351562500000e-01
-6.000000000000000000e+00,-4.000000000000000000e+00,-6.000000000000000000e+00,-4.000000000000000000e+00,-3.000000000000000000e+00,-3.000000000000000000e+00,2.000000000000000000e+00,1.000000000000000000e+00,-4.110107421875000000e-01,2.904052734375000000e-01,6.415405273437500000e-01,5.788574218750000000e-01
3.000000000000000000e+00,1.000000000000000000e+00,-1.000000000000000000e+00,0.000000000000000000e+00,-2.000000000000000000e+00,0.000000000000000000e+00,2.000000000000000000e+00,3.000000000000000000e+00,-4.110107421875000000e-01,2.904052734375000000e-01,6.415405273437500000e-01,5.788574218750000000e-01
-1.000000000000000000e+00,-1.000000000000000000e+00,2.000000000000000000e+00,-3.000000000000000000e+00,-3.000000000000000000e+00,1.000000000000000000e+00,-2.000000000000000000e+00,-3.000000000000000000e+00,-4.110107421875000000e-01,2.904052734375000000e-01,6.415405273437500000e-01,5.788574218750000000e-01
5.000000000000000000e+00,-1.000000000000000000e+00,-6.000000000000000000e+00,-4.000000000000000000e+00,-1.000000000000000000e+00,-1.000000000000000000e+00,-2.000000000000000000e+00,1.000000000000000000e+00,-4.110107421875000000e-01,2.904052734375000000e-01,6.415405273437500000e-01,5.788574218750000000e-01
-4.000000000000000000e+00,0.000000000000000000e+00,7.000000000000000000e+00,0.000000000000000000e+00,-2.000000000000000000e+00,0.000000000000000000e+00,1.000000000000000000e+00,1.000000000000000000e+00,-4.107055664062500000e-01,2.906494140625000000e-01,6.409912109375000000e-01,5.795898437500000000e-01
-2.000000000000000000e+00,0.000000000000000000e+00,-8.000000000000000000e+00,1.000000000000000000e+00,0.000000000000000000e+00,0.000000000000000000e+00,-2.000000000000000000e+00,-3.000000000000000000e+00,-4.107055664062500000e-01,2.906494140625000000e-01,6.409912109375000000e-01,5.795898437500000000e-01
-4.000000000000000000e+00,2.000000000000000000e+00,-2.000000000000000000e+00,4.000000000000000000e+00,7.000000000000000000e+00,-1.000000000000000000e+00,-1.000000000000000000e+00,-2.000000000000000000e+00,-4.107055664062500000e-01,2.906494140625000000e-01,6.409912109375000000e-01,5.795898437500000000e-01
8.000000000000000000e+00,-4.000000000000000000e+00,3.000000000000000000e+00,-5.000000000000000000e+00,-6.000000000000000000e+00,-3.000000000000000000e+00,-2.000000000000000000e+00,4.000000000000000000e+00,-4.107055664062500000e-01,2.906494140625000000e-01,6.409912109375000000e-01,5.795898437500000000e-01
2.000000000000000000e+00,1.000000000000000000e+00,3.000000000000000000e+00,-3.000000000000000000e+00,-2.000000000000000000e+00,-1.000000000000000000e+00,-3.000000000000000000e+00,-2.000000000000000000e+00,-4.104003906250000000e-01,2.908325195312500000e-01,6.405639648437500000e-01,5.802001953125000000e-01
-6.000000000000000000e+00,1.000000000000000000e+00,1.000000000000000000e+00,-1.000000000000000000e+00,-1.000000000000000000e+00,0.000000000000000000e+00,1.000000000000000000e+00,-1.000000000000000000e+00,-4.104003906250000000e-01,2.908325195312500000e-01,6.405639648437500000e-01,5.802001953125000000e-01
-1.000000000000000000e+00,-1.000000000000000000e+00,-3.000000000000000000e+00,3.000000000000000000e+00,6.000000000000000000e+00,0.000000000000000000e+00,1.000000000000000000e+00,-6.000000000000000000e+00,-4.104003906250000000e-01,2.908325195312500000e-01,6.405639648437500000e-01,5.802001953125000000e-01
-1.400000000000000000e+01,-3.000000000000000000e+00,-4.000000000000000000e+00,-5.000000000000000000e+00,-3.000000000000000000e+00,-4.000000000000000000e+00,-6.000000000000000000e+00,-7.000000000000000000e+00,-4.104003906250000000e-01,2.908325195312500000e-01,6.405639648437500000e-01,5.802001953125000000e-01
1.400000000000000000e+01,0.000000000000000000e+00,-2.000000000000000000e+00,-8.000000000000000000e+00,-3.000000000000000000e+00,-2.000000000000000000e+00,-1.000000000000000000e+00,4.000000000000000000e+00,-4.104614257812500000e-01,2.904052734375000000e-01,6.399536132812500000e-01,5.809936523437500000e-01
1.400000000000000000e+01,0.000000000000000000e+00,3.000000000000000000e+00,1.000000000000000000e+00,0.000000000000000000e+00,1.000000000000000000e+00,2.000000000000000000e+00,6.000000000000000000e+00,-4.104614257812500000e-01,2.904052734375000000e-01,6.399536132812500000e-01,5.809936523437500000e-01
2.000000000000000000e+00,0.000000000000000000e+00,-1.000000000000000000e+00,-1.000000000000000000e+00,-4.000000000000000000e+00,-4.000000000000000000e+00,-1.000000000000000000e+00,1.000000000000000000e+00,-4.104614257812500000e-01,2.904052734375000000e-01,6.399536132812500000e-01,5.809936523437500000e-01
-1.700000000000000000e+01,-1.000000000000000000e+00,-2.000000000000000000e+00,-4.000000000000000000e+00,0.000000000000000000e+00,1.000000000000000000e+00,-2.000000000000000000e+00,-8.000000000000000000e+00,-4.104614257812500000e-01,2.904052734375000000e-01,6.399536132812500000e-01,5.809936523437500000e-01
-4.000000000000000000e+00,0.000000000000000000e+00,-6.000000000000000000e+00,3.000000000000000000e+00,3.000000000000000000e+00,-1.000000000000000000e+00,2.000000000000000000e+00,-2.000000000000000000e+00,-4.106445312500000000e-01,2.897949218750000000e-01,6.393432617187500000e-01,5.818481445312500000e-01
0.000000000000000000e+00,-3.000000000000000000e+00,2.000000000000000000e+00,-3.000000000000000000e+00,-2.000000000000000000e+00,1.000000000000000000e+00,-2.000000000000000000e+00,-3.000000000000000000e+00,-4.106445312500000000e-01,2.897949218750000000e-01,6.393432617187500000e-01,5.818481445312500000e-01
2.000000000000000000e+00,0.000000000000000000e+00,-3.000000000000000000e+00,-4.000000000000000000e+00,-2.000000000000000000e+00,-1.000000000000000000e+00,2.000000000000000000e+00,1.000000000000000000e+00,-4.106445312500000000e-01,2.897949218750000000e-01,6.393432617187500000e-01,5.818481445312500000e-01
-1.000000000000000000e+00,-2.000000000000000000e+00,-3.000000000000000000e+00,2.000000000000000000e+00,0.000000000000000000e+00,-2.000000000000000000e+00,-1.200000000000000000e+01,-2.000000000000000000e+00,-4.106445312500000000e-01,2.897949218750000000e-01,6.393432617187500000e-01,5.818481445312500000e-01
-1.500000000000000000e+01,-2.000000000000000000e+00,-4.000000000000000000e+00,-1.000000000000000000e+00,0.000000000000000000e+00,-2.000000000000000000e+00,-2.000000000000000000e+00,-5.000000000000000000e+00,-4.108886718750000000e-01,2.893676757812500000e-01,6.389770507812500000e-01,5.822753906250000000e-01
9.000000000000000000e+00,-2.000000000000000000e+00,-4.000000000000000000e+00,-5.000000000000000000e+00,0.000000000000000000e+00,1.000000000000000000e+00,0.000000000000000000e+00,2.000000000000000000e+00,-4.108886718750000000e-01,2.893676757812500000e-01,6.389770507812500000e-01,5.822753906250000000e-01
2.000000000000000000e+00,-4.000000000000000000e+00,3.000000000000000000e+00,-1.000000000000000000e+00,-6.000000000000000000e+00,-1.000000000000000000e+00,-2.000000000000000000e+00,0.000000000000000000e+00,-4.108886718750000000e-01,2.893676757812500000e-01,6.389770507812500000e-01,5.822753906250000000e-01
5.000000000000000000e+00,2.000000000000000000e+00,-3.000000000000000000e+00,4.000000000000000000e+00,3.000000000000000000e+00,5.000000000000000000e+00,7.000000000000000000e+00,3.000000000000000000e+00,-4.108886718750000000e-01,2.893676757812500000e-01,6.389770507812500000e-01,5.822753906250000000e-01
-1.500000000000000000e+01,-4.000000000000000000e+00,-5.000000000000000000e+00,-1.000000000000000000e+00,2.000000000000000000e+00,0.000000000000000000e+00,-1.000000000000000000e+00,-2.000000000000000000e+00,-4.111328125000000000e-01,2.887573242187500000e-01,6.387939453125000000e-01,5.827026367187500000e-01
3.000000000000000000e+00,0.000000000000000000e+00,1.000000000000000000e+00,2.000000000000000000e+00,1.000000000000000000e+00,-1.000000000000000000e+00,-3.000000000000000000e+00,-2.000000000000000000e+00,-4.111328125000000000e-01,2.887573242187500000e-01,6.387939453125000000e-01,5.827026367187500000e-01
-1.000000000000000000e+00,-3.000000000000000000e+00,-3.000000000000000000e+00,-9.000000000000000000e+00,-3.000000000000000000e+00,-2.000000000000000000e+00,-2.000000000000000000e+00,-1.000000000000000000e+00,-4.111328125000000000e-01,2.887573242187500000e-01,6.387939453125000000e-01,5.827026367187500000e-01
-3.000000000000000000e+00,-1.000000000000000000e+00,-3.000000000000000000e+00,-1.000000000000000000e+01,-6.000000000000000000e+00,-3.000000000000000000e+00,-1.000000000000000000e+00,-1.000000000000000000e+00,-4.111328125000000000e-01,2.887573242187500000e-01,6.387939453125000000e-01,5.827026367187500000e-01
7.000000000000000000e+00,-3.000000000000000000e+00,-1.000000000000000000e+00,1.000000000000000000e+01,1.000000000000000000e+00,0.000000000000000000e+00,0.000000000000000000e+00,1.000000000000000000e+00,-4.114379882812500000e-01,2.881469726562500000e-01,6.384887695312500000e-01,5.830688476562500000e-01
-2.600000000000000000e+01,6.000000000000000000e+00,3.000000000000000000e+00,-1.000000000000000000e+00,-4.000000000000000000e+00,-5.000000000000000000e+00,-1.000000000000000000e+00,-4.000000000000000000e+00,-4.114379882812500000e-01,2.881469726562500000e-01,6.384887695312500000e-01,5.830688476562500000e-01
1.900000000000000000e+01,-5.000000000000000000e+00,-9.000000000000000000e+00,-4.000000000000000000e+00,5.000000000000000000e+00,3.000000000000000000e+00,-1.000000000000000000e+00,3.000000000000000000e+00,-4.114379882812500000e-01,2.881469726562500000e-01,6.384887695312500000e-01,5.830688476562500000e-01
5.000000000000000000e+00,3.000000000000000000e+00,3.000000000000000000e+00,6.000000000000000000e+00,-4.000000000000000000e+00,-2.000000000000000000e+00,-3.000000000000000000e+00,0.000000000000000000e+00,-4.114379882812500000e-01,2.881469726562500000e-01,6.384887695312500000e-01,5.830688476562500000e-01
-7.000000000000000000e+00,-3.000000000000000000e+00,-3.000000000000000000e+00,-8.000000000000000000e+00,-7.000000000000000000e+00,0.000000000000000000e+00,-1.000000000000000000e+00,-2.000000000000000000e+00,-4.114990234375000000e-01,2.879638671875000000e-01,6.383056640625000000e-01,5.833129882812500000e-01
-7.000000000000000000e+00,0.000000000000000000e+00,1.000000000000000000e+00,-6.000000000000000000e+00,-8.000000000000000000e+00,-3.000000000000000000e+00,-4.000000000000000000e+00,-6.000000000000000000e+00,-4.114990234375000000e-01,2.879638671875000000e-01,6.383056640625000000e-01,5.833129882812500000e-01
-3.000000000000000000e+00,-2.000000000000000000e+00,-4.000000000000000000e+00,9.000000000000000000e+00,1.900000000000000000e+01,3.000000000000000000e+00,3.000000000000000000e+00,4.000000000000000000e+00,-4.114990234375000000e-01,2.879638671875000000e-01,6.383056640625000000e-01,5.833129882812500000e-01
-8.000000000000000000e+00,2.000000000000000000e+00,-3.000000000000000000e+00,-2.000000000000000000e+00,-7.000000000000000000e+00,-2.000000000000000000e+00,-3.000000000000000000e+00,-4.000000000000000000e+00,-4.114990234375000000e-01,2.879638671875000000e-01,6.383056640625000000e-01,5.833129882812500000e-01
8.000000000000000000e+00,1.000000000000000000e+00,-3.000000000000000000e+00,2.000000000000000000e+00,-4.000000000000000000e+00,1.000000000000000000e+00,1.000000000000000000e+00,5.000000000000000000e+00,-4.114379882812500000e-01,2.879638671875000000e-01,6.381835937500000000e-01,5.834960937500000000e-01
-7.000000000000000000e+00,-1.200000000000000000e+01,4.000000000000000000e+00,2.000000000000000000e+00,-2.000000000000000000e+00,-7.000000000000000000e+00,-3.000000000000000000e+00,-1.000000000000000000e+00,-4.114379882812500000e-01,2.879638671875000000e-01,6.381835937500000000e-01,5.834960937500000000e-01
1.000000000000000000e+00,0.000000000000000000e+00,-3.000000000000000000e+00,-4.000000000000000000e+00,-8.000000000000000000e+00,-2.000000000000000000e+00,-2.000000000000000000e+00,-2.000000000000000000e+00,-4.114379882812500000e-01,2.879638671875000000e-01,6.381835937500000000e-01,5.834960937500000000e-01
-9.000000000000000000e+00,-3.000000000000000000e+00,2.000000000000000000e+00,2.000000000000000000e+00,2.000000000000000000e+00,-1.000000000000000000e+00,4.000000000000000000e+00,-2.000000000000000000e+00,-4.114379882812500000e-01,2.879638671875000000e-01,6.381835937500000000e-01,5.834960937500000000e-01
2.300000000000000000e+01,-5.000000000000000000e+00,4.000000000000000000e+00,-2.000000000000000000e+00,3.000000000000000000e+00,0.000000000000000000e+00,1.000000000000000000e+00,5.000000000000000000e+00,-4.111328125000000000e-01,2.879638671875000000e-01,6.380004882812500000e-01,5.838623046875000000e-01
-4.000000000000000000e+00,-2.000000000000000000e+00,-8.000000000000000000e+00,2.000000000000000000e+00,-1.000000000000000000e+00,1.000000000000000000e+00,-3.000000000000000000e+00,-6.000000000000000000e+00,-4.111328125000000000e-01,2.879638671875000000e-01,6.380004882812500000e-01,5.838623046875000000e-01
-7.000000000000000000e+00,-1.000000000000000000e+00,0.000000000000000000e+00,-4.000000000000000000e+00,-5.000000000000000000e+00,2.000000000000000000e+00,2.000000000000000000e+00,3.000000000000000000e+00,-4.111328125000000000e-01,2.879638671875000000e-01,6.380004882812500000e-01,5.838623046875000000e-01
0.000000000000000000e+00,2.000000000000000000e+00,4.000000000000000000e+00,0.000000000000000000e+00,4.000000000000000000e+00,-2.000000000000000000e+00,-1.000000000000000000e+00,-1.000000000000000000e+00,-4.111328125000000000e-01,2.879638671875000000e-01,6.380004882812500000e-01,5.838623046875000000e-01
-1.000000000000000000e+01,-1.000000000000000000e+00,-2.000000000000000000e+00,1.000000000000000000e+00,-3.000000000000000000e+00,-3.000000000000000000e+00,-1.000000000000000000e+00,-2.000000000000000000e+00,-4.104003906250000000e-01,2.882080078125000000e-01,6.379394531250000000e-01,5.843505859375000000e-01
9.000000000000000000e+00,0.000000000000000000e+00,2.000000000000000000e+00,0.000000000000000000e+00,2.000000000000000000e+00,0.000000000000000000e+00,5.000000000000000000e+00,6.000000000000000000e+00,-4.104003906250000000e-01,2.882080078125000000e-01,6.379394531250000000e-01,5.843505859375000000e-01
5.000000000000000000e+00,-4.000000000000000000e+00,0.000000000000000000e+00,-3.000000000000000000e+00,-8.000000000000000000e+00,1.000000000000000000e+00,7.000000000000000000e+00,2.000000000000000000e+00,-4.104003906250000000e-01,2.882080078125000000e-01,6.379394531250000000e-01,5.843505859375000000e-01
1.000000000000000000e+00,-1.000000000000000000e+00,-5.000000000000000000e+00,4.000000000000000000e+00,9.000000000000000000e+00,2.000000000000000000e+00,-2.000000000000000000e+00,-3.000000000000000000e+00,-4.104003906250000000e-01,2.882080078125000000e-01,6.379394531250000000e-01,5.843505859375000000e-01
-1.600000000000000000e+01,-2.000000000000000000e+00,0.000000000000000000e+00,-8.000000000000000000e+00,-6.000000000000000000e+00,-4.000000000000000000e+00,-8.000000000000000000e+00,-1.300000000000000000e+01,-4.097290039062500000e-01,2.882080078125000000e-01,6.382446289062500000e-01,5.845336914062500000e-01
7.000000000000000000e+00,-1.000000000000000000e+00,-5.000000000000000000e+00,1.300000000000000000e+01,1.200000000000000000e+01,2.000000000000000000e+00,6.000000000000000000e+00,1.000000000000000000e+01,-4.097290039062500000e-01,2.882080078125000000e-01,6.382446289062500000e-01,5.845336914062500000e-01
1.300000000000000000e+01,5.000000000000000000e+00,-1.000000000000000000e+00,-7.000000000000000000e+00,-5.000000000000000000e+00,-4.000000000000000000e+00,-4.000000000000000000e+00,6.000000000000000000e+00,-4.097290039062500000e-01,2.882080078125000000e-01,6.382446289062500000e-01,5.845336914062500000e-01
5.000000000000000000e+00,-3.000000000000000000e+00,-3.000000000000000000e+00,-7.000000000000000000e+00,-6.000000000000000000e+00,0.000000000000000000e+00,2.000000000000000000e+00,-2.000000000000000000e+00,-4.097290039062500000e-01,2.882080078125000000e-01,6.382446289062500000e-01,5.845336914062500000e-01
-6.000000000000000000e+00,-2.000000000000000000e+00,3.000000000000000000e+00,0.000000000000000000e+00,-2.000000000000000000e+00,-1.000000000000000000e+00,-1.000000000000000000e+00,-4.000000000000000000e+00,-4.090576171875000000e-01,2.883300781250000000e-01,6.384887695312500000e-01,5.846557617187500000e-01
-1.000000000000000000e+01,4.000000000000000000e+00,-2.000000000000000000e+00,-2.000000000000000000e+00,-4.000000000000000000e+00,-2.000000000000000000e+00,-3.000000000000000000e+00,-6.000000000000000000e+00,-4.090576171875000000e-01,2.883300781250000000e-01,6.384887695312500000e-01,5.846557617187500000e-01
-7.000000000000000000e+00,-3.000000000000000000e+00,4.000000000000000000e+00,3.000000000000000000e+00,1.000000000000000000e+00,-1.000000000000000000e+00,-4.000000000000000000e+00,-6.000000000000000000e+00,-4.090576171875000000e-01,2.883300781250000000e-01,6.384887695312500000e-01,5.846557617187500000e-01
7.000000000000000000e+00,-3.000000000000000000e+00,-2.000000000000000000e+00,-4.000000000000000000e+00,3.000000000000000000e+00,-2.000000000000000000e+00,-1.000000000000000000e+00,5.000000000000000000e+00,-4.090576171875000000e-01,2.883300781250000000e-01,6.384887695312500000e-01,5.846557617187500000e-01
-4.000000000000000000e+00,5.000000000000000000e+00,-3.000000000000000000e+00,-5.000000000000000000e+00,-3.000000000000000000e+00,0.000000000000000000e+00,-4.000000000000000000e+00,-4.000000000000000000e+00,-4.084472656250000000e-01,2.881469726562500000e-01,6.386108398437500000e-01,5.850219726562500000e-01
-1.000000000000000000e+00,-4.000000000000000000e+00,1.000000000000000000e+00,2.000000000000000000e+00,-3.000000000000000000e+00,-1.000000000000000000e+00,-4.000000000000000000e+00,-1.000000000000000000e+00,-4.084472656250000000e-01,2.881469726562500000e-01,6.386108398437500000e-01,5.850219726562500000e-01
-3.000000000000000000e+00,-1.000000000000000000e+00,-4.000000000000000000e+00,1.000000000000000000e+00,5.000000000000000000e+00,0.000000000000000000e+00,-2.000000000000000000e+00,-5.000000000000000000e+00,-4.084472656250000000e-01,2.881469726562500000e-01,6.386108398437500000e-01,5.850219726562500000e-01
1.000000000000000000e+01,4.000000000000000000e+00,-1.000000000000000000e+00,-4.000000000000000000e+00,-4.000000000000000000e+00,-3.000000000000000000e+00,-1.000000000000000000e+00,3.000000000000000000e+00,-4.084472656250000000e-01,2.881469726562500000e-01,6.386108398437500000e-01,5.850219726562500000e-01
1.000000000000000000e+00,2.000000000000000000e+00,-2.000000000000000000e+00,1.000000000000000000e+00,-5.000000000000000000e+00,1.000000000000000000e+00,2.000000000000000000e+00,2.000000000000000000e+00,-4.075317382812500000e-01,2.879028320312500000e-01,6.388549804687500000e-01,5.855102539062500000e-01
7.000000000000000000e+00,-1.000000000000000000e+00,4.000000000000000000e+00,1.200000000000000000e+01,1.500000000000000000e+01,5.000000000000000000e+00,3.000000000000000000e+00,7.000000000000000000e+00,-4.075317382812500000e-01,2.879028320312500000e-01,6.388549804687500000e-01,5.855102539062500000e-01
-7.000000000000000000e+00,-3.000000000000000000e+00,-8.000000000000000000e+00,-8.000000000000000000e+00,-7.000000000000000000e+00,-4.000000000000000000e+00,-6.000000000000000000e+00,-6.000000000000000000e+00,-4.075317382812500000e-01,2.879028320312500000e-01,6.388549804687500000e-01,5.855102539062500000e-01
-3.600000000000000000e+01,0.000000000000000000e+00,6.000000000000000000e+00,1.500000000000000000e+01,3.000000000000000000e+00,0.000000000000000000e+00,-1.000000000000000000e+00,-1.300000000000000000e+01,-4.075317382812500000e-01,2.879028320312500000e-01,6.388549804687500000e-01,5.855102539062500000e-01
5.400000000000000000e+01,6.000000000000000000e+00,1.000000000000000000e+00,-6.000000000000000000e+00,-4.000000000000000000e+00,1.000000000000000000e+00,1.200000000000000000e+01,2.400000000000000000e+01,-4.067993164062500000e-01,2.875366210937500000e-01,6.388549804687500000e-01,5.861816406250000000e-01
-5.000000000000000000e+00,2.000000000000000000e+00,3.000000000000000000e+00,-7.000000000000000000e+00,-7.000000000000000000e+00,-5.000000000000000000e+00,-7.000000000000000000e+00,-6.000000000000000000e+00,-4.067993164062500000e-01,2.875366210937500000e-01,6.388549804687500000e-01,5.861816406250000000e-01
-1.600000000000000000e+01,2.000000000000000000e+00,1.000000000000000000e+00,6.000000000000000000e+00,-2.000000000000000000e+00,-1.000000000000000000e+00,-5.000000000000000000e+00,-1.000000000000000000e+01,-4.067993164062500000e-01,2.875366210937500000e-01,6.388549804687500000e-01,5.861816406250000000e-01
1.100000000000000000e+01,0.000000000000000000e+00,0.000000000000000000e+00,-1.300000000000000000e+01,-8.000000000000000000e+00,1.000000000000000000e+00,-2.000000000000000000e+00,2.000000000000000000e+00,-4.067993164062500000e-01,2.875366210937500000e-01,6.388549804687500000e-01,5.861816406250000000e-01
-1.200000000000000000e+01,-5.000000000000000000e+00,-1.000000000000000000e+00,5.000000000000000000e+00,8.000000000000000000e+00,0.000000000000000000e+00,-1.000000000000000000e+00,-2.000000000000000000e+00,-4.064331054687500000e-01,2.868041992187500000e-01,6.386718750000000000e-01,5.869750976562500000e-01
0.000000000000000000e+00,1.000000000000000000e+00,0.000000000000000000e+00,-6.000000000000000000e+00,-3.000000000000000000e+00,0.000000000000000000e+00,-2.000000000000000000e+00,-1.000000000000000000e+01,-4.064331054687500000e-01,2.868041992187500000e-01,6.386718750000000000e-01,5.869750976562500000e-01
0.000000000000000000e+00,2.000000000000000000e+00,2.000000000000000000e+00,2.000000000000000000e+00,-2.000000000000000000e+00,3.000000000000000000e+00,2.000000000000000000e+00,3.000000000000000000e+00,-4.064331054687500000e-01,2.868041992187500000e-01,6.386718750000000000e-01,5.869750976562500000e-01
4.000000000000000000e+00,-4.000000000000000000e+00,-6.000000000000000000e+00,-5.000000000000000000e+00,-7.000000000000000000e+00,-5.000000000000000000e+00,1.000000000000000000e+00,1.300000000000000000e+01,-4.064331054687500000e-01,2.868041992187500000e-01,6.386718750000000000e-01,5.869750976562500000e-01
-7.000000000000000000e+00,0.000000000000000000e+00,9.000000000000000000e+00,7.000000000000000000e+00,1.000000000000000000e+00,2.000000000000000000e+00,-3.000000000000000000e+00,-1.400000000000000000e+01,-4.060058593750000000e-01,2.862548828125000000e-01,6.386108398437500000e-01,5.876464843750000000e-01
-1.600000000000000000e+01,-5.000000000000000000e+00,-7.000000000000000000e+00,-1.000000000000000000e+00,3.000000000000000000e+00,-3.000000000000000000e+00,-8.000000000000000000e+00,-9.000000000000000000e+00,-4.060058593750000000e-01,2.862548828125000000e-01,6.386108398437500000e-01,5.876464843750000000e-01
1.800000000000000000e+01,-3.000000000000000000e+00,-1.000000000000000000e+00,-1.100000000000000000e+01,-1.100000000000000000e+01,-6.000000000000000000e+00,6.000000000000000000e+00,1.100000000000000000e+01,-4.060058593750000000e-01,2.862548828125000000e-01,6.386108398437500000e-01,5.876464843750000000e-01
-1.000000000000000000e+01,-1.300000000000000000e+01,4.000000000000000000e+00,1.000000000000000000e+01,8.000000000000000000e+00,2.000000000000000000e+00,-2.000000000000000000e+00,-3.000000000000000000e+00,-4.060058593750000000e-01,2.862548828125000000e-01,6.386108398437500000e-01,5.876464843750000000e-01
0.000000000000000000e+00,2.000000000000000000e+00,2.000000000000000000e+00,-8.000000000000000000e+00,-1.000000000000000000e+00,0.000000000000000000e+00,-1.000000000000000000e+00,-2.000000000000000000e+00,-4.059448242187500000e-01,2.854003906250000000e-01,6.389160156250000000e-01,5.877685546875000000e-01
2.000000000000000000e+00,-1.000000000000000000e+00,-6.000000000000000000e+00,5.000000000000000000e+00,1.000000000000000000e+00,0.000000000000000000e+00,1.000000000000000000e+00,-2.000000000000000000e+00,-4.059448242187500000e-01,2.854003906250000000e-01,6.389160156250000000e-01,5.877685546875000000e-01
-1.900000000000000000e+01,-2.000000000000000000e+00,4.000000000000000000e+00,-2.000000000000000000e+00,-5.000000000000000000e+00,-3.000000000000000000e+00,-5.000000000000000000e+00,-1.000000000000000000e+01,-4.059448242187500000e-01,2.854003906250000000e-01,6.389160156250000000e-01,5.877685546875000000e-01
8.000000000000000000e+00,2.000000000000000000e+00,-5.000000000000000000e+00,-1.000000000000000000e+01,-4.000000000000000000e+00,-2.000000000000000000e+00,2.000000000000000000e+00,5.000000000000000000e+00,-4.059448242187500000e-01,2.854003906250000000e-01,6.389160156250000000e-01,5.877685546875000000e-01
-6.000000000000000000e+00,-4.000000000000000000e+00,-2.000000000000000000e+00,-6.000000000000000000e+00,2.000000000000000000e+00,-2.000000000000000000e+00,-1.000000000000000000e+00,2.000000000000000000e+00,-4.063110351562500000e-01,2.841186523437500000e-01,6.392211914062500000e-01,5.878295898437500000e-01
-1.000000000000000000e+01,-3.000000000000000000e+00,5.000000000000000000e+00,3.000000000000000000e+00,-1.000000000000000000e+00,0.000000000000000000e+00,-2.000000000000000000e+00,-2.000000000000000000e+00,-4.063110351562500000e-01,2.841186523437500000e-01,6.392211914062500000e-01,5.878295898437500000e-01
1.200000000000000000e+01,2.000000000000000000e+00,-4.000000000000000000e+00,7.000000000000000000e+00,4.000000000000000000e+00,-1.000000000000000000e+00,1.000000000000000000e+00,2.000000000000000000e+00,-4.063110351562500000e-01,2.841186523437500000e-01,6.392211914062500000e-01,5.878295898437500000e-01
1.000000000000000000e+00,-6.000000000000000000e+00,-6.000000000000000000e+00,-3.000000000000000000e+00,-2.000000000000000000e+00,-1.000000000000000000e+00,1.000000000000000000e+00,-1.000000000000000000e+00,-4.063110351562500000e-01,2.841186523437500000e-01,6.392211914062500000e-01,5.878295898437500000e-01
-1.200000000000000000e+01,0.000000000000000000e+00,-3.000000000000000000e+00,0.000000000000000000e+00,-1.000000000000000000e+00,-4.000000000000000000e+00,-6.000000000000000000e+00,-8.000000000000000000e+00,-4.063110351562500000e-01,2.837524414062500000e-01,6.389770507812500000e-01,5.881958007812500000e-01
-5.000000000000000000e+00,4.000000000000000000e+00,-4.000000000000000000e+00,-1.000000000000000000e+00,-2.000000000000000000e+00,-1.000000000000000000e+00,4.000000000000000000e+00,2.000000000000000000e+00,-4.063110351562500000e-01,2.837524414062500000e-01,6.389770507812500000e-01,5.881958007812500000e-01
2.600000000000000000e+01,6.000000000000000000e+00,-1.000000000000000000e+00,-8.000000000000000000e+00,-9.000000000000000000e+00,-2.000000000000000000e+00,-1.000000000000000000e+00,3.000000000000000000e+00,-4.063110351562500000e-01,2.837524414062500000e-01,6.389770507812500000e-01,5.881958007812500000e-01
-2.100000000000000000e+01,-2.000000000000000000e+00,1.000000000000000000e+00,9.000000000000000000e+00,4.000000000000000000e+00,0.000000000000000000e+00,0.000000000000000000e+00,-5.000000000000000000e+00,-4.063110351562500000e-01,2.837524414062500000e-01,6.389770507812500000e-01,5.881958007812500000e-01
4.000000000000000000e+00,-8.000000000000000000e+00,-1.100000000000000000e+01,6.000000000000000000e+00,5.000000000000000000e+00,-1.000000000000000000e+00,1.000000000000000000e+00,-1.000000000000000000e+00,-4.061889648437500000e-01,2.835083007812500000e-01,6.387329101562500000e-01,5.886840820312500000e-01
2.700000000000000000e+01,1.200000000000000000e+01,0.000000000000000000e+00,-3.000000000000000000e+00,-7.000000000000000000e+00,1.000000000000000000e+00,0.000000000000000000e+00,4.000000000000000000e+00,-4.061889648437500000e-01,2.835083007812500000e-01,6.387329101562500000e-01,5.886840820312500000e-01
-2.400000000000000000e+01,-2.000000000000000000e+00,5.000000000000000000e+00,2.000000000000000000e+00,4.000000000000000000e+00,-4.000000000000000000e+00,0.000000000000000000e+00,1.000000000000000000e+00,-4.061889648437500000e-01,2.835083007812500000e-01,6.387329101562500000e-01,5.886840820312500000e-01
2.000000000000000000e+00,4.000000000000000000e+00,-1.000000000000000000e+00,-5.000000000000000000e+00,-9.000000000000000000e+00,-3.000000000000000000e+00,-5.000000000000000000e+00,-9.000000000000000000e+00,-4.061889648437500000e-01,2.835083007812500000e-01,6.387329101562500000e-01,5.886840820312500000e-01
-6.000000000000000000e+00,-2.000000000000000000e+00,-2.000000000000000000e+00,-1.000000000000000000e+00,4.000000000000000000e+00,0.000000000000000000e+00,-5.000000000000000000e+00,-8.000000000000000000e+00,-4.065551757812500000e-01,2.824096679687500000e-01,6.387939453125000000e-01,5.889282226562500000e-01
-4.700000000000000000e+01,-1.000000000000000000e+01,-7.000000000000000000e+00,-1.200000000000000000e+01,-2.000000000000000000e+00,-1.000000000000000000e+00,0.000000000000000000e+00,-8.000000000000000000e+00,-4.065551757812500000e-01,2.824096679687500000e-01,6.387939453125000000e-01,5.889282226562500000e-01
4.900000000000000000e+01,-3.000000000000000000e+00,-2.000000000000000000e+00,0.000000000000000000e+00,0.000000000000000000e+00,0.000000000000000000e+00,3.000000000000000000e+00,1.800000000000000000e+01,-4.065551757812500000e-01,2.824096679687500000e-01,6.387939453125000000e-01,5.889282226562500000e-01
-3.000000000000000000e+00,-8.000000000000000000e+00,-3.000000000000000000e+00,-9.000000000000000000e+00,-7.000000000000000000e+00,-1.000000000000000000e+00,-7.000000000000000000e+00,-9.000000000000000000e+00,-4.065551757812500000e-01,2.824096679687500000e-01,6.387939453125000000e-01,5.889282226562500000e-01
9.000000000000000000e+00,-1.000000000000000000e+00,2.000000000000000000e+00,1.000000000000000000e+00,-2.000000000000000000e+00,-2.000000000000000000e+00,-1.000000000000000000e+00,-3.000000000000000000e+00,-4.068603515625000000e-01,2.816162109375000000e-01,6.389770507812500000e-01,5.889282226562500000e-01
-4.000000000000000000e+00,2.000000000000000000e+00,-6.000000000000000000e+00,-7.000000000000000000e+00,-6.000000000000000000e+00,-7.000000000000000000e+00,-1.000000000000000000e+00,1.400000000000000000e+01,-4.068603515625000000e-01,2.816162109375000000e-01,6.389770507812500000e-01,5.889282226562500000e-01
-1.400000000000000000e+01,2.000000000000000000e+00,-7.000000000000000000e+00,7.000000000000000000e+00,7.000000000000000000e+00,0.000000000000000000e+00,-6.000000000000000000e+00,-1.600000000000000000e+01,-4.068603515625000000e-01,2.816162109375000000e-01,6.389770507812500000e-01,5.889282226562500000e-01
-2.200000000000000000e+01,-1.900000000000000000e+01,3.000000000000000000e+00,4.000000000000000000e+00,3.000000000000000000e+00,1.000000000000000000e+00,1.000000000000000000e+00,-1.000000000000000000e+00,-4.068603515625000000e-01,2.816162109375000000e-01,6.389770507812500000e-01,5.889282226562500000e-01
-5.000000000000000000e+00,7.000000000000000000e+00,-1.000000000000000000e+00,-1.000000000000000000e+00,-2.000000000000000000e+00,-2.000000000000000000e+00,-1.000000000000000000e+00,0.000000000000000000e+00,-4.074707031250000000e-01,2.807617187500000000e-01,6.389770507812500000e-01,5.888671875000000000e-01
3.000000000000000000e+01,7.000000000000000000e+00,-1.000000000000000000e+00,-3.000000000000000000e+00,-1.000000000000000000e+00,0.000000000000000000e+00,1.000000000000000000e+00,0.000000000000000000e+00,-4.074707031250000000e-01,2.807617187500000000e-01,6.389770507812500000e-01,5.888671875000000000e-01
-1.400000000000000000e+01,3.000000000000000000e+00,-5.000000000000000000e+00,-4.000000000000000000e+00,-7.000000000000000000e+00,0.000000000000000000e+00,0.000000000000000000e+00,1.000000000000000000e+00,-4.074707031250000000e-01,2.807617187500000000e-01,6.389770507812500000e-01,5.888671875000000000e-01
1.600000000000000000e+01,-2.000000000000000000e+00,-2.000000000000000000e+00,8.000000000000000000e+00,9.000000000000000000e+00,1.000000000000000000e+00,3.000000000000000000e+00,7.000000000000000000e+00,-4.074707031250000000e-01,2.807617187500000000e-01,6.389770507812500000e-01,5.888671875000000000e-01
-1.100000000000000000e+01,0.000000000000000000e+00,-7.000000000000000000e+00,3.000000000000000000e+00,-5.000000000000000000e+00,0.000000000000000000e+00,-2.000000000000000000e+00,-4.000000000000000000e+00,-4.074707031250000000e-01,2.807617187500000000e-01,6.389770507812500000e-01,5.888671875000000000e-01
6.000000000000000000e+00,-3.000000000000000000e+00,1.000000000000000000e+00,0.000000000000000000e+00,-3.000000000000000000e+00,-2.000000000000000000e+00,-3.000000000000000000e+00,-1.000000000000000000e+00,-4.074707031250000000e-01,2.807617187500000000e-01,6.389770507812500000e-01,5.888671875000000000e-01
-1.500000000000000000e+01,-2.000000000000000000e+00,-4.000000000000000000e+00,-6.000000000000000000e+00,1.000000000000000000e+00,0.000000000000000000e+00,-1.000000000000000000e+00,-3.000000000000000000e+00,-4.074707031250000000e-01,2.807617187500000000e-01,6.389770507812500000e-01,5.888671875000000000e-01
9.000000000000000000e+00,5.000000000000000000e+00,2.000000000000000000e+00,-4.000000000000000000e+00,-5.000000000000000000e+00,-2.000000000000000000e+00,-1.000000000000000000e+00,-1.000000000000000000e+00,-4.074707031250000000e-01,2.807617187500000000e-01,6.389770507812500000e-01,5.888671875000000000e-01
-4.000000000000000000e+00,-3.000000000000000000e+00,2.000000000000000000e+00,-4.000000000000000000e+00,-5.000000000000000000e+00,-3.000000000000000000e+00,1.000000000000000000e+00,3.000000000000000000e+00,-4.071044921875000000e-01,2.817382812500000000e-01,6.387939453125000000e-01,5.888671875000000000e-01
-1.100000000000000000e+01,-1.000000000000000000e+01,-2.000000000000000000e+00,-2.000000000000000000e+00,0.000000000000000000e+00,-2.000000000000000000e+00,-3.000000000000000000e+00,-5.000000000000000000e+00,-4.071044921875000000e-01,2.817382812500000000e-01,6.387939453125000000e-01,5.888671875000000000e-01
4.000000000000000000e+00,-3.000000000000000000e+00,-4.000000000000000000e+00,-2.000000000000000000e+00,-1.000000000000000000e+00,1.000000000000000000e+00,1.000000000000000000e+00,-2.000000000000000000e+00,-4.071044921875000000e-01,2.817382812500000000e-01,6.387939453125000000e-01,5.888671875000000000e-01
1.100000000000000000e+01,5.000000000000000000e+00,-2.000000000000000000e+00,7.000000000000000000e+00,-3.000000000000000000e+00,-2.000000000000000000e+00,0.000000000000000000e+00,3.000000000000000000e+00,-4.071044921875000000e-01,2.817382812500000000e-01,6.387939453125000000e-01,5.888671875000000000e-01
-2.500000000000000000e+01,-4.000000000000000000e+00,1.000000000000000000e+00,-4.000000000000000000e+00,-4.000000000000000000e+00,-2.000000000000000000e+00,-3.000000000000000000e+00,-4.000000000000000000e+00,-4.071044921875000000e-01,2.821655273437500000e-01,6.388549804687500000e-01,5.885620117187500000e-01
2.300000000000000000e+01,0.000000000000000000e+00,-2.000000000000000000e+00,-3.000000000000000000e+00,-1.000000000000000000e+00,-2.000000000000000000e+00,1.000000000000000000e+00,1.000000000000000000e+00,-4.071044921875000000e-01,2.821655273437500000e-01,6.388549804687500000e-01,5.885620117187500000e-01
-1.900000000000000000e+01,-9.000000000000000000e+00,-2.000000000000000000e+00,0.000000000000000000e+00,3.000000000000000000e+00,2.000000000000000000e+00,-6.000000000000000000e+00,-1.000000000000000000e+01,-4.071044921875000000e-01,2.821655273437500000e-01,6.388549804687500000e-01,5.885620117187500000e-01
7.000000000000000000e+00,6.000000000000000000e+00,-4.000000000000000000e+00,-4.000000000000000000e+00,0.000000000000000000e+00,0.000000000000000000e+00,0.000000000000000000e+00,0.000000000000000000e+00,-4.071044921875000000e-01,2.821655273437500000e-01,6.388549804687500000e-01,5.885620117187500000e-01
0.000000000000000000e+00,0.000000000000000000e+00,-3.000000000000000000e+00,-1.000000000000000000e+00,-2.000000000000000000e+00,-1.000000000000000000e+00,2.000000000000000000e+00,2.000000000000000000e+00,-4.077758789062500000e-01,2.813720703125000000e-01,6.391601562500000000e-01,5.881958007812500000e-01
-8.000000000000000000e+00,-3.000000000000000000e+00,2.000000000000000000e+00,0.000000000000000000e+00,-1.000000000000000000e+00,-5.000000000000000000e+00,-5.000000000000000000e+00,-7.000000000000000000e+00,-4.077758789062500000e-01,2.813720703125000000e-01,6.391601562500000000e-01,5.881958007812500000e-01
-5.000000000000000000e+00,-4.000000000000000000e+00,-1.000000000000000000e+00,4.000000000000000000e+00,0.000000000000000000e+00,4.000000000000000000e+00,-9.000000000000000000e+00,-9.000000000000000000e+00,-4.077758789062500000e-01,2.813720703125000000e-01,6.391601562500000000e-01,5.881958007812500000e-01
3.000000000000000000e+00,2.000000000000000000e+00,-3.000000000000000000e+00,-1.000000000000000000e+00,0.000000000000000000e+00,-4.000000000000000000e+00,1.000000000000000000e+00,7.000000000000000000e+00,-4.077758789062500000e-01,2.813720703125000000e-01,6.391601562500000000e-01,5.881958007812500000e-01
-1.300000000000000000e+01,-1.000000000000000000e+00,1.000000000000000000e+00,1.000000000000000000e+00,0.000000000000000000e+00,3.000000000000000000e+00,2.000000000000000000e+00,2.000000000000000000e+00,-4.082031250000000000e-01,2.807617187500000000e-01,6.395263671875000000e-01,5.877685546875000000e-01
1.400000000000000000e+01,-5.000000000000000000e+00,4.000000000000000000e+00,-5.000000000000000000e+00,-3.000000000000000000e+00,2.000000000000000000e+00,-1.000000000000000000e+00,-2.000000000000000000e+00,-4.082031250000000000e-01,2.807617187500000000e-01,6.395263671875000000e-01,5.877685546875000000e-01
7.000000000000000000e+00,-1.000000000000000000e+00,-3.000000000000000000e+00,-3.000000000000000000e+00,-1.000000000000000000e+00,-5.000000000000000000e+00,7.000000000000000000e+00,2.000000000000000000e+00,-4.082031250000000000e-01,2.807617187500000000e-01,6.395263671875000000e-01,5.877685546875000000e-01
-1.000000000000000000e+00,5.000000000000000000e+00,2.000000000000000000e+00,-4.000000000000000000e+00,-5.000000000000000000e+00,-1.000000000000000000e+00,-3.000000000000000000e+00,-4.000000000000000000e+00,-4.082031250000000000e-01,2.807617187500000000e-01,6.395263671875000000e-01,5.877685546875000000e-01
-1.300000000000000000e+01,-5.000000000000000000e+00,0.000000000000000000e+00,-5.000000000000000000e+00,2.000000000000000000e+00,-3.000000000000000000e+00,0.000000000000000000e+00,1.000000000000000000e+00,-4.085083007812500000e-01,2.804565429687500000e-01,6.398315429687500000e-01,5.873413085937500000e-01
-2.000000000000000000e+01,7.000000000000000000e+00,3.000000000000000000e+00,-2.000000000000000000e+00,-2.000000000000000000e+00,1.000000000000000000e+00,4.000000000000000000e+00,2.000000000000000000e+00,-4.085083007812500000e-01,2.804565429687500000e-01,6.398315429687500000e-01,5.873413085937500000e-01
1.500000000000000000e+01,-7.000000000000000000e+00,-7.000000000000000000e+00,-3.000000000000000000e+00,-6.000000000000000000e+00,0.000000000000000000e+00,-6.000000000000000000e+00,1.000000000000000000e+00,-4.085083007812500000e-01,2.804565429687500000e-01,6.398315429687500000e-01,5.873413085937500000e-01
-1.000000000000000000e+01,0.000000000000000000e+00,2.000000000000000000e+00,-6.000000000000000000e+00,-8.000000000000000000e+00,1.000000000000000000e+00,-1.000000000000000000e+00,-6.000000000000000000e+00,-4.085083007812500000e-01,2.804565429687500000e-01,6.398315429687500000e-01,5.873413085937500000e-01
1.700000000000000000e+01,5.000000000000000000e+00,-1.000000000000000000e+00,-1.500000000000000000e+01,-9.000000000000000000e+00,-4.000000000000000000e+00,-1.000000000000000000e+00,5.000000000000000000e+00,-4.085693359375000000e-01,2.804565429687500000e-01,6.398315429687500000e-01,5.873413085937500000e-01
-1.100000000000000000e+01,-1.000000000000000000e+00,-1.000000000000000000e+00,6.000000000000000000e+00,0.000000000000000000e+00,0.000000000000000000e+00,0.000000000000000000e+00,-1.000000000000000000e+00,-4.085693359375000000e-01,2.804565429687500000e-01,6.398315429687500000e-01,5.873413085937500000e-01
6.000000000000000000e+00,2.000000000000000000e+00,6.000000000000000000e+00,2.000000000000000000e+00,2.000000000000000000e+00,-3.000000000000000000e+00,1.000000000000000000e+00,2.000000000000000000e+00,-4.085693359375000000e-01,2.804565429687500000e-01,6.398315429687500000e-01,5.873413085937500000e-01
1.000000000000000000e+00,-9.000000000000000000e+00,-1.000000000000000000e+01,3.000000000000000000e+00,0.000000000000000000e+00,0.000000000000000000e+00,-2.000000000000000000e+00,-4.000000000000000000e+00,-4.085693359375000000e-01,2.804565429687500000e-01,6.398315429687500000e-01,5.873413085937500000e-01
3.000000000000000000e+00,7.000000000000000000e+00,3.000000000000000000e+00,3.000000000000000000e+00,-3.000000000000000000e+00,-1.000000000000000000e+00,-2.000000000000000000e+00,-3.000000000000000000e+00,-4.081420898437500000e-01,2.807617187500000000e-01,6.395874023437500000e-01,5.877685546875000000e-01
1.000000000000000000e+00,-3.000000000000000000e+00,-1.000000000000000000e+00,-5.000000000000000000e+00,-3.000000000000000000e+00,-2.000000000000000000e+00,-1.000000000000000000e+00,-2.000000000000000000e+00,-4.081420898437500000e-01,2.807617187500000000e-01,6.395874023437500000e-01,5.877685546875000000e-01
-9.000000000000000000e+00,1.000000000000000000e+01,2.000000000000000000e+00,-1.000000000000000000e+00,3.000000000000000000e+00,-1.000000000000000000e+00,-3.000000000000000000e+00,-3.000000000000000000e+00,-4.081420898437500000e-01,2.807617187500000000e-01,6.395874023437500000e-01,5.877685546875000000e-01
2.000000000000000000e+00,-4.000000000000000000e+00,-2.000000000000000000e+00,2.000000000000000000e+00,-1.000000000000000000e+00,0.000000000000000000e+00,1.000000000000000000e+00,1.000000000000000000e+00,-4.081420898437500000e-01,2.807617187500000000e-01,6.395874023437500000e-01,5.877685546875000000e-01
7.000000000000000000e+00,-5.000000000000000000e+00,-1.000000000000000000e+00,1.000000000000000000e+00,-1.000000000000000000e+00,-1.000000000000000000e+00,0.000000000000000000e+00,1.000000000000000000e+00,-4.078979492187500000e-01,2.803344726562500000e-01,6.395263671875000000e-01,5.881347656250000000e-01
2.000000000000000000e+00,-6.000000000000000000e+00,-8.000000000000000000e+00,3.000000000000000000e+00,2.000000000000000000e+00,1.000000000000000000e+00,-5.000000000000000000e+00,-4.000000000000000000e+00,-4.078979492187500000e-01,2.803344726562500000e-01,6.395263671875000000e-01,5.881347656250000000e-01
-2.500000000000000000e+01,-1.000000000000000000e+00,2.000000000000000000e+00,-1.100000000000000000e+01,1.000000000000000000e+00,-4.000000000000000000e+00,-1.000000000000000000e+00,-2.000000000000000000e+00,-4.078979492187500000e-01,2.803344726562500000e-01,6.395263671875000000e-01,5.881347656250000000e-01
4.000000000000000000e+00,7.000000000000000000e+00,8.000000000000000000e+00,6.000000000000000000e+00,4.000000000000000000e+00,1.000000000000000000e+00,2.000000000000000000e+00,0.000000000000000000e+00,-4.078979492187500000e-01,2.803344726562500000e-01,6.395263671875000000e-01,5.881347656250000000e-01
3.000000000000000000e+00,-4.000000000000000000e+00,-8.000000000000000000e+00,-1.000000000000000000e+00,-5.000000000000000000e+00,1.000000000000000000e+00,0.000000000000000000e+00,-1.000000000000000000e+00,-4.078369140625000000e-01,2.795410156250000000e-01,6.397705078125000000e-01,5.883178710937500000e-01
6.000000000000000000e+00,-1.000000000000000000e+00,-7.000000000000000000e+00,-5.000000000000000000e+00,-3.000000000000000000e+00,-1.000000000000000000e+00,-7.000000000000000000e+00,-1.000000000000000000e+00,-4.078369140625000000e-01,2.795410156250000000e-01,6.397705078125000000e-01,5.883178710937500000e-01
-1.100000000000000000e+01,-2.000000000000000000e+00,1.000000000000000000e+00,3.000000000000000000e+00,1.000000000000000000e+00,0.000000000000000000e+00,4.000000000000000000e+00,0.000000000000000000e+00,-4.078369140625000000e-01,2.795410156250000000e-01,6.397705078125000000e-01,5.883178710937500000e-01
9.000000000000000000e+00,0.000000000000000000e+00,0.000000000000000000e+00,-6.000000000000000000e+00,1.000000000000000000e+00,-1.000000000000000000e+00,4.000000000000000000e+00,5.000000000000000000e+00,-4.078369140625000000e-01,2.795410156250000000e-01,6.397705078125000000e-01,5.883178710937500000e-01
4.000000000000000000e+00,-1.000000000000000000e+00,4.000000000000000000e+00,2.000000000000000000e+00,1.000000000000000000e+00,1.000000000000000000e+00,-2.000000000000000000e+00,0.000000000000000000e+00,-4.078979492187500000e-01,2.786254882812500000e-01,6.400146484375000000e-01,5.885009765625000000e-01
2.000000000000000000e+00,-1.000000000000000000e+00,-3.000000000000000000e+00,-4.000000000000000000e+00,-6.000000000000000000e+00,-3.000000000000000000e+00,0.000000000000000000e+00,-1.000000000000000000e+00,-4.078979492187500000e-01,2.786254882812500000e-01,6.400146484375000000e-01,5.885009765625000000e-01
-8.000000000000000000e+00,-3.000000000000000000e+00,-4.000000000000000000e+00,5.000000000000000000e+00,-2.000000000000000000e+00,3.000000000000000000e+00,1.000000000000000000e+00,-1.000000000000000000e+00,-4.078979492187500000e-01,2.786254882812500000e-01,6.400146484375000000e-01,5.885009765625000000e-01
-3.000000000000000000e+00,2.000000000000000000e+00,1.000000000000000000e+00,-1.000000000000000000e+01,-1.000000000000000000e+00,-4.000000000000000000e+00,-4.000000000000000000e+00,-7.000000000000000000e+00,-4.078979492187500000e-01,2.786254882812500000e-01,6.400146484375000000e-01,5.885009765625000000e-01
0.000000000000000000e+00,0.000000000000000000e+00,-2.000000000000000000e+00,4.000000000000000000e+00,2.000000000000000000e+00,-1.000000000000000000e+00,-4.000000000000000000e+00,3.000000000000000000e+00,-4.077148437500000000e-01,2.781372070312500000e-01,6.400756835937500000e-01,5.887451171875000000e-01
-1.000000000000000000e+01,-1.200000000000000000e+01,5.000000000000000000e+00,5.000000000000000000e+00,2.000000000000000000e+00,3.000000000000000000e+00,0.000000000000000000e+00,1.000000000000000000e+00,-4.077148437500000000e-01,2.781372070312500000e-01,6.400756835937500000e-01,5.887451171875000000e-01
2.000000000000000000e+01,3.000000000000000000e+00,0.000000000000000000e+00,-5.000000000000000000e+00,-3.000000000000000000e+00,-1.000000000000000000e+00,0.000000000000000000e+00,2.000000000000000000e+00,-4.077148437500000000e-01,2.781372070312500000e-01,6.400756835937500000e-01,5.887451171875000000e-01
-5.000000000000000000e+00,-1.300000000000000000e+01,-1.000000000000000000e+01,-5.000000000000000000e+00,-3.000000000000000000e+00,1.000000000000000000e+00,-4.000000000000000000e+00,-4.000000000000000000e+00,-4.077148437500000000e-01,2.781372070312500000e-01,6.400756835937500000e-01,5.887451171875000000e-01
-2.000000000000000000e+00,9.000000000000000000e+00,1.000000000000000000e+00,2.000000000000000000e+00,3.000000000000000000e+00,-5.000000000000000000e+00,-1.000000000000000000e+00,-5.000000000000000000e+00,-4.072875976562500000e-01,2.783203125000000000e-01,6.399536132812500000e-01,5.891113281250000000e-01
-2.000000000000000000e+00,2.000000000000000000e+00,0.000000000000000000e+00,-9.000000000000000000e+00,-5.000000000000000000e+00,0.000000000000000000e+00,2.000000000000000000e+00,2.000000000000000000e+00,-4.072875976562500000e-01,2.783203125000000000e-01,6.399536132812500000e-01,5.891113281250000000e-01
-8.000000000000000000e+00,-2.000000000000000000e+00,-4.000000000000000000e+00,8.000000000000000000e+00,7.000000000000000000e+00,0.000000000000000000e+00,-3.000000000000000000e+00,-4.000000000000000000e+00,-4.072875976562500000e-01,2.783203125000000000e-01,6.399536132812500000e-01,5.891113281250000000e-01
1.200000000000000000e+01,6.000000000000000000e+00,-1.000000000000000000e+00,0.000000000000000000e+00,-1.000000000000000000e+00,1.000000000000000000e+00,1.000000000000000000e+00,5.000000000000000000e+00,-4.072875976562500000e-01,2.783203125000000000e-01,6.399536132812500000e-01,5.891113281250000000e-01
-1.000000000000000000e+00,-2.000000000000000000e+00,0.000000000000000000e+00,-5.000000000000000000e+00,2.000000000000000000e+00,-1.000000000000000000e+00,-1.000000000000000000e+00,-3.000000000000000000e+00,-4.067382812500000000e-01,2.788085937500000000e-01,6.397705078125000000e-01,5.894165039062500000e-01
-3.000000000000000000e+00,0.000000000000000000e+00,-4.000000000000000000e+00,-8.000000000000000000e+00,-2.000000000000000000e+00,-3.000000000000000000e+00,-1.000000000000000000e+00,0.000000000000000000e+00,-4.067382812500000000e-01,2.788085937500000000e-01,6.397705078125000000e-01,5.894165039062500000e-01
-9.000000000000000000e+00,-1.000000000000000000e+00,-1.000000000000000000e+00,-1.000000000000000000e+00,-3.000000000000000000e+00,-3.000000000000000000e+00,0.000000000000000000e+00,-2.000000000000000000e+00,-4.067382812500000000e-01,2.788085937500000000e-01,6.397705078125000000e-01,5.894165039062500000e-01
2.000000000000000000e+00,0.000000000000000000e+00,-2.000000000000000000e+00,0.000000000000000000e+00,0.000000000000000000e+00,2.000000000000000000e+00,1.000000000000000000e+01,8.000000000000000000e+00,-4.067382812500000000e-01,2.788085937500000000e-01,6.397705078125000000e-01,5.894165039062500000e-01
1.000000000000000000e+01,2.000000000000000000e+00,-2.000000000000000000e+00,5.000000000000000000e+00,5.000000000000000000e+00,-3.000000000000000000e+00,-1.700000000000000000e+01,-5.000000000000000000e+00,-4.063720703125000000e-01,2.792968750000000000e-01,6.395874023437500000e-01,5.896606445312500000e-01
-6.000000000000000000e+00,-1.600000000000000000e+01,-4.000000000000000000e+00,1.000000000000000000e+00,-1.000000000000000000e+00,0.000000000000000000e+00,3.000000000000000000e+00,1.000000000000000000e+00,-4.063720703125000000e-01,2.792968750000000000e-01,6.395874023437500000e-01,5.896606445312500000e-01
0.000000000000000000e+00,5.000000000000000000e+00,3.000000000000000000e+00,-3.000000000000000000e+00,-3.000000000000000000e+00,-1.000000000000000000e+00,-2.000000000000000000e+00,1.000000000000000000e+00,-4.063720703125000000e-01,2.792968750000000000e-01,6.395874023437500000e-01,5.896606445312500000e-01
-1.600000000000000000e+01,0.000000000000000000e+00,-1.000000000000000000e+00,0.000000000000000000e+00,2.000000000000000000e+00,-2.000000000000000000e+00,-3.000000000000000000e+00,-6.000000000000000000e+00,-4.063720703125000000e-01,2.792968750000000000e-01,6.395874023437500000e-01,5.896606445312500000e-01
-8.000000000000000000e+00,-2.000000000000000000e+00,-5.000000000000000000e+00,3.000000000000000000e+00,-7.000000000000000000e+00,0.000000000000000000e+00,7.000000000000000000e+00,2.000000000000000000e+00,-4.061889648437500000e-01,2.795410156250000000e-01,6.395874023437500000e-01,5.896606445312500000e-01
2.000000000000000000e+01,1.000000000000000000e+01,-3.000000000000000000e+00,3.000000000000000000e+00,5.000000000000000000e+00,1.000000000000000000e+00,0.000000000000000000e+00,-2.000000000000000000e+00,-4.061889648437500000e-01,2.795410156250000000e-01,6.395874023437500000e-01,5.896606445312500000e-01
-3.000000000000000000e+00,-1.300000000000000000e+01,5.000000000000000000e+00,-6.000000000000000000e+00,-7.000000000000000000e+00,-2.000000000000000000e+00,-4.000000000000000000e+00,7.000000000000000000e+00,-4.061889648437500000e-01,2.795410156250000000e-01,6.395874023437500000e-01,5.896606445312500000e-01
8.000000000000000000e+00,4.000000000000000000e+00,-3.000000000000000000e+00,3.000000000000000000e+00,-1.000000000000000000e+00,0.000000000000000000e+00,1.000000000000000000e+00,2.000000000000000000e+00,-4.061889648437500000e-01,2.795410156250000000e-01,6.395874023437500000e-01,5.896606445312500000e-01
-1.300000000000000000e+01,-1.100000000000000000e+01,-7.000000000000000000e+00,1.000000000000000000e+00,0.000000000000000000e+00,-1.000000000000000000e+00,-4.000000000000000000e+00,-9.000000000000000000e+00,-4.060058593750000000e-01,2.797241210937500000e-01,6.399536132812500000e-01,5.892944335937500000e-01
-5.000000000000000000e+00,4.000000000000000000e+00,0.000000000000000000e+00,-1.000000000000000000e+00,-1.000000000000000000e+00,0.000000000000000000e+00,-2.000000000000000000e+00,-1.000000000000000000e+00,-4.060058593750000000e-01,2.797241210937500000e-01,6.399536132812500000e-01,5.892944335937500000e-01
-3.000000000000000000e+00,-3.000000000000000000e+00,-3.000000000000000000e+00,-4.000000000000000000e+00,-7.000000000000000000e+00,-2.000000000000000000e+00,0.000000000000000000e+00,-4.000000000000000000e+00,-4.060058593750000000e-01,2.797241210937500000e-01,6.399536132812500000e-01,5.892944335937500000e-01
5.000000000000000000e+00,5.000000000000000000e+00,2.000000000000000000e+00,-3.000000000000000000e+00,0.000000000000000000e+00,1.000000000000000000e+00,-1.000000000000000000e+00,0.000000000000000000e+00,-4.060058593750000000e-01,2.797241210937500000e-01,6.399536132812500000e-01,5.892944335937500000e-01
-7.000000000000000000e+00,-3.000000000000000000e+00,0.000000000000000000e+00,3.000000000000000000e+00,2.000000000000000000e+00,0.000000000000000000e+00,1.000000000000000000e+00,0.000000000000000000e+00,-4.060668945312500000e-01,2.801513671875000000e-01,6.403198242187500000e-01,5.886840820312500000e-01
-1.000000000000000000e+01,2.000000000000000000e+00,-2.000000000000000000e+00,-5.000000000000000000e+00,-4.000000000000000000e+00,-1.000000000000000000e+00,-1.000000000000000000e+00,-2.000000000000000000e+00,-4.060668945312500000e-01,2.801513671875000000e-01,6.403198242187500000e-01,5.886840820312500000e-01
2.100000000000000000e+01,3.000000000000000000e+00,-1.000000000000000000e+00,-2.000000000000000000e+00,-8.000000000000000000e+00,0.000000000000000000e+00,3.000000000000000000e+00,4.000000000000000000e+00,-4.060668945312500000e-01,2.801513671875000000e-01,6.403198242187500000e-01,5.886840820312500000e-01
-1.300000000000000000e+01,-4.000000000000000000e+00,-4.000000000000000000e+00,0.000000000000000000e+00,1.000000000000000000e+00,-1.000000000000000000e+00,-2.000000000000000000e+00,-3.000000000000000000e+00,-4.060668945312500000e-01,2.801513671875000000e-01,6.403198242187500000e-01,5.886840820312500000e-01
-4.000000000000000000e+00,-3.000000000000000000e+00,-3.000000000000000000e+00,-7.000000000000000000e+00,-9.000000000000000000e+00,-6.000000000000000000e+00,-2.000000000000000000e+00,-2.000000000000000000e+00,-4.055786132812500000e-01,2.812500000000000000e-01,6.403198242187500000e-01,5.885009765625000000e-01
-2.000000000000000000e+00,-4.000000000000000000e+00,0.000000000000000000e+00,-1.000000000000000000e+00,-1.000000000000000000e+00,-4.000000000000000000e+00,-4.000000000000000000e+00,-3.000000000000000000e+00,-4.055786132812500000e-01,2.812500000000000000e-01,6.403198242187500000e-01,5.885009765625000000e-01
-6.000000000000000000e+00,0.000000000000000000e+00,3.000000000000000000e+00,8.000000000000000000e+00,6.000000000000000000e+00,1.000000000000000000e+00,4.000000000000000000e+00,1.000000000000000000e+00,-4.055786132812500000e-01,2.812500000000000000e-01,6.403198242187500000e-01,5.885009765625000000e-01
-5.000000000000000000e+00,-1.000000000000000000e+00,0.000000000000000000e+00,-5.000000000000000000e+00,-7.000000000000000000e+00,-3.000000000000000000e+00,-5.000000000000000000e+00,-6.000000000000000000e+00,-4.055786132812500000e-01,2.812500000000000000e-01,6.403198242187500000e-01,5.885009765625000000e-01
-1.600000000000000000e+01,-3.000000000000000000e+00,2.000000000000000000e+00,-3.000000000000000000e+00,0.000000000000000000e+00,0.000000000000000000e+00,3.000000000000000000e+00,0.000000000000000000e+00,-4.054565429687500000e-01,2.818603515625000000e-01,6.403198242187500000e-01,5.883178710937500000e-01
8.000000000000000000e+00,-3.000000000000000000e+00,0.000000000000000000e+00,2.000000000000000000e+00,0.000000000000000000e+00,-1.000000000000000000e+00,0.000000000000000000e+00,-1.000000000000000000e+00,-4.054565429687500000e-01,2.818603515625000000e-01,6.403198242187500000e-01,5.883178710937500000e-01
3.000000000000000000e+00,3.000000000000000000e+00,-4.000000000000000000e+00,-4.000000000000000000e+00,-2.000000000000000000e+00,1.000000000000000000e+00,-4.000000000000000000e+00,-2.000000000000000000e+00,-4.054565429687500000e-01,2.818603515625000000e-01,6.403198242187500000e-01,5.883178710937500000e-01
0.000000000000000000e+00,-5.000000000000000000e+00,3.000000000000000000e+00,5.000000000000000000e+00,4.000000000000000000e+00,-1.000000000000000000e+00,-4.000000000000000000e+00,0.000000000000000000e+00,-4.054565429687500000e-01,2.818603515625000000e-01,6.403198242187500000e-01,5.883178710937500000e-01
1.000000000000000000e+00,-1.000000000000000000e+00,-5.000000000000000000e+00,-5.000000000000000000e+00,2.000000000000000000e+00,2.000000000000000000e+00,6.000000000000000000e+00,-1.000000000000000000e+00,-4.055786132812500000e-01,2.822875976562500000e-01,6.402587890625000000e-01,5.880737304687500000e-01
-2.000000000000000000e+00,-2.000000000000000000e+00,1.000000000000000000e+00,3.000000000000000000e+00,-1.000000000000000000e+00,-3.000000000000000000e+00,-1.300000000000000000e+01,-2.000000000000000000e+00,-4.055786132812500000e-01,2.822875976562500000e-01,6.402587890625000000e-01,5.880737304687500000e-01
-6.000000000000000000e+00,2.000000000000000000e+00,-6.000000000000000000e+00,-2.000000000000000000e+00,-1.000000000000000000e+00,-2.000000000000000000e+00,-1.000000000000000000e+00,-3.000000000000000000e+00,-4.055786132812500000e-01,2.822875976562500000e-01,6.402587890625000000e-01,5.880737304687500000e-01
-3.000000000000000000e+00,-8.000000000000000000e+00,4.000000000000000000e+00,-5.000000000000000000e+00,-3.000000000000000000e+00,0.000000000000000000e+00,0.000000000000000000e+00,-2.000000000000000000e+00,-4.055786132812500000e-01,2.822875976562500000e-01,6.402587890625000000e-01,5.880737304687500000e-01
2.000000000000000000e+00,1.000000000000000000e+00,-2.000000000000000000e+00,7.000000000000000000e+00,4.000000000000000000e+00,0.000000000000000000e+00,-1.000000000000000000e+00,-1.000000000000000000e+00,-4.055786132812500000e-01,2.828979492187500000e-01,6.402587890625000000e-01,5.877685546875000000e-01
2.000000000000000000e+00,0.000000000000000000e+00,1.000000000000000000e+00,-2.000000000000000000e+00,-2.000000000000000000e+00,-1.000000000000000000e+00,6.000000000000000000e+00,6.000000000000000000e+00,-4.055786132812500000e-01,2.828979492187500000e-01,6.402587890625000000e-01,5.877685546875000000e-01
-7.000000000000000000e+00,-2.000000000000000000e+00,-3.000000000000000000e+00,0.000000000000000000e+00,0.000000000000000000e+00,1.000000000000000000e+00,-2.000000000000000000e+00,-7.000000000000000000e+00,-4.055786132812500000e-01,2.828979492187500000e-01,6.402587890625000000e-01,5.877685546875000000e-01
-2.000000000000000000e+00,2.000000000000000000e+00,-1.000000000000000000e+00,-7.000000000000000000e+00,-5.000000000000000000e+00,-4.000000000000000000e+00,-3.000000000000000000e+00,-8.000000000000000000e+00,-4.055786132812500000e-01,2.828979492187500000e-01,6.402587890625000000e-01,5.877685546875000000e-01
6.000000000000000000e+00,-1.000000000000000000e+00,2.000000000000000000e+00,-8.000000000000000000e+00,1.000000000000000000e+00,-1.000000000000000000e+00,-3.000000000000000000e+00,5.000000000000000000e+00,-4.059448242187500000e-01,2.827758789062500000e-01,6.404418945312500000e-01,5.873413085937500000e-01
4.000000000000000000e+00,3.000000000000000000e+00,-5.000000000000000000e+00,3.000000000000000000e+00,0.000000000000000000e+00,2.000000000000000000e+00,6.000000000000000000e+00,2.000000000000000000e+00,-4.059448242187500000e-01,2.827758789062500000e-01,6.404418945312500000e-01,5.873413085937500000e-01
-1.400000000000000000e+01,-2.000000000000000000e+00,-5.000000000000000000e+00,-3.000000000000000000e+00,-3.000000000000000000e+00,-4.000000000000000000e+00,-5.000000000000000000e+00,-4.000000000000000000e+00,-4.059448242187500000e-01,2.827758789062500000e-01,6.404418945312500000e-01,5.873413085937500000e-01
5.000000000000000000e+00,-1.000000000000000000e+00,4.000000000000000000e+00,7.000000000000000000e+00,9.000000000000000000e+00,5.000000000000000000e+00,5.000000000000000000e+00,1.000000000000000000e+00,-4.059448242187500000e-01,2.827758789062500000e-01,6.404418945312500000e-01,5.873413085937500000e-01
4.000000000000000000e+00,-2.000000000000000000e+00,-1.000000000000000000e+00,-2.000000000000000000e+00,-8.000000000000000000e+00,2.000000000000000000e+00,-1.000000000000000000e+00,-1.000000000000000000e+00,-4.063720703125000000e-01,2.825317382812500000e-01,6.405639648437500000e-01,5.870971679687500000e-01
1.800000000000000000e+01,5.000000000000000000e+00,-1.000000000000000000e+00,-4.000000000000000000e+00,0.000000000000000000e+00,2.000000000000000000e+00,6.000000000000000000e+00,5.000000000000000000e+00,-4.063720703125000000e-01,2.825317382812500000e-01,6.405639648437500000e-01,5.870971679687500000e-01
-1.300000000000000000e+01,-1.200000000000000000e+01,5.000000000000000000e+00,-4.000000000000000000e+00,-3.000000000000000000e+00,-3.000000000000000000e+00,-6.000000000000000000e+00,-5.000000000000000000e+00,-4.063720703125000000e-01,2.825317382812500000e-01,6.405639648437500000e-01,5.870971679687500000e-01
-8.000000000000000000e+00,4.000000000000000000e+00,-4.000000000000000000e+00,-8.000000000000000000e+00,-6.000000000000000000e+00,-4.000000000000000000e+00,3.000000000000000000e+00,-2.000000000000000000e+00,-4.063720703125000000e-01,2.825317382812500000e-01,6.405639648437500000e-01,5.870971679687500000e-01
-5.000000000000000000e+00,-1.000000000000000000e+00,0.000000000000000000e+00,1.200000000000000000e+01,7.000000000000000000e+00,0.000000000000000000e+00,-3.000000000000000000e+00,0.000000000000000000e+00,-4.067382812500000000e-01,2.824707031250000000e-01,6.405639648437500000e-01,5.868530273437500000e-01
1.000000000000000000e+00,-2.000000000000000000e+00,3.000000000000000000e+00,2.000000000000000000e+00,-1.000000000000000000e+00,1.000000000000000000e+00,2.000000000000000000e+00,-3.000000000000000000e+00,-4.067382812500000000e-01,2.824707031250000000e-01,6.405639648437500000e-01,5.868530273437500000e-01
5.000000000000000000e+00,0.000000000000000000e+00,-2.000000000000000000e+00,-1.000000000000000000e+00,0.000000000000000000e+00,-3.000000000000000000e+00,-2.000000000000000000e+00,0.000000000000000000e+00,-4.067382812500000000e-01,2.824707031250000000e-01,6.405639648437500000e-01,5.868530273437500000e-01
-3.000000000000000000e+00,-2.000000000000000000e+00,-3.000000000000000000e+00,0.000000000000000000e+00,-2.000000000000000000e+00,-1.000000000000000000e+00,2.000000000000000000e+00,4.000000000000000000e+00,-4.067382812500000000e-01,2.824707031250000000e-01,6.405639648437500000e-01,5.868530273437500000e-01
9.000000000000000000e+00,6.000000000000000000e+00,6.000000000000000000e+00,-6.000000000000000000e+00,-1.000000000000000000e+00,-1.000000000000000000e+00,2.000000000000000000e+00,3.000000000000000000e+00,-4.072875976562500000e-01,2.823486328125000000e-01,6.404418945312500000e-01,5.866699218750000000e-01
-8.000000000000000000e+00,-6.000000000000000000e+00,-8.000000000000000000e+00,-2.000000000000000000e+00,0.000000000000000000e+00,-1.000000000000000000e+00,-3.000000000000000000e+00,-3.000000000000000000e+00,-4.072875976562500000e-01,2.823486328125000000e-01,6.404418945312500000e-01,5.866699218750000000e-01
2.000000000000000000e+00,-3.000000000000000000e+00,-5.000000000000000000e+00,4.000000000000000000e+00,2.000000000000000000e+00,-1.000000000000000000e+00,-1.000000000000000000e+00,-1.000000000000000000e+00,-4.072875976562500000e-01,2.823486328125000000e-01,6.404418945312500000e-01,5.866699218750000000e-01
0.000000000000000000e+00,3.000000000000000000e+00,2.000000000000000000e+00,-3.000000000000000000e+00,-3.000000000000000000e+00,-1.000000000000000000e+00,-5.000000000000000000e+00,-3.000000000000000000e+00,-4.072875976562500000e-01,2.823486328125000000e-01,6.404418945312500000e-01,5.866699218750000000e-01
-1.400000000000000000e+01,-7.000000000000000000e+00,2.000000000000000000e+00,-2.000000000000000000e+00,-3.000000000000000000e+00,-1.000000000000000000e+00,-3.000000000000000000e+00,-5.000000000000000000e+00,-4.077758789062500000e-01,2.819824218750000000e-01,6.403198242187500000e-01,5.866088867187500000e-01
9.000000000000000000e+00,3.000000000000000000e+00,2.000000000000000000e+00,4.000000000000000000e+00,-1.000000000000000000e+00,1.000000000000000000e+00,-2.000000000000000000e+00,0.000000000000000000e+00,-4.077758789062500000e-01,2.819824218750000000e-01,6.403198242187500000e-01,5.866088867187500000e-01
1.300000000000000000e+01,-1.000000000000000000e+00,0.000000000000000000e+00,-1.000000000000000000e+00,-2.000000000000000000e+00,2.000000000000000000e+00,5.000000000000000000e+00,8.000000000000000000e+00,-4.077758789062500000e-01,2.819824218750000000e-01,6.403198242187500000e-01,5.866088867187500000e-01
-7.000000000000000000e+00,0.000000000000000000e+00,-3.000000000000000000e+00,-3.000000000000000000e+00,-3.000000000000000000e+00,-3.000000000000000000e+00,-7.000000000000000000e+00,-6.000000000000000000e+00,-4.077758789062500000e-01,2.819824218750000000e-01,6.403198242187500000e-01,5.866088867187500000e-01
4.000000000000000000e+00,-2.000000000000000000e+00,-1.000000000000000000e+00,1.000000000000000000e+00,4.000000000000000000e+00,1.000000000000000000e+00,1.000000000000000000e+00,-1.000000000000000000e+00,-4.083862304687500000e-01,2.814331054687500000e-01,6.403808593750000000e-01,5.864257812500000000e-01
-3.200000000000000000e+01,-6.000000000000000000e+00,-7.000000000000000000e+00,-1.000000000000000000e+00,1.000000000000000000e+00,0.000000000000000000e+00,-3.000000000000000000e+00,-1.000000000000000000e+01,-4.083862304687500000e-01,2.814331054687500000e-01,6.403808593750000000e-01,5.864257812500000000e-01
