-1.200000000000000000e+01,-1.200000000000000000e+01,-8.000000000000000000e+00,-1.000000000000000000e+00,-3.000000000000000000e+00,-1.200000000000000000e+01,-9.000000000000000000e+00,-1.000000000000000000e+01,-4.323120117187500000e-01,2.232666015625000000e-01,7.871093750000000000e-01,3.789672851562500000e-01
9.000000000000000000e+00,-2.000000000000000000e+00,-3.000000000000000000e+00,8.000000000000000000e+00,5.000000000000000000e+00,-2.000000000000000000e+00,0.000000000000000000e+00,2.000000000000000000e+00,-4.323120117187500000e-01,2.232666015625000000e-01,7.871093750000000000e-01,3.789672851562500000e-01
-1.000000000000000000e+00,2.000000000000000000e+00,5.000000000000000000e+00,-7.000000000000000000e+00,-7.000000000000000000e+00,0.000000000000000000e+00,-2.000000000000000000e+00,0.000000000000000000e+00,-4.312133789062500000e-01,2.238769531250000000e-01,7.873535156250000000e-01,3.794555664062500000e-01
-1.100000000000000000e+01,-1.000000000000000000e+00,-1.000000000000000000e+01,-1.700000000000000000e+01,-1.000000000000000000e+01,-4.000000000000000000e+00,-2.000000000000000000e+00,-6.000000000000000000e+00,-4.312133789062500000e-01,2.238769531250000000e-01,7.873535156250000000e-01,3.794555664062500000e-01
3.000000000000000000e+00,3.000000000000000000e+00,1.000000000000000000e+00,9.000000000000000000e+00,2.000000000000000000e+00,8.000000000000000000e+00,9.000000000000000000e+00,1.000000000000000000e+00,-4.312133789062500000e-01,2.238769531250000000e-01,7.873535156250000000e-01,3.794555664062500000e-01
1.200000000000000000e+01,0.000000000000000000e+00,-2.000000000000000000e+00,-2.700000000000000000e+01,-4.000000000000000000e+00,-3.000000000000000000e+00,3.000000000000000000e+00,5.000000000000000000e+00,-4.312133789062500000e-01,2.238769531250000000e-01,7.873535156250000000e-01,3.794555664062500000e-01
-9.000000000000000000e+00,-4.000000000000000000e+00,-6.000000000000000000e+00,1.900000000000000000e+01,1.000000000000000000e+01,1.000000000000000000e+00,-3.000000000000000000e+00,0.000000000000000000e+00,-4.317626953125000000e-01,2.225952148437500000e-01,7.878417968750000000e-01,3.784790039062500000e-01
-8.000000000000000000e+00,-1.000000000000000000e+00,0.000000000000000000e+00,6.000000000000000000e+00,1.000000000000000000e+00,-3.000000000000000000e+00,-5.000000000000000000e+00,-6.000000000000000000e+00,-4.317626953125000000e-01,2.225952148437500000e-01,7.878417968750000000e-01,3.784790039062500000e-01
-3.000000000000000000e+00,-7.000000000000000000e+00,-2.300000000000000000e+01,-1.000000000000000000e+01,-3.000000000000000000e+00,7.000000000000000000e+00,6.000000000000000000e+00,0.000000000000000000e+00,-4.317626953125000000e-01,2.225952148437500000e-01,7.878417968750000000e-01,3.784790039062500000e-01
2.500000000000000000e+01,0.000000000000000000e+00,1.400000000000000000e+01,-4.000000000000000000e+00,-9.000000000000000000e+00,-4.000000000000000000e+00,-2.000000000000000000e+00,1.200000000000000000e+01,-4.317626953125000000e-01,2.225952148437500000e-01,7.878417968750000000e-01,3.784790039062500000e-01
-6.000000000000000000e+00,-1.000000000000000000e+00,9.000000000000000000e+00,7.000000000000000000e+00,-1.000000000000000000e+00,1.000000000000000000e+00,-3.000000000000000000e+00,-6.000000000000000000e+00,-4.332275390625000000e-01,2.203369140625000000e-01,7.883300781250000000e-01,3.771972656250000000e-01
-2.000000000000000000e+00,2.000000000000000000e+00,-8.000000000000000000e+00,-9.000000000000000000e+00,9.000000000000000000e+00,0.000000000000000000e+00,-1.000000000000000000e+00,-7.000000000000000000e+00,-4.332275390625000000e-01,2.203369140625000000e-01,7.883300781250000000e-01,3.771972656250000000e-01
-6.000000000000000000e+00,-2.000000000000000000e+00,-2.000000000000000000e+00,-4.000000000000000000e+00,-3.000000000000000000e+00,-4.000000000000000000e+00,-6.000000000000000000e+00,-3.000000000000000000e+00,-4.332275390625000000e-01,2.203369140625000000e-01,7.883300781250000000e-01,3.771972656250000000e-01
-7.000000000000000000e+00,-3.000000000000000000e+00,-1.300000000000000000e+01,4.000000000000000000e+00,-1.000000000000000000e+00,3.000000000000000000e+00,0.000000000000000000e+00,-3.000000000000000000e+00,-4.332275390625000000e-01,2.203369140625000000e-01,7.883300781250000000e-01,3.771972656250000000e-01
1.000000000000000000e+00,-2.000000000000000000e+00,-5.000000000000000000e+00,0.000000000000000000e+00,-2.000000000000000000e+00,-1.000000000000000000e+00,2.000000000000000000e+00,3.000000000000000000e+00,-4.349365234375000000e-01,2.144165039062500000e-01,7.896728515625000000e-01,3.757934570312500000e-01
-2.000000000000000000e+00,3.000000000000000000e+00,1.200000000000000000e+01,4.000000000000000000e+00,-1.000000000000000000e+00,-1.000000000000000000e+00,0.000000000000000000e+00,-3.000000000000000000e+00,-4.349365234375000000e-01,2.144165039062500000e-01,7.896728515625000000e-01,3.757934570312500000e-01
-3.000000000000000000e+00,-4.000000000000000000e+00,-9.000000000000000000e+00,0.000000000000000000e+00,1.000000000000000000e+00,2.000000000000000000e+00,-2.000000000000000000e+00,-4.000000000000000000e+00,-4.349365234375000000e-01,2.144165039062500000e-01,7.896728515625000000e-01,3.757934570312500000e-01
3.000000000000000000e+00,0.000000000000000000e+00,5.000000000000000000e+00,0.000000000000000000e+00,1.000000000000000000e+00,-2.000000000000000000e+00,-1.000000000000000000e+00,4.000000000000000000e+00,-4.349365234375000000e-01,2.144165039062500000e-01,7.896728515625000000e-01,3.757934570312500000e-01
3.000000000000000000e+00,4.000000000000000000e+00,8.000000000000000000e+00,2.000000000000000000e+00,0.000000000000000000e+00,-2.000000000000000000e+00,0.000000000000000000e+00,-5.000000000000000000e+00,-4.356689453125000000e-01,2.086791992187500000e-01,7.905883789062500000e-01,3.762207031250000000e-01
-4.000000000000000000e+00,-1.000000000000000000e+00,-5.000000000000000000e+00,-1.000000000000000000e+00,5.000000000000000000e+00,4.000000000000000000e+00,5.000000000000000000e+00,0.000000000000000000e+00,-4.356689453125000000e-01,2.086791992187500000e-01,7.905883789062500000e-01,3.762207031250000000e-01
-1.000000000000000000e+00,-2.000000000000000000e+00,-3.000000000000000000e+00,-5.000000000000000000e+00,-4.000000000000000000e+00,-1.200000000000000000e+01,-9.000000000000000000e+00,-6.000000000000000000e+00,-4.356689453125000000e-01,2.086791992187500000e-01,7.905883789062500000e-01,3.762207031250000000e-01
2.000000000000000000e+00,-7.000000000000000000e+00,-4.000000000000000000e+00,6.000000000000000000e+00,2.000000000000000000e+00,0.000000000000000000e+00,-1.000000000000000000e+00,3.000000000000000000e+00,-4.356689453125000000e-01,2.086791992187500000e-01,7.905883789062500000e-01,3.762207031250000000e-01
-3.000000000000000000e+00,1.000000000000000000e+00,4.000000000000000000e+00,-1.300000000000000000e+01,-6.000000000000000000e+00,-1.000000000000000000e+00,-2.000000000000000000e+00,1.000000000000000000e+00,-4.346313476562500000e-01,2.069702148437500000e-01,7.903442382812500000e-01,3.788452148437500000e-01
1.000000000000000000e+00,1.000000000000000000e+00,-4.000000000000000000e+00,-1.300000000000000000e+01,-9.000000000000000000e+00,-3.000000000000000000e+00,-2.000000000000000000e+00,-3.000000000000000000e+00,-4.346313476562500000e-01,2.069702148437500000e-01,7.903442382812500000e-01,3.788452148437500000e-01
7.000000000000000000e+00,5.000000000000000000e+00,3.000000000000000000e+00,1.400000000000000000e+01,1.200000000000000000e+01,6.000000000000000000e+00,2.000000000000000000e+00,2.000000000000000000e+00,-4.346313476562500000e-01,2.069702148437500000e-01,7.903442382812500000e-01,3.788452148437500000e-01
-3.000000000000000000e+00,-2.000000000000000000e+00,-3.000000000000000000e+00,0.000000000000000000e+00,-5.000000000000000000e+00,-2.000000000000000000e+00,-2.000000000000000000e+00,-4.000000000000000000e+00,-4.346313476562500000e-01,2.069702148437500000e-01,7.903442382812500000e-01,3.788452148437500000e-01
-6.000000000000000000e+00,-6.000000000000000000e+00,1.000000000000000000e+00,1.000000000000000000e+01,0.000000000000000000e+00,1.000000000000000000e+00,0.000000000000000000e+00,-1.000000000000000000e+00,-4.336547851562500000e-01,2.067871093750000000e-01,7.896118164062500000e-01,3.816528320312500000e-01
0.000000000000000000e+00,-1.000000000000000000e+00,4.000000000000000000e+00,-1.000000000000000000e+01,-1.100000000000000000e+01,-6.000000000000000000e+00,-5.000000000000000000e+00,-1.000000000000000000e+00,-4.336547851562500000e-01,2.067871093750000000e-01,7.896118164062500000e-01,3.816528320312500000e-01
3.000000000000000000e+00,5.000000000000000000e+00,1.500000000000000000e+01,-2.000000000000000000e+00,-4.000000000000000000e+00,1.000000000000000000e+00,1.000000000000000000e+00,9.000000000000000000e+00,-4.336547851562500000e-01,2.067871093750000000e-01,7.896118164062500000e-01,3.816528320312500000e-01
-9.000000000000000000e+00,-7.000000000000000000e+00,-1.200000000000000000e+01,-8.000000000000000000e+00,-3.000000000000000000e+00,-4.000000000000000000e+00,-8.000000000000000000e+00,-2.200000000000000000e+01,-4.336547851562500000e-01,2.067871093750000000e-01,7.896118164062500000e-01,3.816528320312500000e-01
0.000000000000000000e+00,1.000000000000000000e+00,2.000000000000000000e+00,-1.300000000000000000e+01,-9.000000000000000000e+00,-1.000000000000000000e+00,0.000000000000000000e+00,-3.000000000000000000e+00,-4.340209960937500000e-01,2.052612304687500000e-01,7.892456054687500000e-01,3.828125000000000000e-01
-1.000000000000000000e+00,-7.000000000000000000e+00,8.000000000000000000e+00,6.000000000000000000e+00,0.000000000000000000e+00,-3.000000000000000000e+00,-3.000000000000000000e+00,-2.000000000000000000e+00,-4.340209960937500000e-01,2.052612304687500000e-01,7.892456054687500000e-01,3.828125000000000000e-01
-2.000000000000000000e+00,-5.000000000000000000e+00,-5.000000000000000000e+00,1.000000000000000000e+00,-2.000000000000000000e+00,1.000000000000000000e+00,-1.000000000000000000e+00,-1.000000000000000000e+00,-4.340209960937500000e-01,2.052612304687500000e-01,7.892456054687500000e-01,3.828125000000000000e-01
2.000000000000000000e+00,2.000000000000000000e+00,1.200000000000000000e+01,5.000000000000000000e+00,9.000000000000000000e+00,5.000000000000000000e+00,5.000000000000000000e+00,6.000000000000000000e+00,-4.340209960937500000e-01,2.052612304687500000e-01,7.892456054687500000e-01,3.828125000000000000e-01
4.000000000000000000e+00,3.000000000000000000e+00,4.000000000000000000e+00,-9.000000000000000000e+00,-2.000000000000000000e+00,0.000000000000000000e+00,0.000000000000000000e+00,1.000000000000000000e+00,-4.353027343750000000e-01,2.017211914062500000e-01,7.895507812500000000e-01,3.826293945312500000e-01
-2.000000000000000000e+00,1.000000000000000000e+00,-1.000000000000000000e+00,2.100000000000000000e+01,-6.000000000000000000e+00,-2.000000000000000000e+00,-4.000000000000000000e+00,-2.000000000000000000e+00,-4.353027343750000000e-01,2.017211914062500000e-01,7.895507812500000000e-01,3.826293945312500000e-01
-4.000000000000000000e+00,3.000000000000000000e+00,1.000000000000000000e+01,-8.000000000000000000e+00,1.000000000000000000e+01,3.000000000000000000e+00,0.000000000000000000e+00,-5.000000000000000000e+00,-4.353027343750000000e-01,2.017211914062500000e-01,7.895507812500000000e-01,3.826293945312500000e-01
-7.000000000000000000e+00,-2.000000000000000000e+00,-8.000000000000000000e+00,-4.000000000000000000e+00,-4.000000000000000000e+00,-1.000000000000000000e+00,-1.000000000000000000e+00,-3.000000000000000000e+00,-4.353027343750000000e-01,2.017211914062500000e-01,7.895507812500000000e-01,3.826293945312500000e-01
8.000000000000000000e+00,-2.000000000000000000e+00,1.000000000000000000e+00,1.200000000000000000e+01,1.000000000000000000e+00,-2.000000000000000000e+00,-1.000000000000000000e+00,3.000000000000000000e+00,-4.364013671875000000e-01,1.983642578125000000e-01,7.898559570312500000e-01,3.824462890625000000e-01
3.000000000000000000e+00,2.000000000000000000e+00,6.000000000000000000e+00,1.000000000000000000e+00,-4.000000000000000000e+00,-1.000000000000000000e+00,1.000000000000000000e+00,6.000000000000000000e+00,-4.364013671875000000e-01,1.983642578125000000e-01,7.898559570312500000e-01,3.824462890625000000e-01
-1.000000000000000000e+00,2.000000000000000000e+00,-2.000000000000000000e+00,-6.000000000000000000e+00,-9.000000000000000000e+00,0.000000000000000000e+00,1.000000000000000000e+00,-1.000000000000000000e+00,-4.364013671875000000e-01,1.983642578125000000e-01,7.898559570312500000e-01,3.824462890625000000e-01
-5.000000000000000000e+00,-3.000000000000000000e+00,-8.000000000000000000e+00,8.000000000000000000e+00,7.000000000000000000e+00,4.000000000000000000e+00,-4.000000000000000000e+00,-4.000000000000000000e+00,-4.364013671875000000e-01,1.983642578125000000e-01,7.898559570312500000e-01,3.824462890625000000e-01
-8.000000000000000000e+00,-1.000000000000000000e+00,4.000000000000000000e+00,-1.300000000000000000e+01,-5.000000000000000000e+00,-2.000000000000000000e+00,-4.000000000000000000e+00,-4.000000000000000000e+00,-4.374389648437500000e-01,1.959228515625000000e-01,7.897949218750000000e-01,3.826904296875000000e-01
-1.000000000000000000e+00,-3.000000000000000000e+00,-6.000000000000000000e+00,-5.000000000000000000e+00,0.000000000000000000e+00,-1.000000000000000000e+00,-2.000000000000000000e+00,-1.000000000000000000e+00,-4.374389648437500000e-01,1.959228515625000000e-01,7.897949218750000000e-01,3.826904296875000000e-01
-1.000000000000000000e+00,-3.000000000000000000e+00,-1.400000000000000000e+01,7.000000000000000000e+00,3.000000000000000000e+00,4.000000000000000000e+00,3.000000000000000000e+00,1.000000000000000000e+00,-4.374389648437500000e-01,1.959228515625000000e-01,7.897949218750000000e-01,3.826904296875000000e-01
2.000000000000000000e+00,4.000000000000000000e+00,1.100000000000000000e+01,1.000000000000000000e+00,1.000000000000000000e+00,0.000000000000000000e+00,2.000000000000000000e+00,3.000000000000000000e+00,-4.374389648437500000e-01,1.959228515625000000e-01,7.897949218750000000e-01,3.826904296875000000e-01
-1.000000000000000000e+00,-1.000000000000000000e+00,-4.000000000000000000e+00,-3.000000000000000000e+00,-5.000000000000000000e+00,-7.000000000000000000e+00,-4.000000000000000000e+00,0.000000000000000000e+00,-4.381713867187500000e-01,1.947631835937500000e-01,7.894287109375000000e-01,3.831787109375000000e-01
-5.000000000000000000e+00,-1.100000000000000000e+01,-7.000000000000000000e+00,-1.500000000000000000e+01,0.000000000000000000e+00,-3.000000000000000000e+00,-6.000000000000000000e+00,-5.000000000000000000e+00,-4.381713867187500000e-01,1.947631835937500000e-01,7.894287109375000000e-01,3.831787109375000000e-01
1.000000000000000000e+00,7.000000000000000000e+00,4.000000000000000000e+00,3.000000000000000000e+00,-2.000000000000000000e+00,-2.000000000000000000e+00,-2.000000000000000000e+00,1.000000000000000000e+00,-4.381713867187500000e-01,1.947631835937500000e-01,7.894287109375000000e-01,3.831787109375000000e-01
4.000000000000000000e+00,2.000000000000000000e+00,2.000000000000000000e+00,7.000000000000000000e+00,1.100000000000000000e+01,3.000000000000000000e+00,2.000000000000000000e+00,4.000000000000000000e+00,-4.381713867187500000e-01,1.947631835937500000e-01,7.894287109375000000e-01,3.831787109375000000e-01
-6.000000000000000000e+00,-1.300000000000000000e+01,-1.000000000000000000e+01,-8.000000000000000000e+00,-3.000000000000000000e+00,1.000000000000000000e+00,3.000000000000000000e+00,-3.000000000000000000e+00,-4.384765625000000000e-01,1.948852539062500000e-01,7.889404296875000000e-01,3.837890625000000000e-01
0.000000000000000000e+00,8.000000000000000000e+00,8.000000000000000000e+00,9.000000000000000000e+00,5.000000000000000000e+00,-3.000000000000000000e+00,-3.000000000000000000e+00,-3.000000000000000000e+00,-4.384765625000000000e-01,1.948852539062500000e-01,7.889404296875000000e-01,3.837890625000000000e-01
-1.000000000000000000e+00,-2.000000000000000000e+00,1.100000000000000000e+01,0.000000000000000000e+00,-2.000000000000000000e+00,-1.000000000000000000e+00,-1.000000000000000000e+00,-2.000000000000000000e+00,-4.384765625000000000e-01,1.948852539062500000e-01,7.889404296875000000e-01,3.837890625000000000e-01
2.000000000000000000e+00,2.000000000000000000e+00,-8.000000000000000000e+00,-2.000000000000000000e+00,-2.000000000000000000e+00,-3.000000000000000000e+00,-1.000000000000000000e+00,0.000000000000000000e+00,-4.384765625000000000e-01,1.948852539062500000e-01,7.889404296875000000e-01,3.837890625000000000e-01
-4.000000000000000000e+00,-3.000000000000000000e+00,3.000000000000000000e+00,-2.000000000000000000e+00,-2.000000000000000000e+00,-2.000000000000000000e+00,-1.000000000000000000e+00,0.000000000000000000e+00,-4.394531250000000000e-01,1.943359375000000000e-01,7.885131835937500000e-01,3.837890625000000000e-01
-3.000000000000000000e+00,-1.000000000000000000e+00,-6.000000000000000000e+00,-5.000000000000000000e+00,-4.000000000000000000e+00,-2.000000000000000000e+00,-4.000000000000000000e+00,-6.000000000000000000e+00,-4.394531250000000000e-01,1.943359375000000000e-01,7.885131835937500000e-01,3.837890625000000000e-01
0.000000000000000000e+00,-3.000000000000000000e+00,-3.000000000000000000e+00,1.000000000000000000e+01,4.000000000000000000e+00,1.000000000000000000e+00,2.000000000000000000e+00,-2.000000000000000000e+00,-4.394531250000000000e-01,1.943359375000000000e-01,7.885131835937500000e-01,3.837890625000000000e-01
0.000000000000000000e+00,3.000000000000000000e+00,5.000000000000000000e+00,3.000000000000000000e+00,-1.000000000000000000e+00,-1.000000000000000000e+00,-2.000000000000000000e+00,0.000000000000000000e+00,-4.394531250000000000e-01,1.943359375000000000e-01,7.885131835937500000e-01,3.837890625000000000e-01
-1.000000000000000000e+00,0.000000000000000000e+00,-7.000000000000000000e+00,-7.000000000000000000e+00,-4.000000000000000000e+00,-2.000000000000000000e+00,-2.000000000000000000e+00,-1.000000000000000000e+00,-4.403076171875000000e-01,1.931762695312500000e-01,7.885742187500000000e-01,3.833007812500000000e-01
0.000000000000000000e+00,1.000000000000000000e+00,8.000000000000000000e+00,-3.000000000000000000e+00,0.000000000000000000e+00,1.000000000000000000e+00,3.000000000000000000e+00,2.000000000000000000e+00,-4.403076171875000000e-01,1.931762695312500000e-01,7.885742187500000000e-01,3.833007812500000000e-01
-2.000000000000000000e+00,-9.000000000000000000e+00,-1.700000000000000000e+01,-1.400000000000000000e+01,0.000000000000000000e+00,0.000000000000000000e+00,-1.000000000000000000e+00,0.000000000000000000e+00,-4.403076171875000000e-01,1.931762695312500000e-01,7.885742187500000000e-01,3.833007812500000000e-01
-3.000000000000000000e+00,-6.000000000000000000e+00,-5.000000000000000000e+00,-1.000000000000000000e+01,-1.000000000000000000e+01,-3.000000000000000000e+00,0.000000000000000000e+00,-1.000000000000000000e+00,-4.403076171875000000e-01,1.931762695312500000e-01,7.885742187500000000e-01,3.833007812500000000e-01
1.000000000000000000e+00,5.000000000000000000e+00,8.000000000000000000e+00,2.000000000000000000e+01,1.000000000000000000e+01,0.000000000000000000e+00,-1.000000000000000000e+00,-1.000000000000000000e+00,-4.406127929687500000e-01,1.922607421875000000e-01,7.890014648437500000e-01,3.824462890625000000e-01
1.000000000000000000e+00,2.000000000000000000e+00,-4.000000000000000000e+00,2.000000000000000000e+00,-3.000000000000000000e+00,-1.000000000000000000e+00,-2.000000000000000000e+00,0.000000000000000000e+00,-4.406127929687500000e-01,1.922607421875000000e-01,7.890014648437500000e-01,3.824462890625000000e-01
-3.000000000000000000e+00,-3.000000000000000000e+00,-4.000000000000000000e+00,-1.300000000000000000e+01,-2.000000000000000000e+00,1.000000000000000000e+00,-3.000000000000000000e+00,-3.000000000000000000e+00,-4.406127929687500000e-01,1.922607421875000000e-01,7.890014648437500000e-01,3.824462890625000000e-01
1.000000000000000000e+00,-3.000000000000000000e+00,4.000000000000000000e+00,-2.000000000000000000e+00,-2.000000000000000000e+00,-2.000000000000000000e+00,-1.000000000000000000e+00,1.000000000000000000e+00,-4.406127929687500000e-01,1.922607421875000000e-01,7.890014648437500000e-01,3.824462890625000000e-01
0.000000000000000000e+00,-1.000000000000000000e+00,-5.000000000000000000e+00,0.000000000000000000e+00,5.000000000000000000e+00,3.000000000000000000e+00,-1.000000000000000000e+00,-1.000000000000000000e+00,-4.406738281250000000e-01,1.903076171875000000e-01,7.896728515625000000e-01,3.820800781250000000e-01
2.000000000000000000e+00,4.000000000000000000e+00,3.000000000000000000e+00,3.000000000000000000e+00,1.000000000000000000e+00,1.000000000000000000e+00,3.000000000000000000e+00,3.000000000000000000e+00,-4.406738281250000000e-01,1.903076171875000000e-01,7.896728515625000000e-01,3.820800781250000000e-01
1.000000000000000000e+00,0.000000000000000000e+00,-1.000000000000000000e+00,1.000000000000000000e+00,-3.000000000000000000e+00,0.000000000000000000e+00,-3.000000000000000000e+00,-1.000000000000000000e+00,-4.406738281250000000e-01,1.903076171875000000e-01,7.896728515625000000e-01,3.820800781250000000e-01
-1.000000000000000000e+00,1.000000000000000000e+00,-4.000000000000000000e+00,-4.000000000000000000e+00,-4.000000000000000000e+00,-3.000000000000000000e+00,-2.000000000000000000e+00,-1.000000000000000000e+00,-4.406738281250000000e-01,1.903076171875000000e-01,7.896728515625000000e-01,3.820800781250000000e-01
-2.000000000000000000e+00,-7.000000000000000000e+00,-9.000000000000000000e+00,-5.000000000000000000e+00,-1.000000000000000000e+00,1.000000000000000000e+00,2.000000000000000000e+00,1.000000000000000000e+00,-4.399414062500000000e-01,1.881713867187500000e-01,7.902832031250000000e-01,3.826904296875000000e-01
-2.000000000000000000e+00,0.000000000000000000e+00,-7.000000000000000000e+00,-3.000000000000000000e+00,0.000000000000000000e+00,-1.000000000000000000e+00,0.000000000000000000e+00,-3.000000000000000000e+00,-4.399414062500000000e-01,1.881713867187500000e-01,7.902832031250000000e-01,3.826904296875000000e-01
0.000000000000000000e+00,0.000000000000000000e+00,4.000000000000000000e+00,5.000000000000000000e+00,-1.000000000000000000e+00,-3.000000000000000000e+00,-3.000000000000000000e+00,-2.000000000000000000e+00,-4.399414062500000000e-01,1.881713867187500000e-01,7.902832031250000000e-01,3.826904296875000000e-01
1.000000000000000000e+00,-3.000000000000000000e+00,6.000000000000000000e+00,5.000000000000000000e+00,-1.000000000000000000e+00,1.000000000000000000e+00,-1.000000000000000000e+00,0.000000000000000000e+00,-4.399414062500000000e-01,1.881713867187500000e-01,7.902832031250000000e-01,3.826904296875000000e-01
0.000000000000000000e+00,1.000000000000000000e+00,-1.000000000000000000e+00,-1.000000000000000000e+01,-1.000000000000000000e+00,-1.000000000000000000e+00,1.000000000000000000e+00,-1.000000000000000000e+00,-4.387817382812500000e-01,1.852416992187500000e-01,7.915039062500000000e-01,3.829345703125000000e-01
-4.000000000000000000e+00,-5.000000000000000000e+00,-2.000000000000000000e+00,3.000000000000000000e+00,0.000000000000000000e+00,-2.000000000000000000e+00,-3.000000000000000000e+00,-2.000000000000000000e+00,-4.387817382812500000e-01,1.852416992187500000e-01,7.915039062500000000e-01,3.829345703125000000e-01
1.000000000000000000e+00,3.000000000000000000e+00,1.000000000000000000e+00,1.000000000000000000e+00,-2.000000000000000000e+00,-2.000000000000000000e+00,-1.000000000000000000e+00,-1.000000000000000000e+00,-4.387817382812500000e-01,1.852416992187500000e-01,7.915039062500000000e-01,3.829345703125000000e-01
1.000000000000000000e+00,3.000000000000000000e+00,-1.000000000000000000e+00,-4.000000000000000000e+00,-1.000000000000000000e+00,0.000000000000000000e+00,-1.000000000000000000e+00,1.000000000000000000e+00,-4.387817382812500000e-01,1.852416992187500000e-01,7.915039062500000000e-01,3.829345703125000000e-01
0.000000000000000000e+00,2.000000000000000000e+00,3.000000000000000000e+00,5.000000000000000000e+00,-3.000000000000000000e+00,-4.000000000000000000e+00,-2.000000000000000000e+00,-1.000000000000000000e+00,-4.382934570312500000e-01,1.808471679687500000e-01,7.929687500000000000e-01,3.825073242187500000e-01
-1.000000000000000000e+00,-6.000000000000000000e+00,-9.000000000000000000e+00,-1.000000000000000000e+00,4.000000000000000000e+00,2.000000000000000000e+00,0.000000000000000000e+00,-1.000000000000000000e+00,-4.382934570312500000e-01,1.808471679687500000e-01,7.929687500000000000e-01,3.825073242187500000e-01
1.000000000000000000e+00,0.000000000000000000e+00,2.000000000000000000e+00,-2.000000000000000000e+00,-5.000000000000000000e+00,-1.000000000000000000e+00,0.000000000000000000e+00,1.000000000000000000e+00,-4.382934570312500000e-01,1.808471679687500000e-01,7.929687500000000000e-01,3.825073242187500000e-01
-1.000000000000000000e+00,-4.000000000000000000e+00,-2.000000000000000000e+00,-2.000000000000000000e+00,-2.000000000000000000e+00,1.000000000000000000e+00,0.000000000000000000e+00,0.000000000000000000e+00,-4.382934570312500000e-01,1.808471679687500000e-01,7.929687500000000000e-01,3.825073242187500000e-01
-2.000000000000000000e+00,0.000000000000000000e+00,2.000000000000000000e+00,5.000000000000000000e+00,4.000000000000000000e+00,1.000000000000000000e+00,-2.000000000000000000e+00,-1.000000000000000000e+00,-4.381103515625000000e-01,1.752929687500000000e-01,7.947998046875000000e-01,3.815307617187500000e-01
0.000000000000000000e+00,1.000000000000000000e+00,1.000000000000000000e+00,-4.000000000000000000e+00,-3.000000000000000000e+00,0.000000000000000000e+00,0.000000000000000000e+00,0.000000000000000000e+00,-4.381103515625000000e-01,1.752929687500000000e-01,7.947998046875000000e-01,3.815307617187500000e-01
-2.000000000000000000e+00,-4.000000000000000000e+00,-1.100000000000000000e+01,-3.000000000000000000e+00,-3.000000000000000000e+00,-1.000000000000000000e+00,0.000000000000000000e+00,-1.000000000000000000e+00,-4.381103515625000000e-01,1.752929687500000000e-01,7.947998046875000000e-01,3.815307617187500000e-01
-4.000000000000000000e+00,-2.000000000000000000e+00,-2.000000000000000000e+00,0.000000000000000000e+00,-2.000000000000000000e+00,-4.000000000000000000e+00,-3.000000000000000000e+00,-4.000000000000000000e+00,-4.381103515625000000e-01,1.752929687500000000e-01,7.947998046875000000e-01,3.815307617187500000e-01
-2.000000000000000000e+00,1.000000000000000000e+00,-2.000000000000000000e+00,-1.300000000000000000e+01,-1.000000000000000000e+01,-4.000000000000000000e+00,-1.000000000000000000e+00,0.000000000000000000e+00,-4.372558593750000000e-01,1.706542968750000000e-01,7.963867187500000000e-01,3.812866210937500000e-01
-2.000000000000000000e+00,-2.000000000000000000e+00,-1.000000000000000000e+00,2.500000000000000000e+01,1.900000000000000000e+01,4.000000000000000000e+00,-1.000000000000000000e+00,-3.000000000000000000e+00,-4.372558593750000000e-01,1.706542968750000000e-01,7.963867187500000000e-01,3.812866210937500000e-01
-1.000000000000000000e+00,0.000000000000000000e+00,2.000000000000000000e+00,-1.000000000000000000e+01,2.000000000000000000e+00,1.000000000000000000e+00,-1.000000000000000000e+00,-1.000000000000000000e+00,-4.372558593750000000e-01,1.706542968750000000e-01,7.963867187500000000e-01,3.812866210937500000e-01
0.000000000000000000e+00,-1.000000000000000000e+00,0.000000000000000000e+00,8.000000000000000000e+00,5.000000000000000000e+00,1.000000000000000000e+00,-1.000000000000000000e+00,0.000000000000000000e+00,-4.372558593750000000e-01,1.706542968750000000e-01,7.963867187500000000e-01,3.812866210937500000e-01
-2.000000000000000000e+00,-2.000000000000000000e+00,3.000000000000000000e+00,-2.000000000000000000e+00,-3.000000000000000000e+00,-2.000000000000000000e+00,-3.000000000000000000e+00,-4.000000000000000000e+00,-4.354248046875000000e-01,1.672973632812500000e-01,7.976074218750000000e-01,3.823242187500000000e-01
0.000000000000000000e+00,-3.000000000000000000e+00,-6.000000000000000000e+00,-5.000000000000000000e+00,-7.000000000000000000e+00,-3.000000000000000000e+00,-2.000000000000000000e+00,1.000000000000000000e+00,-4.354248046875000000e-01,1.672973632812500000e-01,7.976074218750000000e-01,3.823242187500000000e-01
4.000000000000000000e+00,2.000000000000000000e+00,1.300000000000000000e+01,-3.000000000000000000e+00,-5.000000000000000000e+00,1.000000000000000000e+00,2.000000000000000000e+00,5.000000000000000000e+00,-4.354248046875000000e-01,1.672973632812500000e-01,7.976074218750000000e-01,3.823242187500000000e-01
-5.000000000000000000e+00,-2.000000000000000000e+00,-4.000000000000000000e+00,2.000000000000000000e+00,3.000000000000000000e+00,1.000000000000000000e+00,2.000000000000000000e+00,-4.000000000000000000e+00,-4.354248046875000000e-01,1.672973632812500000e-01,7.976074218750000000e-01,3.823242187500000000e-01
-3.000000000000000000e+00,-4.000000000000000000e+00,-1.300000000000000000e+01,-1.600000000000000000e+01,-4.000000000000000000e+00,-2.000000000000000000e+00,-5.000000000000000000e+00,-3.000000000000000000e+00,-4.332275390625000000e-01,1.633300781250000000e-01,7.985839843750000000e-01,3.845214843750000000e-01
-2.000000000000000000e+00,-1.000000000000000000e+00,5.000000000000000000e+00,1.000000000000000000e+00,-1.000000000000000000e+00,-2.000000000000000000e+00,-3.000000000000000000e+00,-1.000000000000000000e+00,-4.332275390625000000e-01,1.633300781250000000e-01,7.985839843750000000e-01,3.845214843750000000e-01
-2.000000000000000000e+00,1.000000000000000000e+00,2.000000000000000000e+00,8.000000000000000000e+00,3.000000000000000000e+00,-1.000000000000000000e+00,-2.000000000000000000e+00,-1.000000000000000000e+00,-4.332275390625000000e-01,1.633300781250000000e-01,7.985839843750000000e-01,3.845214843750000000e-01
2.000000000000000000e+00,2.000000000000000000e+00,4.000000000000000000e+00,-4.000000000000000000e+00,-7.000000000000000000e+00,-2.000000000000000000e+00,-2.000000000000000000e+00,1.000000000000000000e+00,-4.332275390625000000e-01,1.633300781250000000e-01,7.985839843750000000e-01,3.845214843750000000e-01
-1.000000000000000000e+00,-1.000000000000000000e+00,3.000000000000000000e+00,1.200000000000000000e+01,3.000000000000000000e+00,0.000000000000000000e+00,0.000000000000000000e+00,-3.000000000000000000e+00,-4.315795898437500000e-01,1.593627929687500000e-01,7.994384765625000000e-01,3.862915039062500000e-01
-2.000000000000000000e+00,-4.000000000000000000e+00,-3.000000000000000000e+00,-1.100000000000000000e+01,-1.300000000000000000e+01,-5.000000000000000000e+00,-4.000000000000000000e+00,-4.000000000000000000e+00,-4.315795898437500000e-01,1.593627929687500000e-01,7.994384765625000000e-01,3.862915039062500000e-01
-1.000000000000000000e+00,1.000000000000000000e+00,-5.000000000000000000e+00,-1.000000000000000000e+01,-4.000000000000000000e+00,-3.000000000000000000e+00,0.000000000000000000e+00,-2.000000000000000000e+00,-4.315795898437500000e-01,1.593627929687500000e-01,7.994384765625000000e-01,3.862915039062500000e-01
0.000000000000000000e+00,0.000000000000000000e+00,1.000000000000000000e+00,1.100000000000000000e+01,1.300000000000000000e+01,4.000000000000000000e+00,6.000000000000000000e+00,3.000000000000000000e+00,-4.315795898437500000e-01,1.593627929687500000e-01,7.994384765625000000e-01,3.862915039062500000e-01
0.000000000000000000e+00,-1.000000000000000000e+00,-2.000000000000000000e+00,-1.100000000000000000e+01,-8.000000000000000000e+00,-5.000000000000000000e+00,-3.000000000000000000e+00,0.000000000000000000e+00,-4.299316406250000000e-01,1.578369140625000000e-01,7.994995117187500000e-01,3.886108398437500000e-01
0.000000000000000000e+00,-1.000000000000000000e+00,-5.000000000000000000e+00,-5.000000000000000000e+00,1.000000000000000000e+00,-2.000000000000000000e+00,-1.000000000000000000e+00,-3.000000000000000000e+00,-4.299316406250000000e-01,1.578369140625000000e-01,7.994995117187500000e-01,3.886108398437500000e-01
-3.000000000000000000e+00,-1.000000000000000000e+00,4.000000000000000000e+00,4.000000000000000000e+00,0.000000000000000000e+00,-5.000000000000000000e+00,-3.000000000000000000e+00,-3.000000000000000000e+00,-4.299316406250000000e-01,1.578369140625000000e-01,7.994995117187500000e-01,3.886108398437500000e-01
0.000000000000000000e+00,1.000000000000000000e+00,-2.000000000000000000e+00,-1.100000000000000000e+01,-9.000000000000000000e+00,0.000000000000000000e+00,-4.000000000000000000e+00,-1.000000000000000000e+00,-4.299316406250000000e-01,1.578369140625000000e-01,7.994995117187500000e-01,3.886108398437500000e-01
0.000000000000000000e+00,-2.000000000000000000e+00,0.000000000000000000e+00,9.000000000000000000e+00,5.000000000000000000e+00,4.000000000000000000e+00,3.000000000000000000e+00,1.000000000000000000e+00,-4.284057617187500000e-01,1.585693359375000000e-01,7.987060546875000000e-01,3.915405273437500000e-01
0.000000000000000000e+00,1.000000000000000000e+00,-3.000000000000000000e+00,-1.000000000000000000e+01,-1.000000000000000000e+00,0.000000000000000000e+00,2.000000000000000000e+00,1.000000000000000000e+00,-4.284057617187500000e-01,1.585693359375000000e-01,7.987060546875000000e-01,3.915405273437500000e-01
-4.000000000000000000e+00,-8.000000000000000000e+00,-1.900000000000000000e+01,3.000000000000000000e+00,0.000000000000000000e+00,-2.000000000000000000e+00,-2.000000000000000000e+00,-3.000000000000000000e+00,-4.284057617187500000e-01,1.585693359375000000e-01,7.987060546875000000e-01,3.915405273437500000e-01
2.000000000000000000e+00,5.000000000000000000e+00,9.000000000000000000e+00,1.000000000000000000e+01,2.000000000000000000e+00,-1.000000000000000000e+00,-1.000000000000000000e+00,0.000000000000000000e+00,-4.284057617187500000e-01,1.585693359375000000e-01,7.987060546875000000e-01,3.915405273437500000e-01
-7.000000000000000000e+00,-7.000000000000000000e+00,1.200000000000000000e+01,-1.100000000000000000e+01,-4.000000000000000000e+00,-3.000000000000000000e+00,-3.000000000000000000e+00,-1.000000000000000000e+00,-4.271850585937500000e-01,1.592407226562500000e-01,7.984008789062500000e-01,3.932495117187500000e-01
-4.000000000000000000e+00,-8.000000000000000000e+00,-3.600000000000000000e+01,-5.000000000000000000e+00,-5.000000000000000000e+00,-1.000000000000000000e+00,-4.000000000000000000e+00,-3.000000000000000000e+00,-4.271850585937500000e-01,1.592407226562500000e-01,7.984008789062500000e-01,3.932495117187500000e-01
-2.000000000000000000e+00,1.000000000000000000e+00,2.000000000000000000e+00,-3.000000000000000000e+00,-3.000000000000000000e+00,1.000000000000000000e+00,1.000000000000000000e+00,0.000000000000000000e+00,-4.271850585937500000e-01,1.592407226562500000e-01,7.984008789062500000e-01,3.932495117187500000e-01
0.000000000000000000e+00,-1.000000000000000000e+00,-1.000000000000000000e+00,8.000000000000000000e+00,3.000000000000000000e+00,-1.000000000000000000e+00,-1.000000000000000000e+00,0.000000000000000000e+00,-4.271850585937500000e-01,1.592407226562500000e-01,7.984008789062500000e-01,3.932495117187500000e-01
2.000000000000000000e+00,5.000000000000000000e+00,1.100000000000000000e+01,2.000000000000000000e+00,-2.000000000000000000e+00,0.000000000000000000e+00,1.000000000000000000e+00,1.000000000000000000e+00,-4.271240234375000000e-01,1.574707031250000000e-01,7.990112304687500000e-01,3.928222656250000000e-01
-1.000000000000000000e+00,-2.000000000000000000e+00,5.000000000000000000e+00,-1.000000000000000000e+00,-2.000000000000000000e+00,-1.000000000000000000e+00,-1.000000000000000000e+00,-2.000000000000000000e+00,-4.271240234375000000e-01,1.574707031250000000e-01,7.990112304687500000e-01,3.928222656250000000e-01
0.000000000000000000e+00,1.000000000000000000e+00,3.000000000000000000e+00,5.000000000000000000e+00,1.000000000000000000e+00,-1.000000000000000000e+00,0.000000000000000000e+00,-3.000000000000000000e+00,-4.271240234375000000e-01,1.574707031250000000e-01,7.990112304687500000e-01,3.928222656250000000e-01
-5.000000000000000000e+00,-9.000000000000000000e+00,-4.000000000000000000e+00,-2.100000000000000000e+01,-1.700000000000000000e+01,-6.000000000000000000e+00,-5.000000000000000000e+00,-2.000000000000000000e+00,-4.271240234375000000e-01,1.574707031250000000e-01,7.990112304687500000e-01,3.928222656250000000e-01
1.000000000000000000e+00,2.000000000000000000e+00,3.000000000000000000e+00,7.000000000000000000e+00,3.000000000000000000e+00,1.000000000000000000e+00,0.000000000000000000e+00,-2.000000000000000000e+00,-4.276733398437500000e-01,1.535644531250000000e-01,7.993774414062500000e-01,3.930664062500000000e-01
-2.000000000000000000e+00,1.000000000000000000e+00,1.000000000000000000e+00,-1.300000000000000000e+01,-1.000000000000000000e+01,-1.000000000000000000e+00,-1.000000000000000000e+00,0.000000000000000000e+00,-4.276733398437500000e-01,1.535644531250000000e-01,7.993774414062500000e-01,3.930664062500000000e-01
2.000000000000000000e+00,0.000000000000000000e+00,-7.000000000000000000e+00,0.000000000000000000e+00,1.000000000000000000e+00,0.000000000000000000e+00,-2.000000000000000000e+00,2.000000000000000000e+00,-4.276733398437500000e-01,1.535644531250000000e-01,7.993774414062500000e-01,3.930664062500000000e-01
-1.000000000000000000e+00,-1.000000000000000000e+00,4.000000000000000000e+00,-1.000000000000000000e+00,0.000000000000000000e+00,-1.000000000000000000e+00,-3.000000000000000000e+00,-2.000000000000000000e+00,-4.276733398437500000e-01,1.535644531250000000e-01,7.993774414062500000e-01,3.930664062500000000e-01
-2.000000000000000000e+00,1.000000000000000000e+00,0.000000000000000000e+00,-7.000000000000000000e+00,-2.000000000000000000e+00,-2.000000000000000000e+00,-2.000000000000000000e+00,0.000000000000000000e+00,-4.282836914062500000e-01,1.487426757812500000e-01,7.988281250000000000e-01,3.952636718750000000e-01
1.000000000000000000e+00,2.000000000000000000e+00,5.000000000000000000e+00,1.100000000000000000e+01,4.000000000000000000e+00,0.000000000000000000e+00,-1.000000000000000000e+00,0.000000000000000000e+00,-4.282836914062500000e-01,1.487426757812500000e-01,7.988281250000000000e-01,3.952636718750000000e-01
-3.000000000000000000e+00,-1.000000000000000000e+00,5.000000000000000000e+00,3.000000000000000000e+00,-1.000000000000000000e+00,0.000000000000000000e+00,-3.000000000000000000e+00,-3.000000000000000000e+00,-4.282836914062500000e-01,1.487426757812500000e-01,7.988281250000000000e-01,3.952636718750000000e-01
0.000000000000000000e+00,1.000000000000000000e+00,-3.000000000000000000e+00,-8.000000000000000000e+00,-5.000000000000000000e+00,0.000000000000000000e+00,-1.000000000000000000e+00,-1.000000000000000000e+00,-4.282836914062500000e-01,1.487426757812500000e-01,7.988281250000000000e-01,3.952636718750000000e-01
1.000000000000000000e+00,-1.000000000000000000e+00,-5.000000000000000000e+00,-1.000000000000000000e+00,2.000000000000000000e+00,-1.000000000000000000e+00,0.000000000000000000e+00,0.000000000000000000e+00,-4.288330078125000000e-01,1.431884765625000000e-01,7.982788085937500000e-01,3.978881835937500000e-01
1.000000000000000000e+00,3.000000000000000000e+00,6.000000000000000000e+00,2.000000000000000000e+00,-2.000000000000000000e+00,-4.000000000000000000e+00,1.000000000000000000e+00,-2.000000000000000000e+00,-4.288330078125000000e-01,1.431884765625000000e-01,7.982788085937500000e-01,3.978881835937500000e-01
-3.000000000000000000e+00,-6.000000000000000000e+00,-6.000000000000000000e+00,-1.000000000000000000e+01,-4.000000000000000000e+00,0.000000000000000000e+00,-4.000000000000000000e+00,-2.000000000000000000e+00,-4.288330078125000000e-01,1.431884765625000000e-01,7.982788085937500000e-01,3.978881835937500000e-01
-1.000000000000000000e+00,1.000000000000000000e+00,0.000000000000000000e+00,7.000000000000000000e+00,2.000000000000000000e+00,0.000000000000000000e+00,2.000000000000000000e+00,-1.000000000000000000e+00,-4.288330078125000000e-01,1.431884765625000000e-01,7.982788085937500000e-01,3.978881835937500000e-01
-1.000000000000000000e+00,-2.000000000000000000e+00,-6.000000000000000000e+00,-6.000000000000000000e+00,-7.000000000000000000e+00,-2.000000000000000000e+00,-1.000000000000000000e+00,-2.000000000000000000e+00,-4.295043945312500000e-01,1.352539062500000000e-01,7.987670898437500000e-01,3.989257812500000000e-01
0.000000000000000000e+00,0.000000000000000000e+00,9.000000000000000000e+00,3.000000000000000000e+00,1.000000000000000000e+01,0.000000000000000000e+00,-2.000000000000000000e+00,0.000000000000000000e+00,-4.295043945312500000e-01,1.352539062500000000e-01,7.987670898437500000e-01,3.989257812500000000e-01
-2.000000000000000000e+00,-2.000000000000000000e+00,-5.000000000000000000e+00,-2.000000000000000000e+00,0.000000000000000000e+00,0.000000000000000000e+00,0.000000000000000000e+00,-1.000000000000000000e+00,-4.295043945312500000e-01,1.352539062500000000e-01,7.987670898437500000e-01,3.989257812500000000e-01
-2.000000000000000000e+00,-3.000000000000000000e+00,-3.000000000000000000e+00,-5.000000000000000000e+00,-5.000000000000000000e+00,0.000000000000000000e+00,0.000000000000000000e+00,-2.000000000000000000e+00,-4.295043945312500000e-01,1.352539062500000000e-01,7.987670898437500000e-01,3.989257812500000000e-01
1.000000000000000000e+00,3.000000000000000000e+00,0.000000000000000000e+00,6.000000000000000000e+00,3.000000000000000000e+00,0.000000000000000000e+00,0.000000000000000000e+00,0.000000000000000000e+00,-4.309692382812500000e-01,1.250000000000000000e-01,7.999267578125000000e-01,3.984375000000000000e-01
0.000000000000000000e+00,2.000000000000000000e+00,1.000000000000000000e+00,-1.000000000000000000e+00,-5.000000000000000000e+00,0.000000000000000000e+00,1.000000000000000000e+00,-1.000000000000000000e+00,-4.309692382812500000e-01,1.250000000000000000e-01,7.999267578125000000e-01,3.984375000000000000e-01
-1.000000000000000000e+00,-1.000000000000000000e+00,0.000000000000000000e+00,-4.000000000000000000e+00,0.000000000000000000e+00,-2.000000000000000000e+00,-2.000000000000000000e+00,0.000000000000000000e+00,-4.309692382812500000e-01,1.250000000000000000e-01,7.999267578125000000e-01,3.984375000000000000e-01
0.000000000000000000e+00,-2.000000000000000000e+00,-1.000000000000000000e+00,-1.100000000000000000e+01,-3.000000000000000000e+00,-1.000000000000000000e+00,-2.000000000000000000e+00,-1.000000000000000000e+00,-4.309692382812500000e-01,1.250000000000000000e-01,7.999267578125000000e-01,3.984375000000000000e-01
-1.000000000000000000e+00,-2.000000000000000000e+00,-1.000000000000000000e+01,2.400000000000000000e+01,2.100000000000000000e+01,4.000000000000000000e+00,1.000000000000000000e+00,-2.000000000000000000e+00,-4.322509765625000000e-01,1.171264648437500000e-01,8.002929687500000000e-01,3.986206054687500000e-01
-3.000000000000000000e+00,-4.000000000000000000e+00,1.000000000000000000e+00,-3.000000000000000000e+00,-5.000000000000000000e+00,-1.000000000000000000e+00,-2.000000000000000000e+00,0.000000000000000000e+00,-4.322509765625000000e-01,1.171264648437500000e-01,8.002929687500000000e-01,3.986206054687500000e-01
4.000000000000000000e+00,3.000000000000000000e+00,9.000000000000000000e+00,3.000000000000000000e+00,3.000000000000000000e+00,2.000000000000000000e+00,0.000000000000000000e+00,1.000000000000000000e+00,-4.322509765625000000e-01,1.171264648437500000e-01,8.002929687500000000e-01,3.986206054687500000e-01
-2.000000000000000000e+00,-1.000000000000000000e+00,-7.000000000000000000e+00,-1.000000000000000000e+01,-8.000000000000000000e+00,-4.000000000000000000e+00,-3.000000000000000000e+00,-1.000000000000000000e+00,-4.322509765625000000e-01,1.171264648437500000e-01,8.002929687500000000e-01,3.986206054687500000e-01
-1.000000000000000000e+00,-2.000000000000000000e+00,0.000000000000000000e+00,2.000000000000000000e+00,-1.000000000000000000e+00,-5.000000000000000000e+00,-2.000000000000000000e+00,-1.000000000000000000e+00,-4.324340820312500000e-01,1.130371093750000000e-01,7.996826171875000000e-01,4.008789062500000000e-01
-2.000000000000000000e+00,-3.000000000000000000e+00,-5.000000000000000000e+00,-6.000000000000000000e+00,-3.000000000000000000e+00,1.000000000000000000e+00,2.000000000000000000e+00,-2.000000000000000000e+00,-4.324340820312500000e-01,1.130371093750000000e-01,7.996826171875000000e-01,4.008789062500000000e-01
-3.000000000000000000e+00,-2.000000000000000000e+00,2.000000000000000000e+00,2.000000000000000000e+00,2.000000000000000000e+00,-1.000000000000000000e+00,-2.000000000000000000e+00,-1.000000000000000000e+00,-4.324340820312500000e-01,1.130371093750000000e-01,7.996826171875000000e-01,4.008789062500000000e-01
0.000000000000000000e+00,0.000000000000000000e+00,4.000000000000000000e+00,6.000000000000000000e+00,2.000000000000000000e+00,-1.000000000000000000e+00,0.000000000000000000e+00,-1.000000000000000000e+00,-4.324340820312500000e-01,1.130371093750000000e-01,7.996826171875000000e-01,4.008789062500000000e-01
1.000000000000000000e+00,0.000000000000000000e+00,-1.000000000000000000e+00,-9.000000000000000000e+00,-4.000000000000000000e+00,1.000000000000000000e+00,-1.000000000000000000e+00,0.000000000000000000e+00,-4.311523437500000000e-01,1.105346679687500000e-01,7.993774414062500000e-01,4.034423828125000000e-01
0.000000000000000000e+00,-1.000000000000000000e+00,-1.000000000000000000e+00,4.000000000000000000e+00,6.000000000000000000e+00,1.000000000000000000e+00,-1.000000000000000000e+00,-2.000000000000000000e+00,-4.311523437500000000e-01,1.105346679687500000e-01,7.993774414062500000e-01,4.034423828125000000e-01
0.000000000000000000e+00,1.000000000000000000e+00,0.000000000000000000e+00,-7.000000000000000000e+00,-7.000000000000000000e+00,-4.000000000000000000e+00,0.000000000000000000e+00,1.000000000000000000e+00,-4.311523437500000000e-01,1.105346679687500000e-01,7.993774414062500000e-01,4.034423828125000000e-01
-1.000000000000000000e+00,-1.000000000000000000e+00,0.000000000000000000e+00,1.000000000000000000e+01,5.000000000000000000e+00,-1.000000000000000000e+00,2.000000000000000000e+00,1.000000000000000000e+00,-4.311523437500000000e-01,1.105346679687500000e-01,7.993774414062500000e-01,4.034423828125000000e-01
-9.000000000000000000e+00,-1.000000000000000000e+01,-9.000000000000000000e+00,-7.000000000000000000e+00,-8.000000000000000000e+00,-1.100000000000000000e+01,-1.200000000000000000e+01,-1.000000000000000000e+01,-4.293823242187500000e-01,1.088256835937500000e-01,7.992553710937500000e-01,4.061279296875000000e-01
2.000000000000000000e+00,1.000000000000000000e+00,0.000000000000000000e+00,-7.000000000000000000e+00,-1.000000000000000000e+00,3.000000000000000000e+00,4.000000000000000000e+00,4.000000000000000000e+00,-4.293823242187500000e-01,1.088256835937500000e-01,7.992553710937500000e-01,4.061279296875000000e-01
-3.000000000000000000e+00,-2.000000000000000000e+00,5.000000000000000000e+00,3.000000000000000000e+00,-3.000000000000000000e+00,-2.000000000000000000e+00,0.000000000000000000e+00,-2.000000000000000000e+00,-4.293823242187500000e-01,1.088256835937500000e-01,7.992553710937500000e-01,4.061279296875000000e-01
1.000000000000000000e+00,1.000000000000000000e+00,3.000000000000000000e+00,0.000000000000000000e+00,-3.000000000000000000e+00,2.000000000000000000e+00,-1.000000000000000000e+00,-2.000000000000000000e+00,-4.293823242187500000e-01,1.088256835937500000e-01,7.992553710937500000e-01,4.061279296875000000e-01
-3.000000000000000000e+00,-2.000000000000000000e+00,-2.000000000000000000e+00,2.000000000000000000e+00,-3.000000000000000000e+00,2.000000000000000000e+00,3.000000000000000000e+00,1.000000000000000000e+00,-4.278564453125000000e-01,1.089477539062500000e-01,7.984619140625000000e-01,4.093017578125000000e-01
-1.000000000000000000e+00,-1.000000000000000000e+00,1.000000000000000000e+00,5.000000000000000000e+00,1.000000000000000000e+00,-3.000000000000000000e+00,-4.000000000000000000e+00,-4.000000000000000000e+00,-4.278564453125000000e-01,1.089477539062500000e-01,7.984619140625000000e-01,4.093017578125000000e-01
-1.000000000000000000e+00,-2.000000000000000000e+00,-3.000000000000000000e+00,-5.000000000000000000e+00,-5.000000000000000000e+00,-1.000000000000000000e+00,-1.000000000000000000e+00,-1.000000000000000000e+00,-4.278564453125000000e-01,1.089477539062500000e-01,7.984619140625000000e-01,4.093017578125000000e-01
-4.000000000000000000e+00,-2.000000000000000000e+00,3.000000000000000000e+00,5.000000000000000000e+00,-1.000000000000000000e+00,-1.000000000000000000e+00,-2.000000000000000000e+00,-3.000000000000000000e+00,-4.278564453125000000e-01,1.089477539062500000e-01,7.984619140625000000e-01,4.093017578125000000e-01
2.000000000000000000e+00,3.000000000000000000e+00,-4.000000000000000000e+00,0.000000000000000000e+00,6.000000000000000000e+00,1.000000000000000000e+00,0.000000000000000000e+00,0.000000000000000000e+00,-4.259643554687500000e-01,1.115112304687500000e-01,7.973022460937500000e-01,4.127197265625000000e-01
1.000000000000000000e+00,0.000000000000000000e+00,2.000000000000000000e+00,-3.000000000000000000e+00,-5.000000000000000000e+00,-1.000000000000000000e+00,-2.000000000000000000e+00,0.000000000000000000e+00,-4.259643554687500000e-01,1.115112304687500000e-01,7.973022460937500000e-01,4.127197265625000000e-01
2.000000000000000000e+00,-2.000000000000000000e+00,-1.000000000000000000e+01,1.000000000000000000e+00,0.000000000000000000e+00,-2.000000000000000000e+00,0.000000000000000000e+00,0.000000000000000000e+00,-4.259643554687500000e-01,1.115112304687500000e-01,7.973022460937500000e-01,4.127197265625000000e-01
-2.000000000000000000e+00,-1.000000000000000000e+00,-5.000000000000000000e+00,-3.000000000000000000e+00,-5.000000000000000000e+00,-5.000000000000000000e+00,-4.000000000000000000e+00,-5.000000000000000000e+00,-4.259643554687500000e-01,1.115112304687500000e-01,7.973022460937500000e-01,4.127197265625000000e-01
2.000000000000000000e+00,3.000000000000000000e+00,4.000000000000000000e+00,-3.000000000000000000e+00,-6.000000000000000000e+00,-2.000000000000000000e+00,0.000000000000000000e+00,0.000000000000000000e+00,-4.244995117187500000e-01,1.148681640625000000e-01,7.965698242187500000e-01,4.147338867187500000e-01
0.000000000000000000e+00,-3.000000000000000000e+00,-2.000000000000000000e+00,6.000000000000000000e+00,9.000000000000000000e+00,2.000000000000000000e+00,0.000000000000000000e+00,0.000000000000000000e+00,-4.244995117187500000e-01,1.148681640625000000e-01,7.965698242187500000e-01,4.147338867187500000e-01
-1.000000000000000000e+00,0.000000000000000000e+00,-3.000000000000000000e+00,-3.000000000000000000e+00,-2.000000000000000000e+00,0.000000000000000000e+00,-1.000000000000000000e+00,-2.000000000000000000e+00,-4.244995117187500000e-01,1.148681640625000000e-01,7.965698242187500000e-01,4.147338867187500000e-01
-2.000000000000000000e+00,-6.000000000000000000e+00,-5.000000000000000000e+00,-3.000000000000000000e+00,-2.000000000000000000e+00,-1.000000000000000000e+00,-1.000000000000000000e+00,0.000000000000000000e+00,-4.244995117187500000e-01,1.148681640625000000e-01,7.965698242187500000e-01,4.147338867187500000e-01
1.000000000000000000e+00,1.000000000000000000e+00,0.000000000000000000e+00,-1.000000000000000000e+01,-3.000000000000000000e+00,-1.000000000000000000e+00,1.000000000000000000e+00,-1.000000000000000000e+00,-4.241943359375000000e-01,1.157226562500000000e-01,7.965698242187500000e-01,4.148559570312500000e-01
-3.000000000000000000e+00,-3.000000000000000000e+00,-1.000000000000000000e+00,9.000000000000000000e+00,1.000000000000000000e+00,-2.000000000000000000e+00,-1.000000000000000000e+00,-4.000000000000000000e+00,-4.241943359375000000e-01,1.157226562500000000e-01,7.965698242187500000e-01,4.148559570312500000e-01
0.000000000000000000e+00,1.000000000000000000e+00,3.000000000000000000e+00,5.000000000000000000e+00,-2.000000000000000000e+00,-1.000000000000000000e+00,1.000000000000000000e+00,0.000000000000000000e+00,-4.241943359375000000e-01,1.157226562500000000e-01,7.965698242187500000e-01,4.148559570312500000e-01
-2.000000000000000000e+00,-2.000000000000000000e+00,-6.000000000000000000e+00,-1.000000000000000000e+00,4.000000000000000000e+00,-1.000000000000000000e+00,-1.000000000000000000e+00,0.000000000000000000e+00,-4.241943359375000000e-01,1.157226562500000000e-01,7.965698242187500000e-01,4.148559570312500000e-01
4.000000000000000000e+00,1.100000000000000000e+01,1.600000000000000000e+01,1.000000000000000000e+00,2.000000000000000000e+00,0.000000000000000000e+00,2.000000000000000000e+00,3.000000000000000000e+00,-4.237060546875000000e-01,1.146240234375000000e-01,7.969360351562500000e-01,4.149780273437500000e-01
-1.000000000000000000e+00,-6.000000000000000000e+00,-1.900000000000000000e+01,0.000000000000000000e+00,-5.000000000000000000e+00,-5.000000000000000000e+00,-3.000000000000000000e+00,-1.000000000000000000e+00,-4.237060546875000000e-01,1.146240234375000000e-01,7.969360351562500000e-01,4.149780273437500000e-01
-1.000000000000000000e+00,-3.000000000000000000e+00,-6.000000000000000000e+00,-7.000000000000000000e+00,-3.000000000000000000e+00,1.000000000000000000e+00,-2.000000000000000000e+00,-2.000000000000000000e+00,-4.237060546875000000e-01,1.146240234375000000e-01,7.969360351562500000e-01,4.149780273437500000e-01
-3.000000000000000000e+00,-3.000000000000000000e+00,5.000000000000000000e+00,2.000000000000000000e+00,9.000000000000000000e+00,2.000000000000000000e+00,-1.000000000000000000e+00,-4.000000000000000000e+00,-4.237060546875000000e-01,1.146240234375000000e-01,7.969360351562500000e-01,4.149780273437500000e-01
0.000000000000000000e+00,0.000000000000000000e+00,-4.000000000000000000e+00,1.100000000000000000e+01,1.000000000000000000e+00,1.000000000000000000e+00,-1.000000000000000000e+00,0.000000000000000000e+00,-4.218139648437500000e-01,1.142578125000000000e-01,7.972412109375000000e-01,4.163208007812500000e-01
0.000000000000000000e+00,3.000000000000000000e+00,1.000000000000000000e+00,-4.000000000000000000e+00,-3.000000000000000000e+00,-1.000000000000000000e+00,-1.000000000000000000e+00,0.000000000000000000e+00,-4.218139648437500000e-01,1.142578125000000000e-01,7.972412109375000000e-01,4.163208007812500000e-01
0.000000000000000000e+00,-1.000000000000000000e+00,2.000000000000000000e+00,1.000000000000000000e+00,1.000000000000000000e+00,-1.000000000000000000e+00,-1.000000000000000000e+00,-1.000000000000000000e+00,-4.218139648437500000e-01,1.142578125000000000e-01,7.972412109375000000e-01,4.163208007812500000e-01
1.000000000000000000e+00,0.000000000000000000e+00,-5.000000000000000000e+00,-5.000000000000000000e+00,-2.000000000000000000e+00,-3.000000000000000000e+00,0.000000000000000000e+00,0.000000000000000000e+00,-4.218139648437500000e-01,1.142578125000000000e-01,7.972412109375000000e-01,4.163208007812500000e-01
0.000000000000000000e+00,-2.000000000000000000e+00,0.000000000000000000e+00,-4.000000000000000000e+00,-4.000000000000000000e+00,0.000000000000000000e+00,-1.000000000000000000e+00,1.000000000000000000e+00,-4.195556640625000000e-01,1.146240234375000000e-01,7.975463867187500000e-01,4.179687500000000000e-01
2.000000000000000000e+00,0.000000000000000000e+00,0.000000000000000000e+00,-1.100000000000000000e+01,-4.000000000000000000e+00,-2.000000000000000000e+00,0.000000000000000000e+00,0.000000000000000000e+00,-4.195556640625000000e-01,1.146240234375000000e-01,7.975463867187500000e-01,4.179687500000000000e-01
-2.000000000000000000e+00,-2.000000000000000000e+00,-1.000000000000000000e+00,6.000000000000000000e+00,2.000000000000000000e+00,-1.000000000000000000e+00,0.000000000000000000e+00,-1.000000000000000000e+00,-4.195556640625000000e-01,1.146240234375000000e-01,7.975463867187500000e-01,4.179687500000000000e-01
2.000000000000000000e+00,-3.000000000000000000e+00,0.000000000000000000e+00,-4.000000000000000000e+00,-3.000000000000000000e+00,0.000000000000000000e+00,0.000000000000000000e+00,1.000000000000000000e+00,-4.195556640625000000e-01,1.146240234375000000e-01,7.975463867187500000e-01,4.179687500000000000e-01
-2.000000000000000000e+00,-3.000000000000000000e+00,-2.000000000000000000e+00,-2.000000000000000000e+00,-4.000000000000000000e+00,-1.000000000000000000e+00,-1.000000000000000000e+00,-3.000000000000000000e+00,-4.176635742187500000e-01,1.149291992187500000e-01,7.979125976562500000e-01,4.190673828125000000e-01
0.000000000000000000e+00,1.000000000000000000e+00,-2.000000000000000000e+00,0.000000000000000000e+00,-2.000000000000000000e+00,-2.000000000000000000e+00,1.000000000000000000e+00,-1.000000000000000000e+00,-4.176635742187500000e-01,1.149291992187500000e-01,7.979125976562500000e-01,4.190673828125000000e-01
-1.000000000000000000e+00,0.000000000000000000e+00,5.000000000000000000e+00,-5.000000000000000000e+00,-5.000000000000000000e+00,-1.000000000000000000e+00,0.000000000000000000e+00,-2.000000000000000000e+00,-4.176635742187500000e-01,1.149291992187500000e-01,7.979125976562500000e-01,4.190673828125000000e-01
-1.000000000000000000e+00,0.000000000000000000e+00,-4.000000000000000000e+00,1.500000000000000000e+01,1.000000000000000000e+01,1.000000000000000000e+00,0.000000000000000000e+00,0.000000000000000000e+00,-4.176635742187500000e-01,1.149291992187500000e-01,7.979125976562500000e-01,4.190673828125000000e-01
-1.000000000000000000e+00,0.000000000000000000e+00,2.000000000000000000e+00,-1.500000000000000000e+01,-8.000000000000000000e+00,0.000000000000000000e+00,-1.000000000000000000e+00,1.000000000000000000e+00,-4.161376953125000000e-01,1.147460937500000000e-01,7.987670898437500000e-01,4.190673828125000000e-01
-1.000000000000000000e+00,1.000000000000000000e+00,1.200000000000000000e+01,1.700000000000000000e+01,1.200000000000000000e+01,1.000000000000000000e+00,-1.000000000000000000e+00,-1.000000000000000000e+00,-4.161376953125000000e-01,1.147460937500000000e-01,7.987670898437500000e-01,4.190673828125000000e-01
-1.000000000000000000e+00,-3.000000000000000000e+00,-9.000000000000000000e+00,-1.200000000000000000e+01,-8.000000000000000000e+00,1.000000000000000000e+00,1.000000000000000000e+00,-1.000000000000000000e+00,-4.161376953125000000e-01,1.147460937500000000e-01,7.987670898437500000e-01,4.190673828125000000e-01
-1.000000000000000000e+00,-2.000000000000000000e+00,-4.000000000000000000e+00,-6.000000000000000000e+00,-5.000000000000000000e+00,-4.000000000000000000e+00,-2.000000000000000000e+00,0.000000000000000000e+00,-4.161376953125000000e-01,1.147460937500000000e-01,7.987670898437500000e-01,4.190673828125000000e-01
-1.000000000000000000e+00,-2.000000000000000000e+00,-2.000000000000000000e+00,3.000000000000000000e+00,0.000000000000000000e+00,-1.000000000000000000e+00,-1.000000000000000000e+00,-3.000000000000000000e+00,-4.155883789062500000e-01,1.130371093750000000e-01,7.999877929687500000e-01,4.177856445312500000e-01
-2.000000000000000000e+00,-1.000000000000000000e+00,3.000000000000000000e+00,-1.800000000000000000e+01,-5.000000000000000000e+00,-1.000000000000000000e+00,-1.000000000000000000e+00,1.000000000000000000e+00,-4.155883789062500000e-01,1.130371093750000000e-01,7.999877929687500000e-01,4.177856445312500000e-01
-1.000000000000000000e+00,1.000000000000000000e+00,3.000000000000000000e+00,1.600000000000000000e+01,7.000000000000000000e+00,0.000000000000000000e+00,-1.000000000000000000e+00,-1.000000000000000000e+00,-4.155883789062500000e-01,1.130371093750000000e-01,7.999877929687500000e-01,4.177856445312500000e-01
-1.000000000000000000e+00,-1.000000000000000000e+00,-3.000000000000000000e+00,-6.000000000000000000e+00,-4.000000000000000000e+00,-1.000000000000000000e+00,0.000000000000000000e+00,-1.000000000000000000e+00,-4.155883789062500000e-01,1.130371093750000000e-01,7.999877929687500000e-01,4.177856445312500000e-01
0.000000000000000000e+00,-3.000000000000000000e+00,-1.000000000000000000e+00,-1.000000000000000000e+00,-4.000000000000000000e+00,-2.000000000000000000e+00,-1.000000000000000000e+00,0.000000000000000000e+00,-4.155273437500000000e-01,1.096191406250000000e-01,8.009643554687500000e-01,4.167480468750000000e-01
0.000000000000000000e+00,0.000000000000000000e+00,6.000000000000000000e+00,-9.000000000000000000e+00,0.000000000000000000e+00,-2.000000000000000000e+00,-1.000000000000000000e+00,-2.000000000000000000e+00,-4.155273437500000000e-01,1.096191406250000000e-01,8.009643554687500000e-01,4.167480468750000000e-01
-3.000000000000000000e+00,-4.000000000000000000e+00,-8.000000000000000000e+00,7.000000000000000000e+00,1.000000000000000000e+00,-2.000000000000000000e+00,-4.000000000000000000e+00,-2.000000000000000000e+00,-4.155273437500000000e-01,1.096191406250000000e-01,8.009643554687500000e-01,4.167480468750000000e-01
1.000000000000000000e+00,4.000000000000000000e+00,6.000000000000000000e+00,-5.000000000000000000e+00,-4.000000000000000000e+00,-1.000000000000000000e+00,-1.000000000000000000e+00,-1.000000000000000000e+00,-4.155273437500000000e-01,1.096191406250000000e-01,8.009643554687500000e-01,4.167480468750000000e-01
-1.000000000000000000e+00,0.000000000000000000e+00,-3.000000000000000000e+00,0.000000000000000000e+00,-1.000000000000000000e+00,0.000000000000000000e+00,0.000000000000000000e+00,0.000000000000000000e+00,-4.145507812500000000e-01,1.074218750000000000e-01,8.013305664062500000e-01,4.175415039062500000e-01
-1.000000000000000000e+00,0.000000000000000000e+00,1.200000000000000000e+01,2.000000000000000000e+00,-3.000000000000000000e+00,-2.000000000000000000e+00,-3.000000000000000000e+00,-2.000000000000000000e+00,-4.145507812500000000e-01,1.074218750000000000e-01,8.013305664062500000e-01,4.175415039062500000e-01
-2.000000000000000000e+00,-3.000000000000000000e+00,-1.000000000000000000e+00,-8.000000000000000000e+00,-3.000000000000000000e+00,-5.000000000000000000e+00,-4.000000000000000000e+00,-2.000000000000000000e+00,-4.145507812500000000e-01,1.074218750000000000e-01,8.013305664062500000e-01,4.175415039062500000e-01
-2.000000000000000000e+00,-2.000000000000000000e+00,0.000000000000000000e+00,-2.000000000000000000e+00,0.000000000000000000e+00,1.000000000000000000e+00,0.000000000000000000e+00,-3.000000000000000000e+00,-4.145507812500000000e-01,1.074218750000000000e-01,8.013305664062500000e-01,4.175415039062500000e-01
-2.000000000000000000e+00,-2.000000000000000000e+00,1.000000000000000000e+00,2.000000000000000000e+00,0.000000000000000000e+00,-1.000000000000000000e+00,-1.000000000000000000e+00,-2.000000000000000000e+00,-4.133911132812500000e-01,1.064453125000000000e-01,8.014526367187500000e-01,4.188842773437500000e-01
1.000000000000000000e+00,2.000000000000000000e+00,-1.000000000000000000e+00,2.000000000000000000e+00,2.000000000000000000e+00,1.000000000000000000e+00,1.000000000000000000e+00,0.000000000000000000e+00,-4.133911132812500000e-01,1.064453125000000000e-01,8.014526367187500000e-01,4.188842773437500000e-01
0.000000000000000000e+00,-3.000000000000000000e+00,-7.000000000000000000e+00,-5.000000000000000000e+00,1.000000000000000000e+00,0.000000000000000000e+00,1.000000000000000000e+00,-1.000000000000000000e+00,-4.133911132812500000e-01,1.064453125000000000e-01,8.014526367187500000e-01,4.188842773437500000e-01
-2.000000000000000000e+00,-2.000000000000000000e+00,8.000000000000000000e+00,-2.000000000000000000e+00,-2.000000000000000000e+00,2.000000000000000000e+00,-1.000000000000000000e+00,-1.000000000000000000e+00,-4.133911132812500000e-01,1.064453125000000000e-01,8.014526367187500000e-01,4.188842773437500000e-01
0.000000000000000000e+00,1.000000000000000000e+00,1.000000000000000000e+00,1.000000000000000000e+00,-1.000000000000000000e+00,0.000000000000000000e+00,-2.000000000000000000e+00,1.000000000000000000e+00,-4.122314453125000000e-01,1.048583984375000000e-01,8.019409179687500000e-01,4.194335937500000000e-01
-1.000000000000000000e+00,-2.000000000000000000e+00,-2.000000000000000000e+01,-1.500000000000000000e+01,-7.000000000000000000e+00,-2.000000000000000000e+00,0.000000000000000000e+00,-1.000000000000000000e+00,-4.122314453125000000e-01,1.048583984375000000e-01,8.019409179687500000e-01,4.194335937500000000e-01
-5.000000000000000000e+00,-7.000000000000000000e+00,5.000000000000000000e+00,-8.000000000000000000e+00,-5.000000000000000000e+00,-1.000000000000000000e+00,-4.000000000000000000e+00,-3.000000000000000000e+00,-4.122314453125000000e-01,1.048583984375000000e-01,8.019409179687500000e-01,4.194335937500000000e-01
1.000000000000000000e+00,1.000000000000000000e+00,-6.000000000000000000e+00,1.200000000000000000e+01,8.000000000000000000e+00,-2.000000000000000000e+00,2.000000000000000000e+00,2.000000000000000000e+00,-4.122314453125000000e-01,1.048583984375000000e-01,8.019409179687500000e-01,4.194335937500000000e-01
0.000000000000000000e+00,1.000000000000000000e+00,1.000000000000000000e+00,-5.000000000000000000e+00,-4.000000000000000000e+00,-1.000000000000000000e+00,0.000000000000000000e+00,1.000000000000000000e+00,-4.109497070312500000e-01,1.012573242187500000e-01,8.031005859375000000e-01,4.193115234375000000e-01
-1.000000000000000000e+00,0.000000000000000000e+00,1.100000000000000000e+01,-1.200000000000000000e+01,-1.000000000000000000e+01,-4.000000000000000000e+00,-2.000000000000000000e+00,-3.000000000000000000e+00,-4.109497070312500000e-01,1.012573242187500000e-01,8.031005859375000000e-01,4.193115234375000000e-01
0.000000000000000000e+00,3.000000000000000000e+00,3.000000000000000000e+00,1.600000000000000000e+01,2.200000000000000000e+01,4.000000000000000000e+00,3.000000000000000000e+00,0.000000000000000000e+00,-4.109497070312500000e-01,1.012573242187500000e-01,8.031005859375000000e-01,4.193115234375000000e-01
-4.000000000000000000e+00,-2.000000000000000000e+00,-6.000000000000000000e+00,-7.000000000000000000e+00,-8.000000000000000000e+00,-3.000000000000000000e+00,-3.000000000000000000e+00,-1.000000000000000000e+00,-4.109497070312500000e-01,1.012573242187500000e-01,8.031005859375000000e-01,4.193115234375000000e-01
-3.000000000000000000e+00,0.000000000000000000e+00,-1.000000000000000000e+00,-5.000000000000000000e+00,-2.000000000000000000e+00,-1.000000000000000000e+00,-3.000000000000000000e+00,-2.000000000000000000e+00,-4.099731445312500000e-01,9.631347656250000000e-02,8.044433593750000000e-01,4.188842773437500000e-01
2.000000000000000000e+00,0.000000000000000000e+00,1.000000000000000000e+00,5.000000000000000000e+00,0.000000000000000000e+00,0.000000000000000000e+00,1.000000000000000000e+00,4.000000000000000000e+00,-4.099731445312500000e-01,9.631347656250000000e-02,8.044433593750000000e-01,4.188842773437500000e-01
-1.000000000000000000e+00,1.000000000000000000e+00,0.000000000000000000e+00,-4.000000000000000000e+00,-6.000000000000000000e+00,-4.000000000000000000e+00,-2.000000000000000000e+00,-1.000000000000000000e+00,-4.099731445312500000e-01,9.631347656250000000e-02,8.044433593750000000e-01,4.188842773437500000e-01
0.000000000000000000e+00,-1.000000000000000000e+00,-6.000000000000000000e+00,-3.000000000000000000e+00,1.000000000000000000e+00,1.000000000000000000e+00,0.000000000000000000e+00,-1.000000000000000000e+00,-4.099731445312500000e-01,9.631347656250000000e-02,8.044433593750000000e-01,4.188842773437500000e-01
-2.000000000000000000e+00,-1.000000000000000000e+00,-3.000000000000000000e+00,4.000000000000000000e+00,4.000000000000000000e+00,1.000000000000000000e+00,-1.000000000000000000e+00,-1.000000000000000000e+00,-4.084472656250000000e-01,9.252929687500000000e-02,8.052978515625000000e-01,4.196166992187500000e-01
-1.000000000000000000e+00,-1.000000000000000000e+00,1.000000000000000000e+00,-1.000000000000000000e+00,-3.000000000000000000e+00,0.000000000000000000e+00,-2.000000000000000000e+00,-2.000000000000000000e+00,-4.084472656250000000e-01,9.252929687500000000e-02,8.052978515625000000e-01,4.196166992187500000e-01
0.000000000000000000e+00,0.000000000000000000e+00,3.000000000000000000e+00,3.000000000000000000e+00,0.000000000000000000e+00,-1.000000000000000000e+00,-1.000000000000000000e+00,0.000000000000000000e+00,-4.084472656250000000e-01,9.252929687500000000e-02,8.052978515625000000e-01,4.196166992187500000e-01
-1.000000000000000000e+00,-1.000000000000000000e+00,1.000000000000000000e+00,-2.000000000000000000e+00,-3.000000000000000000e+00,-3.000000000000000000e+00,-1.000000000000000000e+00,1.000000000000000000e+00,-4.084472656250000000e-01,9.252929687500000000e-02,8.052978515625000000e-01,4.196166992187500000e-01
-3.000000000000000000e+00,-7.000000000000000000e+00,-5.000000000000000000e+00,-7.000000000000000000e+00,-6.000000000000000000e+00,1.000000000000000000e+00,-1.000000000000000000e+00,0.000000000000000000e+00,-4.060668945312500000e-01,9.014892578125000000e-02,8.060302734375000000e-01,4.210815429687500000e-01
-3.000000000000000000e+00,-6.000000000000000000e+00,-2.000000000000000000e+00,1.000000000000000000e+00,-2.000000000000000000e+00,-4.000000000000000000e+00,-3.000000000000000000e+00,-2.000000000000000000e+00,-4.060668945312500000e-01,9.014892578125000000e-02,8.060302734375000000e-01,4.210815429687500000e-01
0.000000000000000000e+00,2.000000000000000000e+00,3.000000000000000000e+00,-2.000000000000000000e+00,-5.000000000000000000e+00,-3.000000000000000000e+00,0.000000000000000000e+00,2.000000000000000000e+00,-4.060668945312500000e-01,9.014892578125000000e-02,8.060302734375000000e-01,4.210815429687500000e-01
-2.000000000000000000e+00,0.000000000000000000e+00,0.000000000000000000e+00,-3.000000000000000000e+00,1.000000000000000000e+00,0.000000000000000000e+00,0.000000000000000000e+00,-1.000000000000000000e+00,-4.060668945312500000e-01,9.014892578125000000e-02,8.060302734375000000e-01,4.210815429687500000e-01
0.000000000000000000e+00,-2.000000000000000000e+00,-2.000000000000000000e+00,1.100000000000000000e+01,2.000000000000000000e+00,0.000000000000000000e+00,-1.000000000000000000e+00,0.000000000000000000e+00,-4.035034179687500000e-01,8.789062500000000000e-02,8.064575195312500000e-01,4.230346679687500000e-01
-1.000000000000000000e+00,0.000000000000000000e+00,-3.000000000000000000e+00,1.000000000000000000e+00,-4.000000000000000000e+00,0.000000000000000000e+00,-1.000000000000000000e+00,-1.000000000000000000e+00,-4.035034179687500000e-01,8.789062500000000000e-02,8.064575195312500000e-01,4.230346679687500000e-01
0.000000000000000000e+00,0.000000000000000000e+00,4.000000000000000000e+00,3.000000000000000000e+00,5.000000000000000000e+00,0.000000000000000000e+00,1.000000000000000000e+00,-1.000000000000000000e+00,-4.035034179687500000e-01,8.789062500000000000e-02,8.064575195312500000e-01,4.230346679687500000e-01
-1.000000000000000000e+00,-2.000000000000000000e+00,-1.000000000000000000e+00,-3.000000000000000000e+00,-3.000000000000000000e+00,-2.000000000000000000e+00,-2.000000000000000000e+00,-1.000000000000000000e+00,-4.035034179687500000e-01,8.789062500000000000e-02,8.064575195312500000e-01,4.230346679687500000e-01
0.000000000000000000e+00,-2.000000000000000000e+00,0.000000000000000000e+00,-3.000000000000000000e+00,-1.000000000000000000e+00,-5.000000000000000000e+00,-1.000000000000000000e+00,-1.000000000000000000e+00,-4.016723632812500000e-01,8.593750000000000000e-02,8.065185546875000000e-01,4.251708984375000000e-01
-2.000000000000000000e+00,-2.000000000000000000e+00,-1.000000000000000000e+00,-6.000000000000000000e+00,2.000000000000000000e+00,0.000000000000000000e+00,-1.000000000000000000e+00,-2.000000000000000000e+00,-4.016723632812500000e-01,8.593750000000000000e-02,8.065185546875000000e-01,4.251708984375000000e-01
1.000000000000000000e+00,0.000000000000000000e+00,-3.000000000000000000e+00,8.000000000000000000e+00,-3.000000000000000000e+00,-2.000000000000000000e+00,-1.000000000000000000e+00,1.000000000000000000e+00,-4.016723632812500000e-01,8.593750000000000000e-02,8.065185546875000000e-01,4.251708984375000000e-01
0.000000000000000000e+00,0.000000000000000000e+00,-8.000000000000000000e+00,-7.000000000000000000e+00,3.000000000000000000e+00,1.000000000000000000e+00,-2.000000000000000000e+00,0.000000000000000000e+00,-4.016723632812500000e-01,8.593750000000000000e-02,8.065185546875000000e-01,4.251708984375000000e-01
0.000000000000000000e+00,-1.000000000000000000e+00,8.000000000000000000e+00,1.800000000000000000e+01,8.000000000000000000e+00,0.000000000000000000e+00,2.000000000000000000e+00,0.000000000000000000e+00,-4.000244140625000000e-01,8.453369140625000000e-02,8.062744140625000000e-01,4.274291992187500000e-01
-3.000000000000000000e+00,-1.000000000000000000e+00,-6.000000000000000000e+00,-7.000000000000000000e+00,-2.000000000000000000e+00,0.000000000000000000e+00,2.000000000000000000e+00,-2.000000000000000000e+00,-4.000244140625000000e-01,8.453369140625000000e-02,8.062744140625000000e-01,4.274291992187500000e-01
-5.000000000000000000e+00,-7.000000000000000000e+00,-8.000000000000000000e+00,-1.900000000000000000e+01,-7.000000000000000000e+00,-1.000000000000000000e+00,-3.000000000000000000e+00,-3.000000000000000000e+00,-4.000244140625000000e-01,8.453369140625000000e-02,8.062744140625000000e-01,4.274291992187500000e-01
1.000000000000000000e+00,3.000000000000000000e+00,1.300000000000000000e+01,6.000000000000000000e+00,-1.000000000000000000e+00,-4.000000000000000000e+00,-2.000000000000000000e+00,-1.000000000000000000e+00,-4.000244140625000000e-01,8.453369140625000000e-02,8.062744140625000000e-01,4.274291992187500000e-01
2.000000000000000000e+00,-1.000000000000000000e+00,-7.000000000000000000e+00,-7.000000000000000000e+00,1.000000000000000000e+00,0.000000000000000000e+00,0.000000000000000000e+00,-1.000000000000000000e+00,-3.987426757812500000e-01,8.337402343750000000e-02,8.060302734375000000e-01,4.292602539062500000e-01
-3.000000000000000000e+00,-2.000000000000000000e+00,-4.000000000000000000e+00,-5.000000000000000000e+00,-1.000000000000000000e+01,-5.000000000000000000e+00,-3.000000000000000000e+00,-3.000000000000000000e+00,-3.987426757812500000e-01,8.337402343750000000e-02,8.060302734375000000e-01,4.292602539062500000e-01
1.000000000000000000e+00,-1.000000000000000000e+00,2.000000000000000000e+00,6.000000000000000000e+00,-1.000000000000000000e+00,0.000000000000000000e+00,0.000000000000000000e+00,-3.000000000000000000e+00,-3.987426757812500000e-01,8.337402343750000000e-02,8.060302734375000000e-01,4.292602539062500000e-01
-2.000000000000000000e+00,-4.000000000000000000e+00,0.000000000000000000e+00,0.000000000000000000e+00,-4.000000000000000000e+00,-3.000000000000000000e+00,-3.000000000000000000e+00,-3.000000000000000000e+00,-3.987426757812500000e-01,8.337402343750000000e-02,8.060302734375000000e-01,4.292602539062500000e-01
-1.000000000000000000e+00,1.000000000000000000e+00,-6.000000000000000000e+00,-8.000000000000000000e+00,-4.000000000000000000e+00,-1.000000000000000000e+00,0.000000000000000000e+00,-1.000000000000000000e+00,-3.981323242187500000e-01,8.166503906250000000e-02,8.057861328125000000e-01,4.306640625000000000e-01
1.000000000000000000e+00,0.000000000000000000e+00,4.000000000000000000e+00,4.000000000000000000e+00,2.000000000000000000e+00,0.000000000000000000e+00,-1.000000000000000000e+00,1.000000000000000000e+00,-3.981323242187500000e-01,8.166503906250000000e-02,8.057861328125000000e-01,4.306640625000000000e-01
-1.000000000000000000e+00,2.000000000000000000e+00,-4.000000000000000000e+00,-5.000000000000000000e+00,-1.000000000000000000e+00,1.000000000000000000e+00,0.000000000000000000e+00,2.000000000000000000e+00,-3.981323242187500000e-01,8.166503906250000000e-02,8.057861328125000000e-01,4.306640625000000000e-01
-2.000000000000000000e+00,-2.000000000000000000e+00,0.000000000000000000e+00,-5.000000000000000000e+00,-5.000000000000000000e+00,0.000000000000000000e+00,0.000000000000000000e+00,1.000000000000000000e+00,-3.981323242187500000e-01,8.166503906250000000e-02,8.057861328125000000e-01,4.306640625000000000e-01
0.000000000000000000e+00,0.000000000000000000e+00,4.000000000000000000e+00,3.000000000000000000e+00,-3.000000000000000000e+00,-3.000000000000000000e+00,-3.000000000000000000e+00,-2.000000000000000000e+00,-3.982543945312500000e-01,7.861328125000000000e-02,8.054809570312500000e-01,4.316406250000000000e-01
-2.000000000000000000e+00,-3.000000000000000000e+00,-2.000000000000000000e+00,9.000000000000000000e+00,1.000000000000000000e+00,-1.000000000000000000e+00,1.000000000000000000e+00,-2.000000000000000000e+00,-3.982543945312500000e-01,7.861328125000000000e-02,8.054809570312500000e-01,4.316406250000000000e-01
-4.000000000000000000e+00,-3.000000000000000000e+00,-8.000000000000000000e+00,-1.700000000000000000e+01,-4.000000000000000000e+00,-3.000000000000000000e+00,-4.000000000000000000e+00,-3.000000000000000000e+00,-3.982543945312500000e-01,7.861328125000000000e-02,8.054809570312500000e-01,4.316406250000000000e-01
1.000000000000000000e+00,2.000000000000000000e+00,3.000000000000000000e+00,4.000000000000000000e+00,3.000000000000000000e+00,-1.000000000000000000e+00,0.000000000000000000e+00,0.000000000000000000e+00,-3.982543945312500000e-01,7.861328125000000000e-02,8.054809570312500000e-01,4.316406250000000000e-01
