9.000000000000000000e+00,-1.000000000000000000e+01,3.000000000000000000e+00,0.000000000000000000e+00,3.000000000000000000e+00,6.000000000000000000e+00,3.000000000000000000e+00,2.000000000000000000e+00,-4.012451171875000000e-01,2.657470703125000000e-01,6.406860351562500000e-01,5.982055664062500000e-01
-2.000000000000000000e+00,5.000000000000000000e+00,4.000000000000000000e+00,5.000000000000000000e+00,2.000000000000000000e+00,-4.000000000000000000e+00,-4.000000000000000000e+00,-1.000000000000000000e+00,-4.012451171875000000e-01,2.657470703125000000e-01,6.406860351562500000e-01,5.982055664062500000e-01
-2.300000000000000000e+01,-7.000000000000000000e+00,-1.000000000000000000e+00,0.000000000000000000e+00,-4.000000000000000000e+00,-4.000000000000000000e+00,-6.000000000000000000e+00,-1.100000000000000000e+01,-4.012451171875000000e-01,2.657470703125000000e-01,6.406860351562500000e-01,5.982055664062500000e-01
-8.000000000000000000e+00,2.000000000000000000e+00,-9.000000000000000000e+00,-8.000000000000000000e+00,-6.000000000000000000e+00,-6.000000000000000000e+00,3.000000000000000000e+00,2.000000000000000000e+00,-4.012451171875000000e-01,2.657470703125000000e-01,6.406860351562500000e-01,5.982055664062500000e-01
2.600000000000000000e+01,-2.000000000000000000e+00,3.000000000000000000e+00,-1.000000000000000000e+00,1.000000000000000000e+00,-2.000000000000000000e+00,3.000000000000000000e+00,8.000000000000000000e+00,-4.008178710937500000e-01,2.676391601562500000e-01,6.404418945312500000e-01,5.979003906250000000e-01
-7.000000000000000000e+00,-5.000000000000000000e+00,-7.000000000000000000e+00,-1.000000000000000000e+00,-4.000000000000000000e+00,-1.000000000000000000e+00,-2.000000000000000000e+00,-4.000000000000000000e+00,-4.008178710937500000e-01,2.676391601562500000e-01,6.404418945312500000e-01,5.979003906250000000e-01
-1.400000000000000000e+01,0.000000000000000000e+00,-5.000000000000000000e+00,1.000000000000000000e+01,6.000000000000000000e+00,-1.000000000000000000e+00,-7.000000000000000000e+00,-4.000000000000000000e+00,-4.008178710937500000e-01,2.676391601562500000e-01,6.404418945312500000e-01,5.979003906250000000e-01
1.400000000000000000e+01,3.000000000000000000e+00,-6.000000000000000000e+00,-4.000000000000000000e+00,-6.000000000000000000e+00,-7.000000000000000000e+00,-5.000000000000000000e+00,-5.000000000000000000e+00,-4.008178710937500000e-01,2.676391601562500000e-01,6.404418945312500000e-01,5.979003906250000000e-01
-1.100000000000000000e+01,2.000000000000000000e+00,6.000000000000000000e+00,-3.000000000000000000e+00,1.000000000000000000e+01,7.000000000000000000e+00,3.000000000000000000e+00,-5.000000000000000000e+00,-4.010620117187500000e-01,2.681274414062500000e-01,6.409912109375000000e-01,5.969238281250000000e-01
1.000000000000000000e+00,-5.000000000000000000e+00,-9.000000000000000000e+00,4.000000000000000000e+00,-3.000000000000000000e+00,-3.000000000000000000e+00,-2.000000000000000000e+00,3.000000000000000000e+00,-4.010620117187500000e-01,2.681274414062500000e-01,6.409912109375000000e-01,5.969238281250000000e-01
2.000000000000000000e+00,4.000000000000000000e+00,-3.000000000000000000e+00,-1.000000000000000000e+00,2.000000000000000000e+00,2.000000000000000000e+00,2.000000000000000000e+00,5.000000000000000000e+00,-4.010620117187500000e-01,2.681274414062500000e-01,6.409912109375000000e-01,5.969238281250000000e-01
9.000000000000000000e+00,-2.000000000000000000e+00,0.000000000000000000e+00,2.000000000000000000e+00,2.000000000000000000e+00,0.000000000000000000e+00,0.000000000000000000e+00,-2.000000000000000000e+00,-4.010620117187500000e-01,2.681274414062500000e-01,6.409912109375000000e-01,5.969238281250000000e-01
-2.500000000000000000e+01,-2.000000000000000000e+00,-2.000000000000000000e+00,-1.000000000000000000e+00,-2.000000000000000000e+00,-4.000000000000000000e+00,-3.000000000000000000e+00,-7.000000000000000000e+00,-4.014892578125000000e-01,2.677001953125000000e-01,6.418457031250000000e-01,5.959472656250000000e-01
-5.000000000000000000e+00,-2.000000000000000000e+00,-8.000000000000000000e+00,-8.000000000000000000e+00,-4.000000000000000000e+00,0.000000000000000000e+00,-1.200000000000000000e+01,-9.000000000000000000e+00,-4.014892578125000000e-01,2.677001953125000000e-01,6.418457031250000000e-01,5.959472656250000000e-01
5.000000000000000000e+00,-1.300000000000000000e+01,7.000000000000000000e+00,2.000000000000000000e+00,-3.000000000000000000e+00,-2.000000000000000000e+00,7.000000000000000000e+00,1.000000000000000000e+01,-4.014892578125000000e-01,2.677001953125000000e-01,6.418457031250000000e-01,5.959472656250000000e-01
2.000000000000000000e+00,8.000000000000000000e+00,-4.000000000000000000e+00,-3.000000000000000000e+00,-2.000000000000000000e+00,2.000000000000000000e+00,2.000000000000000000e+00,3.000000000000000000e+00,-4.014892578125000000e-01,2.677001953125000000e-01,6.418457031250000000e-01,5.959472656250000000e-01
8.000000000000000000e+00,4.000000000000000000e+00,-1.000000000000000000e+00,4.000000000000000000e+00,0.000000000000000000e+00,2.000000000000000000e+00,-2.000000000000000000e+00,1.000000000000000000e+00,-4.017333984375000000e-01,2.672119140625000000e-01,6.419677734375000000e-01,5.958862304687500000e-01
-3.200000000000000000e+01,-5.000000000000000000e+00,-3.000000000000000000e+00,-4.000000000000000000e+00,-3.000000000000000000e+00,-5.000000000000000000e+00,-2.000000000000000000e+00,-4.000000000000000000e+00,-4.017333984375000000e-01,2.672119140625000000e-01,6.419677734375000000e-01,5.958862304687500000e-01
2.600000000000000000e+01,2.000000000000000000e+00,-3.000000000000000000e+00,0.000000000000000000e+00,-3.000000000000000000e+00,-3.000000000000000000e+00,-1.000000000000000000e+00,0.000000000000000000e+00,-4.017333984375000000e-01,2.672119140625000000e-01,6.419677734375000000e-01,5.958862304687500000e-01
-1.300000000000000000e+01,-2.000000000000000000e+00,1.000000000000000000e+00,-2.000000000000000000e+00,0.000000000000000000e+00,-2.000000000000000000e+00,1.000000000000000000e+00,-2.000000000000000000e+00,-4.017333984375000000e-01,2.672119140625000000e-01,6.419677734375000000e-01,5.958862304687500000e-01
-2.000000000000000000e+00,8.000000000000000000e+00,-2.000000000000000000e+00,1.000000000000000000e+00,0.000000000000000000e+00,2.000000000000000000e+00,0.000000000000000000e+00,-2.000000000000000000e+00,-4.023437500000000000e-01,2.665405273437500000e-01,6.416015625000000000e-01,5.960693359375000000e-01
2.500000000000000000e+01,-1.100000000000000000e+01,-8.000000000000000000e+00,-7.000000000000000000e+00,-2.000000000000000000e+00,-2.000000000000000000e+00,5.000000000000000000e+00,1.300000000000000000e+01,-4.023437500000000000e-01,2.665405273437500000e-01,6.416015625000000000e-01,5.960693359375000000e-01
-1.000000000000000000e+01,6.000000000000000000e+00,9.000000000000000000e+00,-1.000000000000000000e+00,0.000000000000000000e+00,1.000000000000000000e+00,-3.000000000000000000e+00,-6.000000000000000000e+00,-4.023437500000000000e-01,2.665405273437500000e-01,6.416015625000000000e-01,5.960693359375000000e-01
-3.000000000000000000e+00,-8.000000000000000000e+00,-1.000000000000000000e+01,1.000000000000000000e+00,-4.000000000000000000e+00,0.000000000000000000e+00,3.000000000000000000e+00,0.000000000000000000e+00,-4.023437500000000000e-01,2.665405273437500000e-01,6.416015625000000000e-01,5.960693359375000000e-01
2.000000000000000000e+00,0.000000000000000000e+00,2.000000000000000000e+00,-1.600000000000000000e+01,0.000000000000000000e+00,5.000000000000000000e+00,-2.000000000000000000e+00,0.000000000000000000e+00,-4.025878906250000000e-01,2.663574218750000000e-01,6.411743164062500000e-01,5.964965820312500000e-01
-1.900000000000000000e+01,-4.000000000000000000e+00,5.000000000000000000e+00,1.700000000000000000e+01,2.000000000000000000e+00,0.000000000000000000e+00,-2.000000000000000000e+00,-7.000000000000000000e+00,-4.025878906250000000e-01,2.663574218750000000e-01,6.411743164062500000e-01,5.964965820312500000e-01
6.000000000000000000e+00,3.000000000000000000e+00,-3.000000000000000000e+00,-3.000000000000000000e+00,8.000000000000000000e+00,3.000000000000000000e+00,-2.000000000000000000e+00,1.000000000000000000e+00,-4.025878906250000000e-01,2.663574218750000000e-01,6.411743164062500000e-01,5.964965820312500000e-01
2.700000000000000000e+01,5.000000000000000000e+00,4.000000000000000000e+00,-6.000000000000000000e+00,-3.000000000000000000e+00,0.000000000000000000e+00,7.000000000000000000e+00,8.000000000000000000e+00,-4.025878906250000000e-01,2.663574218750000000e-01,6.411743164062500000e-01,5.964965820312500000e-01
-2.300000000000000000e+01,-2.000000000000000000e+00,-2.000000000000000000e+00,7.000000000000000000e+00,-2.000000000000000000e+00,-5.000000000000000000e+00,-4.000000000000000000e+00,-5.000000000000000000e+00,-4.030151367187500000e-01,2.659301757812500000e-01,6.409912109375000000e-01,5.966186523437500000e-01
-2.000000000000000000e+00,-1.200000000000000000e+01,0.000000000000000000e+00,-4.000000000000000000e+00,-1.000000000000000000e+00,-1.000000000000000000e+00,-6.000000000000000000e+00,-6.000000000000000000e+00,-4.030151367187500000e-01,2.659301757812500000e-01,6.409912109375000000e-01,5.966186523437500000e-01
1.900000000000000000e+01,1.000000000000000000e+00,-7.000000000000000000e+00,-2.000000000000000000e+00,-1.000000000000000000e+00,0.000000000000000000e+00,-1.000000000000000000e+00,1.000000000000000000e+00,-4.030151367187500000e-01,2.659301757812500000e-01,6.409912109375000000e-01,5.966186523437500000e-01
-1.300000000000000000e+01,1.000000000000000000e+00,2.000000000000000000e+00,-2.000000000000000000e+00,-2.000000000000000000e+00,0.000000000000000000e+00,-2.000000000000000000e+00,-6.000000000000000000e+00,-4.030151367187500000e-01,2.659301757812500000e-01,6.409912109375000000e-01,5.966186523437500000e-01
7.000000000000000000e+00,8.000000000000000000e+00,7.000000000000000000e+00,2.000000000000000000e+00,-2.000000000000000000e+00,-8.000000000000000000e+00,-1.200000000000000000e+01,-1.000000000000000000e+00,-4.039916992187500000e-01,2.645263671875000000e-01,6.411132812500000000e-01,5.964355468750000000e-01
0.000000000000000000e+00,-8.000000000000000000e+00,-1.300000000000000000e+01,0.000000000000000000e+00,0.000000000000000000e+00,-3.000000000000000000e+00,-4.000000000000000000e+00,0.000000000000000000e+00,-4.039916992187500000e-01,2.645263671875000000e-01,6.411132812500000000e-01,5.964355468750000000e-01
-1.900000000000000000e+01,0.000000000000000000e+00,4.000000000000000000e+00,4.000000000000000000e+00,0.000000000000000000e+00,-2.000000000000000000e+00,-2.000000000000000000e+00,-9.000000000000000000e+00,-4.039916992187500000e-01,2.645263671875000000e-01,6.411132812500000000e-01,5.964355468750000000e-01
6.000000000000000000e+00,1.000000000000000000e+00,-2.000000000000000000e+00,-1.000000000000000000e+00,1.000000000000000000e+00,-2.000000000000000000e+00,4.000000000000000000e+00,2.000000000000000000e+00,-4.039916992187500000e-01,2.645263671875000000e-01,6.411132812500000000e-01,5.964355468750000000e-01
3.000000000000000000e+00,-8.000000000000000000e+00,-1.000000000000000000e+00,-2.000000000000000000e+00,-1.000000000000000000e+00,-3.000000000000000000e+00,-1.000000000000000000e+00,-2.000000000000000000e+00,-4.051513671875000000e-01,2.628173828125000000e-01,6.414184570312500000e-01,5.960693359375000000e-01
-8.000000000000000000e+00,-1.000000000000000000e+00,3.000000000000000000e+00,-7.000000000000000000e+00,-3.000000000000000000e+00,0.000000000000000000e+00,0.000000000000000000e+00,-3.000000000000000000e+00,-4.051513671875000000e-01,2.628173828125000000e-01,6.414184570312500000e-01,5.960693359375000000e-01
-2.000000000000000000e+00,-3.000000000000000000e+00,-5.000000000000000000e+00,-8.000000000000000000e+00,-7.000000000000000000e+00,-4.000000000000000000e+00,-8.000000000000000000e+00,-3.000000000000000000e+00,-4.051513671875000000e-01,2.628173828125000000e-01,6.414184570312500000e-01,5.960693359375000000e-01
2.000000000000000000e+00,7.000000000000000000e+00,1.000000000000000000e+00,-2.000000000000000000e+00,3.000000000000000000e+00,0.000000000000000000e+00,3.000000000000000000e+00,0.000000000000000000e+00,-4.051513671875000000e-01,2.628173828125000000e-01,6.414184570312500000e-01,5.960693359375000000e-01
0.000000000000000000e+00,-1.000000000000000000e+00,-2.000000000000000000e+00,6.000000000000000000e+00,5.000000000000000000e+00,-1.000000000000000000e+00,3.000000000000000000e+00,1.000000000000000000e+00,-4.060668945312500000e-01,2.619018554687500000e-01,6.416015625000000000e-01,5.957031250000000000e-01
8.000000000000000000e+00,1.000000000000000000e+00,7.000000000000000000e+00,6.000000000000000000e+00,1.000000000000000000e+00,-2.000000000000000000e+00,-2.000000000000000000e+00,-2.000000000000000000e+00,-4.060668945312500000e-01,2.619018554687500000e-01,6.416015625000000000e-01,5.957031250000000000e-01
-2.400000000000000000e+01,-1.000000000000000000e+00,-1.100000000000000000e+01,-6.000000000000000000e+00,-2.000000000000000000e+00,-1.000000000000000000e+00,-1.000000000000000000e+00,-5.000000000000000000e+00,-4.060668945312500000e-01,2.619018554687500000e-01,6.416015625000000000e-01,5.957031250000000000e-01
2.300000000000000000e+01,0.000000000000000000e+00,4.000000000000000000e+00,3.000000000000000000e+00,3.000000000000000000e+00,1.000000000000000000e+00,2.000000000000000000e+00,7.000000000000000000e+00,-4.060668945312500000e-01,2.619018554687500000e-01,6.416015625000000000e-01,5.957031250000000000e-01
5.000000000000000000e+00,0.000000000000000000e+00,-2.000000000000000000e+00,-1.000000000000000000e+00,-6.000000000000000000e+00,-3.000000000000000000e+00,-2.000000000000000000e+00,2.000000000000000000e+00,-4.063110351562500000e-01,2.619628906250000000e-01,6.414794921875000000e-01,5.955200195312500000e-01
-8.000000000000000000e+00,0.000000000000000000e+00,1.000000000000000000e+00,-4.000000000000000000e+00,2.000000000000000000e+00,2.000000000000000000e+00,-1.000000000000000000e+00,-1.000000000000000000e+00,-4.063110351562500000e-01,2.619628906250000000e-01,6.414794921875000000e-01,5.955200195312500000e-01
9.000000000000000000e+00,0.000000000000000000e+00,1.000000000000000000e+00,5.000000000000000000e+00,-3.000000000000000000e+00,1.000000000000000000e+00,1.000000000000000000e+00,5.000000000000000000e+00,-4.063110351562500000e-01,2.619628906250000000e-01,6.414794921875000000e-01,5.955200195312500000e-01
-1.000000000000000000e+01,-3.000000000000000000e+00,0.000000000000000000e+00,1.000000000000000000e+00,-1.000000000000000000e+00,-7.000000000000000000e+00,-6.000000000000000000e+00,-5.000000000000000000e+00,-4.063110351562500000e-01,2.619628906250000000e-01,6.414794921875000000e-01,5.955200195312500000e-01
-6.000000000000000000e+00,0.000000000000000000e+00,-4.000000000000000000e+00,-7.000000000000000000e+00,-5.000000000000000000e+00,-4.000000000000000000e+00,-2.000000000000000000e+00,-2.000000000000000000e+00,-4.066162109375000000e-01,2.621459960937500000e-01,6.413574218750000000e-01,5.954589843750000000e-01
1.000000000000000000e+01,4.000000000000000000e+00,2.000000000000000000e+00,-1.000000000000000000e+00,-3.000000000000000000e+00,4.000000000000000000e+00,8.000000000000000000e+00,4.000000000000000000e+00,-4.066162109375000000e-01,2.621459960937500000e-01,6.413574218750000000e-01,5.954589843750000000e-01
-4.000000000000000000e+00,-4.000000000000000000e+00,0.000000000000000000e+00,4.000000000000000000e+00,-2.000000000000000000e+00,2.000000000000000000e+00,2.000000000000000000e+00,1.000000000000000000e+00,-4.066162109375000000e-01,2.621459960937500000e-01,6.413574218750000000e-01,5.954589843750000000e-01
-6.000000000000000000e+00,-2.000000000000000000e+00,-5.000000000000000000e+00,2.000000000000000000e+00,1.000000000000000000e+00,0.000000000000000000e+00,-1.000000000000000000e+00,-2.000000000000000000e+00,-4.066162109375000000e-01,2.621459960937500000e-01,6.413574218750000000e-01,5.954589843750000000e-01
-6.000000000000000000e+00,-2.000000000000000000e+00,1.000000000000000000e+00,0.000000000000000000e+00,1.000000000000000000e+00,-1.000000000000000000e+00,-6.000000000000000000e+00,-8.000000000000000000e+00,-4.065551757812500000e-01,2.622070312500000000e-01,6.414184570312500000e-01,5.953979492187500000e-01
3.000000000000000000e+00,4.000000000000000000e+00,1.000000000000000000e+00,-6.000000000000000000e+00,1.000000000000000000e+00,-4.000000000000000000e+00,6.000000000000000000e+00,2.000000000000000000e+00,-4.065551757812500000e-01,2.622070312500000000e-01,6.414184570312500000e-01,5.953979492187500000e-01
9.000000000000000000e+00,-8.000000000000000000e+00,-1.100000000000000000e+01,-4.000000000000000000e+00,-2.000000000000000000e+00,-1.000000000000000000e+00,-3.000000000000000000e+00,-4.000000000000000000e+00,-4.065551757812500000e-01,2.622070312500000000e-01,6.414184570312500000e-01,5.953979492187500000e-01
-1.500000000000000000e+01,-1.000000000000000000e+00,6.000000000000000000e+00,1.000000000000000000e+00,-1.000000000000000000e+00,-2.000000000000000000e+00,-9.000000000000000000e+00,2.000000000000000000e+00,-4.065551757812500000e-01,2.622070312500000000e-01,6.414184570312500000e-01,5.953979492187500000e-01
4.000000000000000000e+00,1.000000000000000000e+00,2.000000000000000000e+00,0.000000000000000000e+00,-3.000000000000000000e+00,1.100000000000000000e+01,2.100000000000000000e+01,1.000000000000000000e+00,-4.063720703125000000e-01,2.618408203125000000e-01,6.420288085937500000e-01,5.950317382812500000e-01
2.000000000000000000e+00,-2.000000000000000000e+00,-6.000000000000000000e+00,0.000000000000000000e+00,0.000000000000000000e+00,-4.000000000000000000e+00,-2.500000000000000000e+01,-1.000000000000000000e+00,-4.063720703125000000e-01,2.618408203125000000e-01,6.420288085937500000e-01,5.950317382812500000e-01
-6.000000000000000000e+00,-1.000000000000000000e+00,3.000000000000000000e+00,-6.000000000000000000e+00,-1.000000000000000000e+00,-5.000000000000000000e+00,2.000000000000000000e+00,-1.000000000000000000e+00,-4.063720703125000000e-01,2.618408203125000000e-01,6.420288085937500000e-01,5.950317382812500000e-01
-2.000000000000000000e+00,-3.000000000000000000e+00,4.000000000000000000e+00,6.000000000000000000e+00,6.000000000000000000e+00,2.000000000000000000e+00,-3.000000000000000000e+00,-5.000000000000000000e+00,-4.063720703125000000e-01,2.618408203125000000e-01,6.420288085937500000e-01,5.950317382812500000e-01
1.000000000000000000e+00,-4.000000000000000000e+00,-6.000000000000000000e+00,-1.000000000000000000e+01,-7.000000000000000000e+00,-5.000000000000000000e+00,-3.000000000000000000e+00,1.000000000000000000e+00,-4.063110351562500000e-01,2.611083984375000000e-01,6.427612304687500000e-01,5.946044921875000000e-01
-3.000000000000000000e+00,1.000000000000000000e+00,1.000000000000000000e+00,0.000000000000000000e+00,-3.000000000000000000e+00,-1.000000000000000000e+00,2.000000000000000000e+00,-5.000000000000000000e+00,-4.063110351562500000e-01,2.611083984375000000e-01,6.427612304687500000e-01,5.946044921875000000e-01
8.000000000000000000e+00,6.000000000000000000e+00,3.000000000000000000e+00,4.000000000000000000e+00,7.000000000000000000e+00,2.000000000000000000e+00,4.000000000000000000e+00,3.000000000000000000e+00,-4.063110351562500000e-01,2.611083984375000000e-01,6.427612304687500000e-01,5.946044921875000000e-01
-2.700000000000000000e+01,-3.000000000000000000e+00,-4.000000000000000000e+00,-1.000000000000000000e+00,-7.000000000000000000e+00,-7.000000000000000000e+00,-1.300000000000000000e+01,-1.300000000000000000e+01,-4.063110351562500000e-01,2.611083984375000000e-01,6.427612304687500000e-01,5.946044921875000000e-01
4.400000000000000000e+01,5.000000000000000000e+00,2.000000000000000000e+00,-8.000000000000000000e+00,-3.000000000000000000e+00,5.000000000000000000e+00,1.900000000000000000e+01,2.300000000000000000e+01,-4.060058593750000000e-01,2.609252929687500000e-01,6.430664062500000000e-01,5.945434570312500000e-01
7.000000000000000000e+00,-2.000000000000000000e+00,-1.000000000000000000e+00,6.000000000000000000e+00,0.000000000000000000e+00,-6.000000000000000000e+00,-1.300000000000000000e+01,-4.000000000000000000e+00,-4.060058593750000000e-01,2.609252929687500000e-01,6.430664062500000000e-01,5.945434570312500000e-01
4.000000000000000000e+00,-1.000000000000000000e+00,-2.000000000000000000e+00,-5.000000000000000000e+00,-4.000000000000000000e+00,0.000000000000000000e+00,1.000000000000000000e+00,1.000000000000000000e+00,-4.060058593750000000e-01,2.609252929687500000e-01,6.430664062500000000e-01,5.945434570312500000e-01
1.000000000000000000e+00,-2.000000000000000000e+00,4.000000000000000000e+00,-1.000000000000000000e+00,-1.000000000000000000e+00,3.000000000000000000e+00,8.000000000000000000e+00,0.000000000000000000e+00,-4.060058593750000000e-01,2.609252929687500000e-01,6.430664062500000000e-01,5.945434570312500000e-01
-2.500000000000000000e+01,-3.000000000000000000e+00,2.000000000000000000e+00,2.000000000000000000e+00,-1.000000000000000000e+00,-3.000000000000000000e+00,-1.000000000000000000e+01,-6.000000000000000000e+00,-4.051513671875000000e-01,2.611083984375000000e-01,6.430664062500000000e-01,5.950317382812500000e-01
-1.600000000000000000e+01,-5.000000000000000000e+00,0.000000000000000000e+00,-6.000000000000000000e+00,-1.000000000000000000e+00,2.000000000000000000e+00,9.000000000000000000e+00,-3.000000000000000000e+00,-4.051513671875000000e-01,2.611083984375000000e-01,6.430664062500000000e-01,5.950317382812500000e-01
5.000000000000000000e+00,2.000000000000000000e+00,2.000000000000000000e+00,1.000000000000000000e+00,0.000000000000000000e+00,0.000000000000000000e+00,1.000000000000000000e+00,-2.000000000000000000e+00,-4.051513671875000000e-01,2.611083984375000000e-01,6.430664062500000000e-01,5.950317382812500000e-01
-3.000000000000000000e+00,1.000000000000000000e+00,-3.000000000000000000e+00,-6.000000000000000000e+00,-5.000000000000000000e+00,-1.000000000000000000e+00,-4.000000000000000000e+00,0.000000000000000000e+00,-4.051513671875000000e-01,2.611083984375000000e-01,6.430664062500000000e-01,5.950317382812500000e-01
2.000000000000000000e+00,-3.000000000000000000e+00,-3.000000000000000000e+00,6.000000000000000000e+00,0.000000000000000000e+00,-1.000000000000000000e+00,-2.000000000000000000e+00,-3.000000000000000000e+00,-4.046630859375000000e-01,2.611694335937500000e-01,6.429443359375000000e-01,5.954589843750000000e-01
3.100000000000000000e+01,3.000000000000000000e+00,-6.000000000000000000e+00,-3.000000000000000000e+00,2.000000000000000000e+00,1.000000000000000000e+00,1.000000000000000000e+00,7.000000000000000000e+00,-4.046630859375000000e-01,2.611694335937500000e-01,6.429443359375000000e-01,5.954589843750000000e-01
-3.200000000000000000e+01,2.000000000000000000e+00,5.000000000000000000e+00,-6.000000000000000000e+00,1.000000000000000000e+00,-3.000000000000000000e+00,-8.000000000000000000e+00,-1.000000000000000000e+01,-4.046630859375000000e-01,2.611694335937500000e-01,6.429443359375000000e-01,5.954589843750000000e-01
0.000000000000000000e+00,-1.000000000000000000e+00,-6.000000000000000000e+00,-3.000000000000000000e+00,2.000000000000000000e+00,3.000000000000000000e+00,5.000000000000000000e+00,-2.000000000000000000e+00,-4.046630859375000000e-01,2.611694335937500000e-01,6.429443359375000000e-01,5.954589843750000000e-01
-6.000000000000000000e+00,-4.000000000000000000e+00,-1.000000000000000000e+00,1.000000000000000000e+01,0.000000000000000000e+00,-4.000000000000000000e+00,-9.000000000000000000e+00,-7.000000000000000000e+00,-4.041748046875000000e-01,2.612304687500000000e-01,6.430053710937500000e-01,5.957031250000000000e-01
-3.000000000000000000e+00,1.000000000000000000e+00,-5.000000000000000000e+00,-3.000000000000000000e+00,-1.000000000000000000e+00,-1.000000000000000000e+00,1.000000000000000000e+00,0.000000000000000000e+00,-4.041748046875000000e-01,2.612304687500000000e-01,6.430053710937500000e-01,5.957031250000000000e-01
-2.000000000000000000e+00,-2.000000000000000000e+00,-1.000000000000000000e+00,-1.000000000000000000e+00,-2.000000000000000000e+00,3.000000000000000000e+00,0.000000000000000000e+00,-3.000000000000000000e+00,-4.041748046875000000e-01,2.612304687500000000e-01,6.430053710937500000e-01,5.957031250000000000e-01
1.200000000000000000e+01,-5.000000000000000000e+00,-1.800000000000000000e+01,-9.000000000000000000e+00,-9.000000000000000000e+00,-4.000000000000000000e+00,3.000000000000000000e+00,7.000000000000000000e+00,-4.041748046875000000e-01,2.612304687500000000e-01,6.430053710937500000e-01,5.957031250000000000e-01
-1.000000000000000000e+01,2.000000000000000000e+00,-9.000000000000000000e+00,2.000000000000000000e+00,1.000000000000000000e+01,-1.000000000000000000e+00,1.000000000000000000e+00,-2.000000000000000000e+00,-4.043579101562500000e-01,2.608032226562500000e-01,6.433715820312500000e-01,5.953369140625000000e-01
-4.800000000000000000e+01,-1.500000000000000000e+01,-1.000000000000000000e+00,3.000000000000000000e+00,-2.000000000000000000e+00,-2.000000000000000000e+00,-3.000000000000000000e+00,-1.100000000000000000e+01,-4.043579101562500000e-01,2.608032226562500000e-01,6.433715820312500000e-01,5.953369140625000000e-01
4.700000000000000000e+01,-9.000000000000000000e+00,-8.000000000000000000e+00,-1.000000000000000000e+00,-5.000000000000000000e+00,-6.000000000000000000e+00,-1.000000000000000000e+00,1.300000000000000000e+01,-4.043579101562500000e-01,2.608032226562500000e-01,6.433715820312500000e-01,5.953369140625000000e-01
-8.000000000000000000e+00,4.000000000000000000e+00,6.000000000000000000e+00,-1.000000000000000000e+01,-3.000000000000000000e+00,2.000000000000000000e+00,-2.000000000000000000e+00,-7.000000000000000000e+00,-4.043579101562500000e-01,2.608032226562500000e-01,6.433715820312500000e-01,5.953369140625000000e-01
8.000000000000000000e+00,5.000000000000000000e+00,-6.000000000000000000e+00,2.000000000000000000e+00,0.000000000000000000e+00,-7.000000000000000000e+00,-6.000000000000000000e+00,-6.000000000000000000e+00,-4.046630859375000000e-01,2.603759765625000000e-01,6.434326171875000000e-01,5.952148437500000000e-01
-2.000000000000000000e+00,8.000000000000000000e+00,1.200000000000000000e+01,-3.000000000000000000e+00,-4.000000000000000000e+00,6.000000000000000000e+00,5.000000000000000000e+00,3.000000000000000000e+00,-4.046630859375000000e-01,2.603759765625000000e-01,6.434326171875000000e-01,5.952148437500000000e-01
3.000000000000000000e+00,-4.000000000000000000e+00,-6.000000000000000000e+00,1.000000000000000000e+00,-4.000000000000000000e+00,-3.000000000000000000e+00,2.000000000000000000e+00,7.000000000000000000e+00,-4.046630859375000000e-01,2.603759765625000000e-01,6.434326171875000000e-01,5.952148437500000000e-01
-1.200000000000000000e+01,-1.300000000000000000e+01,-3.000000000000000000e+00,-2.000000000000000000e+00,0.000000000000000000e+00,-2.000000000000000000e+00,-3.000000000000000000e+00,-5.000000000000000000e+00,-4.046630859375000000e-01,2.603759765625000000e-01,6.434326171875000000e-01,5.952148437500000000e-01
1.000000000000000000e+00,1.000000000000000000e+00,2.000000000000000000e+00,-4.000000000000000000e+00,-4.000000000000000000e+00,0.000000000000000000e+00,-2.000000000000000000e+00,-1.000000000000000000e+00,-4.050292968750000000e-01,2.600708007812500000e-01,6.431274414062500000e-01,5.954589843750000000e-01
-3.000000000000000000e+00,2.000000000000000000e+00,-1.000000000000000000e+01,0.000000000000000000e+00,2.000000000000000000e+00,-5.000000000000000000e+00,-3.000000000000000000e+00,-6.000000000000000000e+00,-4.050292968750000000e-01,2.600708007812500000e-01,6.431274414062500000e-01,5.954589843750000000e-01
0.000000000000000000e+00,-2.000000000000000000e+00,6.000000000000000000e+00,0.000000000000000000e+00,1.000000000000000000e+00,5.000000000000000000e+00,0.000000000000000000e+00,-1.000000000000000000e+00,-4.050292968750000000e-01,2.600708007812500000e-01,6.431274414062500000e-01,5.954589843750000000e-01
6.000000000000000000e+00,0.000000000000000000e+00,-2.000000000000000000e+00,3.000000000000000000e+00,0.000000000000000000e+00,-2.000000000000000000e+00,0.000000000000000000e+00,1.000000000000000000e+00,-4.050292968750000000e-01,2.600708007812500000e-01,6.431274414062500000e-01,5.954589843750000000e-01
-1.200000000000000000e+01,-5.000000000000000000e+00,-5.000000000000000000e+00,-1.200000000000000000e+01,-7.000000000000000000e+00,-2.000000000000000000e+00,-3.000000000000000000e+00,-1.000000000000000000e+00,-4.057617187500000000e-01,2.597656250000000000e-01,6.424560546875000000e-01,5.958251953125000000e-01
1.700000000000000000e+01,4.000000000000000000e+00,-1.000000000000000000e+00,8.000000000000000000e+00,0.000000000000000000e+00,0.000000000000000000e+00,4.000000000000000000e+00,4.000000000000000000e+00,-4.057617187500000000e-01,2.597656250000000000e-01,6.424560546875000000e-01,5.958251953125000000e-01
-1.800000000000000000e+01,1.000000000000000000e+00,-4.000000000000000000e+00,1.000000000000000000e+00,2.000000000000000000e+00,-2.000000000000000000e+00,-6.000000000000000000e+00,-8.000000000000000000e+00,-4.057617187500000000e-01,2.597656250000000000e-01,6.424560546875000000e-01,5.958251953125000000e-01
3.000000000000000000e+00,1.000000000000000000e+00,-2.000000000000000000e+00,1.000000000000000000e+00,5.000000000000000000e+00,4.000000000000000000e+00,3.000000000000000000e+00,3.000000000000000000e+00,-4.057617187500000000e-01,2.597656250000000000e-01,6.424560546875000000e-01,5.958251953125000000e-01
0.000000000000000000e+00,-7.000000000000000000e+00,-1.000000000000000000e+00,-2.000000000000000000e+00,0.000000000000000000e+00,-7.000000000000000000e+00,0.000000000000000000e+00,-2.000000000000000000e+00,-4.063720703125000000e-01,2.596435546875000000e-01,6.415405273437500000e-01,5.964965820312500000e-01
1.000000000000000000e+01,0.000000000000000000e+00,1.700000000000000000e+01,0.000000000000000000e+00,-2.000000000000000000e+00,2.000000000000000000e+00,4.000000000000000000e+00,8.000000000000000000e+00,-4.063720703125000000e-01,2.596435546875000000e-01,6.415405273437500000e-01,5.964965820312500000e-01
-4.000000000000000000e+00,2.000000000000000000e+00,-9.000000000000000000e+00,-4.000000000000000000e+00,1.000000000000000000e+00,-2.000000000000000000e+00,-2.000000000000000000e+00,-4.000000000000000000e+00,-4.063720703125000000e-01,2.596435546875000000e-01,6.415405273437500000e-01,5.964965820312500000e-01
-3.400000000000000000e+01,-6.000000000000000000e+00,6.000000000000000000e+00,7.000000000000000000e+00,-5.000000000000000000e+00,-6.000000000000000000e+00,-7.000000000000000000e+00,-9.000000000000000000e+00,-4.063720703125000000e-01,2.596435546875000000e-01,6.415405273437500000e-01,5.964965820312500000e-01
2.800000000000000000e+01,4.000000000000000000e+00,5.000000000000000000e+00,1.000000000000000000e+00,-1.000000000000000000e+00,-2.000000000000000000e+00,3.000000000000000000e+00,6.000000000000000000e+00,-4.069824218750000000e-01,2.592163085937500000e-01,6.407470703125000000e-01,5.971069335937500000e-01
5.000000000000000000e+00,-2.000000000000000000e+00,-9.000000000000000000e+00,-6.000000000000000000e+00,-1.000000000000000000e+00,-1.000000000000000000e+00,-2.000000000000000000e+00,-1.000000000000000000e+00,-4.069824218750000000e-01,2.592163085937500000e-01,6.407470703125000000e-01,5.971069335937500000e-01
-1.700000000000000000e+01,1.000000000000000000e+00,6.000000000000000000e+00,2.000000000000000000e+00,2.000000000000000000e+00,0.000000000000000000e+00,0.000000000000000000e+00,-6.000000000000000000e+00,-4.069824218750000000e-01,2.592163085937500000e-01,6.407470703125000000e-01,5.971069335937500000e-01
2.000000000000000000e+01,4.000000000000000000e+00,-1.000000000000000000e+00,-2.000000000000000000e+00,0.000000000000000000e+00,-1.000000000000000000e+00,2.000000000000000000e+00,1.000000000000000000e+01,-4.069824218750000000e-01,2.592163085937500000e-01,6.407470703125000000e-01,5.971069335937500000e-01
-2.200000000000000000e+01,-6.000000000000000000e+00,2.000000000000000000e+00,2.000000000000000000e+00,-2.000000000000000000e+00,1.000000000000000000e+00,-5.000000000000000000e+00,-1.100000000000000000e+01,-4.075927734375000000e-01,2.583007812500000000e-01,6.403198242187500000e-01,5.975952148437500000e-01
-5.000000000000000000e+00,5.000000000000000000e+00,-3.000000000000000000e+00,-6.000000000000000000e+00,-1.000000000000000000e+00,0.000000000000000000e+00,-1.000000000000000000e+00,-1.000000000000000000e+00,-4.075927734375000000e-01,2.583007812500000000e-01,6.403198242187500000e-01,5.975952148437500000e-01
1.200000000000000000e+01,1.000000000000000000e+00,-2.000000000000000000e+00,3.000000000000000000e+00,1.000000000000000000e+00,1.000000000000000000e+00,0.000000000000000000e+00,4.000000000000000000e+00,-4.075927734375000000e-01,2.583007812500000000e-01,6.403198242187500000e-01,5.975952148437500000e-01
-2.500000000000000000e+01,-2.000000000000000000e+01,-5.000000000000000000e+00,-9.000000000000000000e+00,-5.000000000000000000e+00,-4.000000000000000000e+00,-7.000000000000000000e+00,-8.000000000000000000e+00,-4.075927734375000000e-01,2.583007812500000000e-01,6.403198242187500000e-01,5.975952148437500000e-01
6.000000000000000000e+00,4.000000000000000000e+00,6.000000000000000000e+00,6.000000000000000000e+00,3.000000000000000000e+00,1.000000000000000000e+00,-1.000000000000000000e+00,2.000000000000000000e+00,-4.080200195312500000e-01,2.568969726562500000e-01,6.400756835937500000e-01,5.981445312500000000e-01
1.100000000000000000e+01,-3.000000000000000000e+00,-1.000000000000000000e+00,-9.000000000000000000e+00,-3.000000000000000000e+00,1.000000000000000000e+00,-3.000000000000000000e+00,-4.000000000000000000e+00,-4.080200195312500000e-01,2.568969726562500000e-01,6.400756835937500000e-01,5.981445312500000000e-01
-2.700000000000000000e+01,-3.000000000000000000e+00,6.000000000000000000e+00,6.000000000000000000e+00,7.000000000000000000e+00,-1.000000000000000000e+00,0.000000000000000000e+00,-3.000000000000000000e+00,-4.080200195312500000e-01,2.568969726562500000e-01,6.400756835937500000e-01,5.981445312500000000e-01
2.100000000000000000e+01,2.000000000000000000e+00,0.000000000000000000e+00,0.000000000000000000e+00,-2.000000000000000000e+00,-2.000000000000000000e+00,-6.000000000000000000e+00,-7.000000000000000000e+00,-4.080200195312500000e-01,2.568969726562500000e-01,6.400756835937500000e-01,5.981445312500000000e-01
5.000000000000000000e+00,1.000000000000000000e+00,0.000000000000000000e+00,-1.000000000000000000e+01,-6.000000000000000000e+00,3.000000000000000000e+00,6.000000000000000000e+00,1.100000000000000000e+01,-4.075927734375000000e-01,2.553710937500000000e-01,6.401367187500000000e-01,5.989990234375000000e-01
3.000000000000000000e+00,1.000000000000000000e+00,7.000000000000000000e+00,-9.000000000000000000e+00,-2.000000000000000000e+00,3.000000000000000000e+00,0.000000000000000000e+00,2.000000000000000000e+00,-4.075927734375000000e-01,2.553710937500000000e-01,6.401367187500000000e-01,5.989990234375000000e-01
-6.000000000000000000e+00,2.000000000000000000e+00,-3.000000000000000000e+00,5.000000000000000000e+00,-4.000000000000000000e+00,1.000000000000000000e+00,-4.000000000000000000e+00,-9.000000000000000000e+00,-4.075927734375000000e-01,2.553710937500000000e-01,6.401367187500000000e-01,5.989990234375000000e-01
4.000000000000000000e+00,2.000000000000000000e+00,1.000000000000000000e+00,3.000000000000000000e+00,-3.000000000000000000e+00,-3.000000000000000000e+00,-3.000000000000000000e+00,-4.000000000000000000e+00,-4.075927734375000000e-01,2.553710937500000000e-01,6.401367187500000000e-01,5.989990234375000000e-01
-2.700000000000000000e+01,-1.700000000000000000e+01,-9.000000000000000000e+00,-1.000000000000000000e+00,1.000000000000000000e+00,-3.000000000000000000e+00,-5.000000000000000000e+00,-1.000000000000000000e+01,-4.066162109375000000e-01,2.540893554687500000e-01,6.405639648437500000e-01,5.997314453125000000e-01
9.000000000000000000e+00,5.000000000000000000e+00,1.000000000000000000e+00,-3.000000000000000000e+00,1.000000000000000000e+00,3.000000000000000000e+00,7.000000000000000000e+00,4.000000000000000000e+00,-4.066162109375000000e-01,2.540893554687500000e-01,6.405639648437500000e-01,5.997314453125000000e-01
7.000000000000000000e+00,2.000000000000000000e+00,5.000000000000000000e+00,-5.000000000000000000e+00,-7.000000000000000000e+00,-4.000000000000000000e+00,2.000000000000000000e+00,6.000000000000000000e+00,-4.066162109375000000e-01,2.540893554687500000e-01,6.405639648437500000e-01,5.997314453125000000e-01
6.000000000000000000e+00,7.000000000000000000e+00,5.000000000000000000e+00,2.000000000000000000e+00,2.000000000000000000e+00,-2.000000000000000000e+00,-5.000000000000000000e+00,-3.000000000000000000e+00,-4.066162109375000000e-01,2.540893554687500000e-01,6.405639648437500000e-01,5.997314453125000000e-01
-3.000000000000000000e+00,-2.000000000000000000e+00,-1.000000000000000000e+01,-1.000000000000000000e+00,0.000000000000000000e+00,4.000000000000000000e+00,1.000000000000000000e+00,1.000000000000000000e+00,-4.055175781250000000e-01,2.532348632812500000e-01,6.412963867187500000e-01,6.000976562500000000e-01
7.000000000000000000e+00,-2.000000000000000000e+00,-1.000000000000000000e+00,2.000000000000000000e+00,-1.000000000000000000e+00,-4.000000000000000000e+00,-2.000000000000000000e+00,2.000000000000000000e+00,-4.055175781250000000e-01,2.532348632812500000e-01,6.412963867187500000e-01,6.000976562500000000e-01
-7.000000000000000000e+00,-6.000000000000000000e+00,-3.000000000000000000e+00,-7.000000000000000000e+00,-6.000000000000000000e+00,-3.000000000000000000e+00,-6.000000000000000000e+00,-4.000000000000000000e+00,-4.055175781250000000e-01,2.532348632812500000e-01,6.412963867187500000e-01,6.000976562500000000e-01
-1.000000000000000000e+01,5.000000000000000000e+00,-5.000000000000000000e+00,6.000000000000000000e+00,-3.000000000000000000e+00,-4.000000000000000000e+00,-3.000000000000000000e+00,0.000000000000000000e+00,-4.055175781250000000e-01,2.532348632812500000e-01,6.412963867187500000e-01,6.000976562500000000e-01
1.200000000000000000e+01,1.000000000000000000e+00,1.400000000000000000e+01,-3.000000000000000000e+00,4.000000000000000000e+00,1.000000000000000000e+00,0.000000000000000000e+00,-2.000000000000000000e+00,-4.041137695312500000e-01,2.525634765625000000e-01,6.418457031250000000e-01,6.007080078125000000e-01
-1.600000000000000000e+01,-2.000000000000000000e+00,-9.000000000000000000e+00,6.000000000000000000e+00,-1.000000000000000000e+00,-4.000000000000000000e+00,-3.000000000000000000e+00,-3.000000000000000000e+00,-4.041137695312500000e-01,2.525634765625000000e-01,6.418457031250000000e-01,6.007080078125000000e-01
1.600000000000000000e+01,-1.000000000000000000e+00,-6.000000000000000000e+00,-6.000000000000000000e+00,-5.000000000000000000e+00,1.000000000000000000e+00,1.000000000000000000e+00,3.000000000000000000e+00,-4.041137695312500000e-01,2.525634765625000000e-01,6.418457031250000000e-01,6.007080078125000000e-01
-1.300000000000000000e+01,-6.000000000000000000e+00,4.000000000000000000e+00,-5.000000000000000000e+00,0.000000000000000000e+00,2.000000000000000000e+00,5.000000000000000000e+00,1.000000000000000000e+00,-4.041137695312500000e-01,2.525634765625000000e-01,6.418457031250000000e-01,6.007080078125000000e-01
2.000000000000000000e+00,0.000000000000000000e+00,-1.000000000000000000e+00,4.000000000000000000e+00,0.000000000000000000e+00,-5.000000000000000000e+00,-5.000000000000000000e+00,-8.000000000000000000e+00,-4.023437500000000000e-01,2.523193359375000000e-01,6.422119140625000000e-01,6.016845703125000000e-01
1.400000000000000000e+01,-1.100000000000000000e+01,3.000000000000000000e+00,-1.000000000000000000e+00,0.000000000000000000e+00,4.000000000000000000e+00,3.000000000000000000e+00,6.000000000000000000e+00,-4.023437500000000000e-01,2.523193359375000000e-01,6.422119140625000000e-01,6.016845703125000000e-01
-2.200000000000000000e+01,1.100000000000000000e+01,-1.300000000000000000e+01,-4.000000000000000000e+00,-5.000000000000000000e+00,-4.000000000000000000e+00,-8.000000000000000000e+00,-1.000000000000000000e+01,-4.023437500000000000e-01,2.523193359375000000e-01,6.422119140625000000e-01,6.016845703125000000e-01
5.500000000000000000e+01,-9.000000000000000000e+00,-1.000000000000000000e+00,-6.000000000000000000e+00,-2.000000000000000000e+00,4.000000000000000000e+00,1.200000000000000000e+01,2.500000000000000000e+01,-4.023437500000000000e-01,2.523193359375000000e-01,6.422119140625000000e-01,6.016845703125000000e-01
-3.500000000000000000e+01,-6.000000000000000000e+00,3.000000000000000000e+00,0.000000000000000000e+00,-4.000000000000000000e+00,-2.000000000000000000e+00,-9.000000000000000000e+00,-1.100000000000000000e+01,-4.004516601562500000e-01,2.529907226562500000e-01,6.426391601562500000e-01,6.021728515625000000e-01
4.000000000000000000e+00,3.000000000000000000e+00,-1.100000000000000000e+01,4.000000000000000000e+00,4.000000000000000000e+00,-2.000000000000000000e+00,1.000000000000000000e+00,-1.000000000000000000e+00,-4.004516601562500000e-01,2.529907226562500000e-01,6.426391601562500000e-01,6.021728515625000000e-01
-6.000000000000000000e+00,-1.000000000000000000e+01,-3.000000000000000000e+00,-6.000000000000000000e+00,2.000000000000000000e+00,-1.000000000000000000e+00,-5.000000000000000000e+00,-6.000000000000000000e+00,-4.004516601562500000e-01,2.529907226562500000e-01,6.426391601562500000e-01,6.021728515625000000e-01
-1.000000000000000000e+01,0.000000000000000000e+00,-1.000000000000000000e+00,-2.000000000000000000e+00,-9.000000000000000000e+00,-4.000000000000000000e+00,-1.000000000000000000e+00,0.000000000000000000e+00,-4.004516601562500000e-01,2.529907226562500000e-01,6.426391601562500000e-01,6.021728515625000000e-01
8.000000000000000000e+00,1.200000000000000000e+01,6.000000000000000000e+00,-1.600000000000000000e+01,0.000000000000000000e+00,2.000000000000000000e+00,3.000000000000000000e+00,2.000000000000000000e+00,-3.994140625000000000e-01,2.528076171875000000e-01,6.430053710937500000e-01,6.024780273437500000e-01
-7.000000000000000000e+00,-5.000000000000000000e+00,1.000000000000000000e+00,1.300000000000000000e+01,5.000000000000000000e+00,1.000000000000000000e+00,-3.000000000000000000e+00,-3.000000000000000000e+00,-3.994140625000000000e-01,2.528076171875000000e-01,6.430053710937500000e-01,6.024780273437500000e-01
4.000000000000000000e+00,-2.000000000000000000e+00,0.000000000000000000e+00,-2.000000000000000000e+00,-6.000000000000000000e+00,-1.000000000000000000e+00,-3.000000000000000000e+00,3.000000000000000000e+00,-3.994140625000000000e-01,2.528076171875000000e-01,6.430053710937500000e-01,6.024780273437500000e-01
-1.200000000000000000e+01,5.000000000000000000e+00,-5.000000000000000000e+00,3.000000000000000000e+00,5.000000000000000000e+00,3.000000000000000000e+00,-2.000000000000000000e+00,-8.000000000000000000e+00,-3.994140625000000000e-01,2.528076171875000000e-01,6.430053710937500000e-01,6.024780273437500000e-01
1.300000000000000000e+01,0.000000000000000000e+00,6.000000000000000000e+00,3.000000000000000000e+00,1.000000000000000000e+00,-4.000000000000000000e+00,0.000000000000000000e+00,7.000000000000000000e+00,-3.988037109375000000e-01,2.523193359375000000e-01,6.430664062500000000e-01,6.030273437500000000e-01
-7.000000000000000000e+00,2.000000000000000000e+00,-4.000000000000000000e+00,-1.000000000000000000e+01,-3.000000000000000000e+00,-6.000000000000000000e+00,-5.000000000000000000e+00,-5.000000000000000000e+00,-3.988037109375000000e-01,2.523193359375000000e-01,6.430664062500000000e-01,6.030273437500000000e-01
-5.000000000000000000e+00,-5.000000000000000000e+00,8.000000000000000000e+00,5.000000000000000000e+00,1.000000000000000000e+00,0.000000000000000000e+00,1.000000000000000000e+00,-2.000000000000000000e+00,-3.988037109375000000e-01,2.523193359375000000e-01,6.430664062500000000e-01,6.030273437500000000e-01
-2.900000000000000000e+01,4.000000000000000000e+00,-3.000000000000000000e+00,5.000000000000000000e+00,4.000000000000000000e+00,0.000000000000000000e+00,-2.000000000000000000e+00,-6.000000000000000000e+00,-3.988037109375000000e-01,2.523193359375000000e-01,6.430664062500000000e-01,6.030273437500000000e-01
2.800000000000000000e+01,-8.000000000000000000e+00,-3.000000000000000000e+00,-4.000000000000000000e+00,-3.000000000000000000e+00,0.000000000000000000e+00,4.000000000000000000e+00,9.000000000000000000e+00,-3.989868164062500000e-01,2.520141601562500000e-01,6.425781250000000000e-01,6.036376953125000000e-01
-6.000000000000000000e+00,-3.000000000000000000e+00,-5.000000000000000000e+00,6.000000000000000000e+00,3.000000000000000000e+00,1.000000000000000000e+00,2.000000000000000000e+00,1.000000000000000000e+00,-3.989868164062500000e-01,2.520141601562500000e-01,6.425781250000000000e-01,6.036376953125000000e-01
2.700000000000000000e+01,-5.000000000000000000e+00,8.000000000000000000e+00,-1.200000000000000000e+01,-1.000000000000000000e+00,2.000000000000000000e+00,4.000000000000000000e+00,1.200000000000000000e+01,-3.989868164062500000e-01,2.520141601562500000e-01,6.425781250000000000e-01,6.036376953125000000e-01
-1.500000000000000000e+01,2.000000000000000000e+00,-2.000000000000000000e+00,-2.000000000000000000e+00,0.000000000000000000e+00,-2.000000000000000000e+00,-4.000000000000000000e+00,-1.100000000000000000e+01,-3.989868164062500000e-01,2.520141601562500000e-01,6.425781250000000000e-01,6.036376953125000000e-01
-6.000000000000000000e+00,4.000000000000000000e+00,-6.000000000000000000e+00,6.000000000000000000e+00,4.000000000000000000e+00,3.000000000000000000e+00,0.000000000000000000e+00,0.000000000000000000e+00,-3.994750976562500000e-01,2.515869140625000000e-01,6.416625976562500000e-01,6.043701171875000000e-01
-1.900000000000000000e+01,-6.000000000000000000e+00,-7.000000000000000000e+00,-2.000000000000000000e+00,-8.000000000000000000e+00,-6.000000000000000000e+00,-7.000000000000000000e+00,-1.000000000000000000e+01,-3.994750976562500000e-01,2.515869140625000000e-01,6.416625976562500000e-01,6.043701171875000000e-01
1.200000000000000000e+01,7.000000000000000000e+00,-2.000000000000000000e+00,4.000000000000000000e+00,1.000000000000000000e+00,-3.000000000000000000e+00,0.000000000000000000e+00,0.000000000000000000e+00,-3.994750976562500000e-01,2.515869140625000000e-01,6.416625976562500000e-01,6.043701171875000000e-01
4.000000000000000000e+00,-1.200000000000000000e+01,5.000000000000000000e+00,1.000000000000000000e+00,-2.000000000000000000e+00,-1.000000000000000000e+00,0.000000000000000000e+00,-1.000000000000000000e+00,-3.994750976562500000e-01,2.515869140625000000e-01,6.416625976562500000e-01,6.043701171875000000e-01
-1.400000000000000000e+01,-2.000000000000000000e+00,-1.100000000000000000e+01,2.000000000000000000e+00,3.000000000000000000e+00,0.000000000000000000e+00,-5.000000000000000000e+00,-6.000000000000000000e+00,-3.997192382812500000e-01,2.515258789062500000e-01,6.406250000000000000e-01,6.053466796875000000e-01
1.500000000000000000e+01,4.000000000000000000e+00,2.000000000000000000e+00,-6.000000000000000000e+00,-7.000000000000000000e+00,-6.000000000000000000e+00,0.000000000000000000e+00,2.000000000000000000e+00,-3.997192382812500000e-01,2.515258789062500000e-01,6.406250000000000000e-01,6.053466796875000000e-01
-6.000000000000000000e+00,0.000000000000000000e+00,-4.000000000000000000e+00,1.000000000000000000e+00,-3.000000000000000000e+00,-2.000000000000000000e+00,3.000000000000000000e+00,-1.000000000000000000e+00,-3.997192382812500000e-01,2.515258789062500000e-01,6.406250000000000000e-01,6.053466796875000000e-01
5.000000000000000000e+00,-1.000000000000000000e+00,-7.000000000000000000e+00,-3.000000000000000000e+00,-2.000000000000000000e+00,-5.000000000000000000e+00,-3.000000000000000000e+00,-2.000000000000000000e+00,-3.997192382812500000e-01,2.515258789062500000e-01,6.406250000000000000e-01,6.053466796875000000e-01
-6.000000000000000000e+00,1.000000000000000000e+00,1.000000000000000000e+00,-5.000000000000000000e+00,-8.000000000000000000e+00,-7.000000000000000000e+00,-5.000000000000000000e+00,-2.000000000000000000e+00,-4.000854492187500000e-01,2.516479492187500000e-01,6.397705078125000000e-01,6.060180664062500000e-01
-4.000000000000000000e+00,-4.000000000000000000e+00,1.000000000000000000e+00,7.000000000000000000e+00,9.000000000000000000e+00,1.000000000000000000e+00,-2.000000000000000000e+00,-9.000000000000000000e+00,-4.000854492187500000e-01,2.516479492187500000e-01,6.397705078125000000e-01,6.060180664062500000e-01
-5.000000000000000000e+00,-3.000000000000000000e+00,3.000000000000000000e+00,-1.000000000000000000e+00,-3.000000000000000000e+00,2.000000000000000000e+00,-2.000000000000000000e+00,1.000000000000000000e+01,-4.000854492187500000e-01,2.516479492187500000e-01,6.397705078125000000e-01,6.060180664062500000e-01
4.000000000000000000e+00,-2.000000000000000000e+00,-4.000000000000000000e+00,4.000000000000000000e+00,3.000000000000000000e+00,0.000000000000000000e+00,-1.000000000000000000e+00,-1.000000000000000000e+00,-4.000854492187500000e-01,2.516479492187500000e-01,6.397705078125000000e-01,6.060180664062500000e-01
-3.000000000000000000e+00,-3.000000000000000000e+00,-1.000000000000000000e+00,-7.000000000000000000e+00,-1.000000000000000000e+00,1.000000000000000000e+00,-8.000000000000000000e+00,-1.000000000000000000e+01,-4.006958007812500000e-01,2.514648437500000000e-01,6.390991210937500000e-01,6.063842773437500000e-01
-1.800000000000000000e+01,-4.000000000000000000e+00,-1.000000000000000000e+00,-6.000000000000000000e+00,-6.000000000000000000e+00,-4.000000000000000000e+00,6.000000000000000000e+00,1.500000000000000000e+01,-4.006958007812500000e-01,2.514648437500000000e-01,6.390991210937500000e-01,6.063842773437500000e-01
1.200000000000000000e+01,-2.000000000000000000e+00,-2.000000000000000000e+00,0.000000000000000000e+00,3.000000000000000000e+00,5.000000000000000000e+00,3.000000000000000000e+00,-1.000000000000000000e+01,-4.014892578125000000e-01,2.511596679687500000e-01,6.382446289062500000e-01,6.068725585937500000e-01
9.000000000000000000e+00,-2.000000000000000000e+00,1.000000000000000000e+00,3.000000000000000000e+00,6.000000000000000000e+00,-1.000000000000000000e+00,-1.000000000000000000e+00,5.000000000000000000e+00,-4.014892578125000000e-01,2.511596679687500000e-01,6.382446289062500000e-01,6.068725585937500000e-01
-3.000000000000000000e+00,4.000000000000000000e+00,-7.000000000000000000e+00,5.000000000000000000e+00,-4.000000000000000000e+00,3.000000000000000000e+00,2.000000000000000000e+00,1.000000000000000000e+00,-4.014892578125000000e-01,2.511596679687500000e-01,6.382446289062500000e-01,6.068725585937500000e-01
-1.400000000000000000e+01,-1.100000000000000000e+01,1.000000000000000000e+00,-2.000000000000000000e+00,1.000000000000000000e+00,0.000000000000000000e+00,-3.000000000000000000e+00,-1.000000000000000000e+01,-4.014892578125000000e-01,2.511596679687500000e-01,6.382446289062500000e-01,6.068725585937500000e-01
-1.000000000000000000e+00,-3.000000000000000000e+00,-6.000000000000000000e+00,-3.000000000000000000e+00,4.000000000000000000e+00,-3.000000000000000000e+00,4.000000000000000000e+00,1.900000000000000000e+01,-4.017944335937500000e-01,2.509155273437500000e-01,6.374511718750000000e-01,6.076049804687500000e-01
-1.200000000000000000e+01,-1.000000000000000000e+00,2.000000000000000000e+00,-1.000000000000000000e+00,-2.000000000000000000e+00,3.000000000000000000e+00,-2.000000000000000000e+00,-1.300000000000000000e+01,-4.017944335937500000e-01,2.509155273437500000e-01,6.374511718750000000e-01,6.076049804687500000e-01
2.300000000000000000e+01,7.000000000000000000e+00,2.000000000000000000e+00,8.000000000000000000e+00,-1.000000000000000000e+00,0.000000000000000000e+00,4.000000000000000000e+00,1.200000000000000000e+01,-4.017944335937500000e-01,2.509155273437500000e-01,6.374511718750000000e-01,6.076049804687500000e-01
-6.000000000000000000e+00,-1.000000000000000000e+00,0.000000000000000000e+00,2.000000000000000000e+00,3.000000000000000000e+00,2.000000000000000000e+00,-1.100000000000000000e+01,-1.700000000000000000e+01,-4.017944335937500000e-01,2.509155273437500000e-01,6.374511718750000000e-01,6.076049804687500000e-01
-6.000000000000000000e+00,-3.000000000000000000e+00,-5.000000000000000000e+00,-5.000000000000000000e+00,-4.000000000000000000e+00,-2.000000000000000000e+00,4.000000000000000000e+00,1.000000000000000000e+01,-4.017333984375000000e-01,2.508544921875000000e-01,6.372680664062500000e-01,6.078491210937500000e-01
1.200000000000000000e+01,2.000000000000000000e+00,-1.800000000000000000e+01,-1.200000000000000000e+01,-1.000000000000000000e+00,3.000000000000000000e+00,1.000000000000000000e+00,0.000000000000000000e+00,-4.017333984375000000e-01,2.508544921875000000e-01,6.372680664062500000e-01,6.078491210937500000e-01
6.000000000000000000e+00,-4.000000000000000000e+00,-1.000000000000000000e+00,5.000000000000000000e+00,4.000000000000000000e+00,-6.000000000000000000e+00,-1.000000000000000000e+00,0.000000000000000000e+00,-4.017333984375000000e-01,2.508544921875000000e-01,6.372680664062500000e-01,6.078491210937500000e-01
5.000000000000000000e+00,-3.000000000000000000e+00,0.000000000000000000e+00,-2.000000000000000000e+00,-6.000000000000000000e+00,-2.000000000000000000e+00,-1.000000000000000000e+00,-1.000000000000000000e+00,-4.017333984375000000e-01,2.508544921875000000e-01,6.372680664062500000e-01,6.078491210937500000e-01
-2.100000000000000000e+01,-3.000000000000000000e+00,-1.000000000000000000e+00,-1.000000000000000000e+00,0.000000000000000000e+00,1.000000000000000000e+00,-6.000000000000000000e+00,-1.700000000000000000e+01,-4.020385742187500000e-01,2.507324218750000000e-01,6.376342773437500000e-01,6.073608398437500000e-01
2.400000000000000000e+01,1.300000000000000000e+01,8.000000000000000000e+00,1.000000000000000000e+00,-2.000000000000000000e+00,2.000000000000000000e+00,2.000000000000000000e+00,9.000000000000000000e+00,-4.020385742187500000e-01,2.507324218750000000e-01,6.376342773437500000e-01,6.073608398437500000e-01
-1.200000000000000000e+01,-8.000000000000000000e+00,-8.000000000000000000e+00,0.000000000000000000e+00,1.000000000000000000e+00,2.000000000000000000e+00,1.000000000000000000e+00,-1.000000000000000000e+00,-4.020385742187500000e-01,2.507324218750000000e-01,6.376342773437500000e-01,6.073608398437500000e-01
-8.000000000000000000e+00,0.000000000000000000e+00,-1.000000000000000000e+00,-1.100000000000000000e+01,-5.000000000000000000e+00,-2.000000000000000000e+00,1.000000000000000000e+00,0.000000000000000000e+00,-4.020385742187500000e-01,2.507324218750000000e-01,6.376342773437500000e-01,6.073608398437500000e-01
0.000000000000000000e+00,-3.000000000000000000e+00,4.000000000000000000e+00,3.000000000000000000e+00,0.000000000000000000e+00,-1.000000000000000000e+00,-3.000000000000000000e+00,-6.000000000000000000e+00,-4.024658203125000000e-01,2.505493164062500000e-01,6.380615234375000000e-01,6.066284179687500000e-01
-1.000000000000000000e+00,3.000000000000000000e+00,-5.000000000000000000e+00,-3.000000000000000000e+00,-4.000000000000000000e+00,-4.000000000000000000e+00,0.000000000000000000e+00,3.000000000000000000e+00,-4.024658203125000000e-01,2.505493164062500000e-01,6.380615234375000000e-01,6.066284179687500000e-01
5.000000000000000000e+00,-2.000000000000000000e+00,4.000000000000000000e+00,0.000000000000000000e+00,-1.000000000000000000e+00,-3.000000000000000000e+00,1.000000000000000000e+00,-9.000000000000000000e+00,-4.024658203125000000e-01,2.505493164062500000e-01,6.380615234375000000e-01,6.066284179687500000e-01
1.700000000000000000e+01,6.000000000000000000e+00,-2.000000000000000000e+00,-5.000000000000000000e+00,-1.000000000000000000e+00,-2.000000000000000000e+00,1.000000000000000000e+00,1.400000000000000000e+01,-4.024658203125000000e-01,2.505493164062500000e-01,6.380615234375000000e-01,6.066284179687500000e-01
-5.000000000000000000e+00,-7.000000000000000000e+00,6.000000000000000000e+00,5.000000000000000000e+00,-1.000000000000000000e+00,0.000000000000000000e+00,0.000000000000000000e+00,-2.000000000000000000e+00,-4.027709960937500000e-01,2.500000000000000000e-01,6.382446289062500000e-01,6.065063476562500000e-01
6.000000000000000000e+00,1.000000000000000000e+00,3.000000000000000000e+00,0.000000000000000000e+00,1.000000000000000000e+00,0.000000000000000000e+00,2.000000000000000000e+00,-2.000000000000000000e+00,-4.027709960937500000e-01,2.500000000000000000e-01,6.382446289062500000e-01,6.065063476562500000e-01
-4.000000000000000000e+00,-4.000000000000000000e+00,-2.000000000000000000e+00,-3.000000000000000000e+00,-2.000000000000000000e+00,-4.000000000000000000e+00,-4.000000000000000000e+00,-6.000000000000000000e+00,-4.027709960937500000e-01,2.500000000000000000e-01,6.382446289062500000e-01,6.065063476562500000e-01
-9.000000000000000000e+00,-3.000000000000000000e+00,0.000000000000000000e+00,-3.000000000000000000e+00,-5.000000000000000000e+00,-6.000000000000000000e+00,-6.000000000000000000e+00,-5.000000000000000000e+00,-4.027709960937500000e-01,2.500000000000000000e-01,6.382446289062500000e-01,6.065063476562500000e-01
-1.300000000000000000e+01,4.000000000000000000e+00,-1.000000000000000000e+00,0.000000000000000000e+00,-3.000000000000000000e+00,-1.000000000000000000e+00,2.000000000000000000e+00,-4.000000000000000000e+00,-4.027709960937500000e-01,2.495117187500000000e-01,6.384277343750000000e-01,6.065673828125000000e-01
1.400000000000000000e+01,-2.000000000000000000e+00,5.000000000000000000e+00,0.000000000000000000e+00,2.000000000000000000e+00,1.000000000000000000e+00,8.000000000000000000e+00,6.000000000000000000e+00,-4.027709960937500000e-01,2.495117187500000000e-01,6.384277343750000000e-01,6.065673828125000000e-01
0.000000000000000000e+00,-4.000000000000000000e+00,1.000000000000000000e+00,-8.000000000000000000e+00,-1.000000000000000000e+00,8.000000000000000000e+00,3.000000000000000000e+00,6.000000000000000000e+00,-4.027709960937500000e-01,2.495117187500000000e-01,6.384277343750000000e-01,6.065673828125000000e-01
3.000000000000000000e+00,8.000000000000000000e+00,1.000000000000000000e+00,6.000000000000000000e+00,1.000000000000000000e+00,3.000000000000000000e+00,-1.000000000000000000e+00,-5.000000000000000000e+00,-4.027709960937500000e-01,2.495117187500000000e-01,6.384277343750000000e-01,6.065673828125000000e-01
-6.000000000000000000e+00,-3.000000000000000000e+00,-6.000000000000000000e+00,0.000000000000000000e+00,-2.000000000000000000e+00,-3.000000000000000000e+00,-4.000000000000000000e+00,-4.000000000000000000e+00,-4.025878906250000000e-01,2.495727539062500000e-01,6.386108398437500000e-01,6.063842773437500000e-01
-1.600000000000000000e+01,-2.000000000000000000e+00,5.000000000000000000e+00,7.000000000000000000e+00,-1.000000000000000000e+00,-2.000000000000000000e+00,-5.000000000000000000e+00,-3.000000000000000000e+00,-4.025878906250000000e-01,2.495727539062500000e-01,6.386108398437500000e-01,6.063842773437500000e-01
-8.000000000000000000e+00,0.000000000000000000e+00,-1.000000000000000000e+00,-2.000000000000000000e+00,-3.000000000000000000e+00,-4.000000000000000000e+00,-1.000000000000000000e+00,2.000000000000000000e+00,-4.025878906250000000e-01,2.495727539062500000e-01,6.386108398437500000e-01,6.063842773437500000e-01
1.500000000000000000e+01,4.000000000000000000e+00,2.000000000000000000e+00,-8.000000000000000000e+00,-2.000000000000000000e+00,-5.000000000000000000e+00,1.000000000000000000e+00,8.000000000000000000e+00,-4.025878906250000000e-01,2.495727539062500000e-01,6.386108398437500000e-01,6.063842773437500000e-01
4.000000000000000000e+00,3.000000000000000000e+00,-2.000000000000000000e+00,-3.000000000000000000e+00,-3.000000000000000000e+00,-3.000000000000000000e+00,-4.000000000000000000e+00,-1.100000000000000000e+01,-4.028320312500000000e-01,2.495117187500000000e-01,6.387939453125000000e-01,6.060791015625000000e-01
-9.000000000000000000e+00,1.000000000000000000e+00,-5.000000000000000000e+00,-7.000000000000000000e+00,-8.000000000000000000e+00,-6.000000000000000000e+00,-3.000000000000000000e+00,0.000000000000000000e+00,-4.028320312500000000e-01,2.495117187500000000e-01,6.387939453125000000e-01,6.060791015625000000e-01
-4.000000000000000000e+00,3.000000000000000000e+00,-4.000000000000000000e+00,9.000000000000000000e+00,4.000000000000000000e+00,-4.000000000000000000e+00,-4.000000000000000000e+00,-7.000000000000000000e+00,-4.028320312500000000e-01,2.495117187500000000e-01,6.387939453125000000e-01,6.060791015625000000e-01
2.300000000000000000e+01,-1.200000000000000000e+01,0.000000000000000000e+00,-5.000000000000000000e+00,-1.000000000000000000e+00,0.000000000000000000e+00,4.000000000000000000e+00,1.400000000000000000e+01,-4.028320312500000000e-01,2.495117187500000000e-01,6.387939453125000000e-01,6.060791015625000000e-01
-2.000000000000000000e+01,-1.000000000000000000e+00,-1.000000000000000000e+00,7.000000000000000000e+00,7.000000000000000000e+00,1.000000000000000000e+00,-1.000000000000000000e+00,-1.000000000000000000e+01,-4.027099609375000000e-01,2.496948242187500000e-01,6.388549804687500000e-01,6.060180664062500000e-01
2.300000000000000000e+01,5.000000000000000000e+00,-1.000000000000000000e+00,-6.000000000000000000e+00,-1.000000000000000000e+00,0.000000000000000000e+00,-1.000000000000000000e+00,1.000000000000000000e+00,-4.027099609375000000e-01,2.496948242187500000e-01,6.388549804687500000e-01,6.060180664062500000e-01
-1.400000000000000000e+01,-5.000000000000000000e+00,1.000000000000000000e+00,-3.000000000000000000e+00,-3.000000000000000000e+00,1.000000000000000000e+00,2.000000000000000000e+00,0.000000000000000000e+00,-4.027099609375000000e-01,2.496948242187500000e-01,6.388549804687500000e-01,6.060180664062500000e-01
-1.500000000000000000e+01,3.000000000000000000e+00,-5.000000000000000000e+00,-2.000000000000000000e+00,-3.000000000000000000e+00,-2.000000000000000000e+00,-2.000000000000000000e+00,-1.000000000000000000e+01,-4.027099609375000000e-01,2.496948242187500000e-01,6.388549804687500000e-01,6.060180664062500000e-01
5.000000000000000000e+00,-4.000000000000000000e+00,-4.000000000000000000e+00,2.000000000000000000e+00,4.000000000000000000e+00,-4.000000000000000000e+00,-1.000000000000000000e+00,5.000000000000000000e+00,-4.025268554687500000e-01,2.500000000000000000e-01,6.390991210937500000e-01,6.057739257812500000e-01
-8.000000000000000000e+00,-3.000000000000000000e+00,4.000000000000000000e+00,-8.000000000000000000e+00,-4.000000000000000000e+00,3.000000000000000000e+00,-4.000000000000000000e+00,-4.000000000000000000e+00,-4.025268554687500000e-01,2.500000000000000000e-01,6.390991210937500000e-01,6.057739257812500000e-01
-9.000000000000000000e+00,-4.000000000000000000e+00,-1.000000000000000000e+00,5.000000000000000000e+00,0.000000000000000000e+00,-1.000000000000000000e+00,6.000000000000000000e+00,-5.000000000000000000e+00,-4.025268554687500000e-01,2.500000000000000000e-01,6.390991210937500000e-01,6.057739257812500000e-01
1.200000000000000000e+01,4.000000000000000000e+00,-2.000000000000000000e+00,-1.900000000000000000e+01,-2.000000000000000000e+00,5.000000000000000000e+00,-7.000000000000000000e+00,1.100000000000000000e+01,-4.025268554687500000e-01,2.500000000000000000e-01,6.390991210937500000e-01,6.057739257812500000e-01
6.000000000000000000e+00,-2.900000000000000000e+01,-1.000000000000000000e+00,-3.000000000000000000e+00,-2.000000000000000000e+00,1.000000000000000000e+00,2.000000000000000000e+00,1.200000000000000000e+01,-4.026489257812500000e-01,2.501831054687500000e-01,6.392822265625000000e-01,6.054687500000000000e-01
-1.800000000000000000e+01,-4.000000000000000000e+00,-1.300000000000000000e+01,-3.000000000000000000e+00,-4.000000000000000000e+00,-6.000000000000000000e+00,-7.000000000000000000e+00,-1.100000000000000000e+01,-4.026489257812500000e-01,2.501831054687500000e-01,6.392822265625000000e-01,6.054687500000000000e-01
1.100000000000000000e+01,6.000000000000000000e+00,5.000000000000000000e+00,2.000000000000000000e+00,1.000000000000000000e+00,-1.000000000000000000e+00,5.000000000000000000e+00,6.000000000000000000e+00,-4.026489257812500000e-01,2.501831054687500000e-01,6.392822265625000000e-01,6.054687500000000000e-01
-7.000000000000000000e+00,1.000000000000000000e+00,-4.000000000000000000e+00,-4.000000000000000000e+00,-3.000000000000000000e+00,-2.000000000000000000e+00,-2.000000000000000000e+00,-1.100000000000000000e+01,-4.026489257812500000e-01,2.501831054687500000e-01,6.392822265625000000e-01,6.054687500000000000e-01
-3.000000000000000000e+00,7.000000000000000000e+00,2.000000000000000000e+00,-1.000000000000000000e+00,2.000000000000000000e+00,-6.000000000000000000e+00,-6.000000000000000000e+00,-4.000000000000000000e+00,-4.031372070312500000e-01,2.497558593750000000e-01,6.394653320312500000e-01,6.051025390625000000e-01
-4.000000000000000000e+00,-7.000000000000000000e+00,-3.000000000000000000e+00,0.000000000000000000e+00,1.000000000000000000e+00,1.000000000000000000e+00,2.000000000000000000e+00,3.000000000000000000e+00,-4.031372070312500000e-01,2.497558593750000000e-01,6.394653320312500000e-01,6.051025390625000000e-01
-1.100000000000000000e+01,-3.000000000000000000e+00,-2.000000000000000000e+00,-8.000000000000000000e+00,-5.000000000000000000e+00,0.000000000000000000e+00,-5.000000000000000000e+00,-3.000000000000000000e+00,-4.031372070312500000e-01,2.497558593750000000e-01,6.394653320312500000e-01,6.051025390625000000e-01
1.800000000000000000e+01,3.000000000000000000e+00,6.000000000000000000e+00,1.200000000000000000e+01,4.000000000000000000e+00,1.000000000000000000e+00,0.000000000000000000e+00,6.000000000000000000e+00,-4.031372070312500000e-01,2.497558593750000000e-01,6.394653320312500000e-01,6.051025390625000000e-01
-5.000000000000000000e+00,4.000000000000000000e+00,-5.000000000000000000e+00,-7.000000000000000000e+00,-5.000000000000000000e+00,1.000000000000000000e+00,-4.000000000000000000e+00,-3.000000000000000000e+00,-4.034423828125000000e-01,2.496337890625000000e-01,6.395874023437500000e-01,6.048583984375000000e-01
1.400000000000000000e+01,-4.000000000000000000e+00,7.000000000000000000e+00,2.000000000000000000e+00,1.000000000000000000e+00,-2.000000000000000000e+00,1.000000000000000000e+00,3.000000000000000000e+00,-4.034423828125000000e-01,2.496337890625000000e-01,6.395874023437500000e-01,6.048583984375000000e-01
-7.000000000000000000e+00,2.000000000000000000e+00,0.000000000000000000e+00,5.000000000000000000e+00,1.000000000000000000e+00,0.000000000000000000e+00,-3.000000000000000000e+00,-3.000000000000000000e+00,-4.034423828125000000e-01,2.496337890625000000e-01,6.395874023437500000e-01,6.048583984375000000e-01
-7.000000000000000000e+00,-1.000000000000000000e+00,-6.000000000000000000e+00,1.000000000000000000e+00,2.000000000000000000e+00,-3.000000000000000000e+00,0.000000000000000000e+00,-2.000000000000000000e+00,-4.034423828125000000e-01,2.496337890625000000e-01,6.395874023437500000e-01,6.048583984375000000e-01
1.000000000000000000e+00,3.000000000000000000e+00,-1.000000000000000000e+00,-4.000000000000000000e+00,-4.000000000000000000e+00,-1.000000000000000000e+00,4.000000000000000000e+00,-2.000000000000000000e+00,-4.035644531250000000e-01,2.495727539062500000e-01,6.398315429687500000e-01,6.044921875000000000e-01
-5.000000000000000000e+00,0.000000000000000000e+00,4.000000000000000000e+00,-3.000000000000000000e+00,0.000000000000000000e+00,-3.000000000000000000e+00,-2.000000000000000000e+00,0.000000000000000000e+00,-4.035644531250000000e-01,2.495727539062500000e-01,6.398315429687500000e-01,6.044921875000000000e-01
1.000000000000000000e+00,-5.000000000000000000e+00,-6.000000000000000000e+00,4.000000000000000000e+00,2.000000000000000000e+00,-4.000000000000000000e+00,-3.000000000000000000e+00,-2.000000000000000000e+00,-4.035644531250000000e-01,2.495727539062500000e-01,6.398315429687500000e-01,6.044921875000000000e-01
-1.000000000000000000e+00,-1.000000000000000000e+00,1.000000000000000000e+00,4.000000000000000000e+00,-3.000000000000000000e+00,-1.000000000000000000e+00,1.000000000000000000e+00,-2.000000000000000000e+00,-4.035644531250000000e-01,2.495727539062500000e-01,6.398315429687500000e-01,6.044921875000000000e-01
4.000000000000000000e+00,0.000000000000000000e+00,-5.000000000000000000e+00,-3.000000000000000000e+00,2.000000000000000000e+00,5.000000000000000000e+00,1.000000000000000000e+00,0.000000000000000000e+00,-4.036254882812500000e-01,2.494506835937500000e-01,6.400756835937500000e-01,6.042480468750000000e-01
-3.000000000000000000e+00,-2.000000000000000000e+00,4.000000000000000000e+00,4.000000000000000000e+00,-2.000000000000000000e+00,0.000000000000000000e+00,4.000000000000000000e+00,-2.000000000000000000e+00,-4.036254882812500000e-01,2.494506835937500000e-01,6.400756835937500000e-01,6.042480468750000000e-01
6.000000000000000000e+00,1.000000000000000000e+00,-3.000000000000000000e+00,-7.000000000000000000e+00,-3.000000000000000000e+00,0.000000000000000000e+00,-7.000000000000000000e+00,7.000000000000000000e+00,-4.036254882812500000e-01,2.494506835937500000e-01,6.400756835937500000e-01,6.042480468750000000e-01
-8.000000000000000000e+00,-5.000000000000000000e+00,-8.000000000000000000e+00,3.000000000000000000e+00,-2.000000000000000000e+00,-1.000000000000000000e+00,-2.000000000000000000e+00,-7.000000000000000000e+00,-4.036254882812500000e-01,2.494506835937500000e-01,6.400756835937500000e-01,6.042480468750000000e-01
0.000000000000000000e+00,2.000000000000000000e+00,-1.200000000000000000e+01,5.000000000000000000e+00,1.000000000000000000e+00,3.000000000000000000e+00,1.000000000000000000e+00,1.000000000000000000e+00,-4.037475585937500000e-01,2.489624023437500000e-01,6.401367187500000000e-01,6.043090820312500000e-01
1.000000000000000000e+00,0.000000000000000000e+00,3.000000000000000000e+00,-4.000000000000000000e+00,1.000000000000000000e+00,-1.000000000000000000e+00,1.000000000000000000e+00,0.000000000000000000e+00,-4.037475585937500000e-01,2.489624023437500000e-01,6.401367187500000000e-01,6.043090820312500000e-01
2.000000000000000000e+00,2.000000000000000000e+00,-3.000000000000000000e+00,1.000000000000000000e+00,-3.000000000000000000e+00,-5.000000000000000000e+00,-1.000000000000000000e+01,-3.000000000000000000e+00,-4.037475585937500000e-01,2.489624023437500000e-01,6.401367187500000000e-01,6.043090820312500000e-01
-2.100000000000000000e+01,-6.000000000000000000e+00,-1.800000000000000000e+01,-5.000000000000000000e+00,0.000000000000000000e+00,0.000000000000000000e+00,9.000000000000000000e+00,-7.000000000000000000e+00,-4.037475585937500000e-01,2.489624023437500000e-01,6.401367187500000000e-01,6.043090820312500000e-01
1.100000000000000000e+01,2.000000000000000000e+00,6.000000000000000000e+00,2.000000000000000000e+00,-1.000000000000000000e+00,-2.000000000000000000e+00,-8.000000000000000000e+00,-3.000000000000000000e+00,-4.038085937500000000e-01,2.481689453125000000e-01,6.401367187500000000e-01,6.046142578125000000e-01
3.000000000000000000e+00,2.000000000000000000e+00,-6.000000000000000000e+00,-2.000000000000000000e+00,1.000000000000000000e+00,1.000000000000000000e+00,-9.000000000000000000e+00,-2.000000000000000000e+00,-4.038085937500000000e-01,2.481689453125000000e-01,6.401367187500000000e-01,6.046142578125000000e-01
3.000000000000000000e+00,3.000000000000000000e+00,-2.000000000000000000e+00,-4.000000000000000000e+00,-3.000000000000000000e+00,-1.000000000000000000e+00,4.000000000000000000e+00,1.200000000000000000e+01,-4.038085937500000000e-01,2.481689453125000000e-01,6.401367187500000000e-01,6.046142578125000000e-01
4.000000000000000000e+00,-1.000000000000000000e+00,2.000000000000000000e+00,0.000000000000000000e+00,-1.000000000000000000e+00,0.000000000000000000e+00,-7.000000000000000000e+00,-6.000000000000000000e+00,-4.038085937500000000e-01,2.481689453125000000e-01,6.401367187500000000e-01,6.046142578125000000e-01
-1.300000000000000000e+01,-4.000000000000000000e+00,-1.000000000000000000e+00,0.000000000000000000e+00,5.000000000000000000e+00,4.000000000000000000e+00,5.000000000000000000e+00,4.000000000000000000e+00,-4.036254882812500000e-01,2.473144531250000000e-01,6.402587890625000000e-01,6.049194335937500000e-01
-6.000000000000000000e+00,-1.000000000000000000e+00,3.000000000000000000e+00,6.000000000000000000e+00,2.000000000000000000e+00,-3.000000000000000000e+00,4.000000000000000000e+00,-1.000000000000000000e+01,-4.036254882812500000e-01,2.473144531250000000e-01,6.402587890625000000e-01,6.049194335937500000e-01
1.700000000000000000e+01,2.000000000000000000e+00,-2.000000000000000000e+00,-1.000000000000000000e+01,-3.000000000000000000e+00,-1.000000000000000000e+00,-1.200000000000000000e+01,-7.000000000000000000e+00,-4.036254882812500000e-01,2.473144531250000000e-01,6.402587890625000000e-01,6.049194335937500000e-01
-4.000000000000000000e+00,-2.000000000000000000e+00,5.000000000000000000e+00,1.000000000000000000e+00,-1.000000000000000000e+00,-2.000000000000000000e+00,-1.000000000000000000e+00,9.000000000000000000e+00,-4.036254882812500000e-01,2.473144531250000000e-01,6.402587890625000000e-01,6.049194335937500000e-01
8.000000000000000000e+00,7.000000000000000000e+00,1.000000000000000000e+00,-5.000000000000000000e+00,0.000000000000000000e+00,6.000000000000000000e+00,1.300000000000000000e+01,1.100000000000000000e+01,-4.036865234375000000e-01,2.462768554687500000e-01,6.407470703125000000e-01,6.047363281250000000e-01
1.000000000000000000e+00,-1.000000000000000000e+00,-4.000000000000000000e+00,7.000000000000000000e+00,-1.000000000000000000e+00,-2.000000000000000000e+00,1.000000000000000000e+00,0.000000000000000000e+00,-4.036865234375000000e-01,2.462768554687500000e-01,6.407470703125000000e-01,6.047363281250000000e-01
-1.700000000000000000e+01,-2.000000000000000000e+00,-1.000000000000000000e+00,-2.000000000000000000e+00,-1.000000000000000000e+00,1.000000000000000000e+00,-6.000000000000000000e+00,-8.000000000000000000e+00,-4.036865234375000000e-01,2.462768554687500000e-01,6.407470703125000000e-01,6.047363281250000000e-01
-3.000000000000000000e+00,2.000000000000000000e+00,1.000000000000000000e+00,3.000000000000000000e+00,1.000000000000000000e+00,-2.000000000000000000e+00,1.400000000000000000e+01,-2.000000000000000000e+00,-4.036865234375000000e-01,2.462768554687500000e-01,6.407470703125000000e-01,6.047363281250000000e-01
5.000000000000000000e+00,0.000000000000000000e+00,-3.000000000000000000e+00,-5.000000000000000000e+00,-2.000000000000000000e+00,-6.000000000000000000e+00,-5.000000000000000000e+00,-5.000000000000000000e+00,-4.033813476562500000e-01,2.463378906250000000e-01,6.410522460937500000e-01,6.046752929687500000e-01
-8.000000000000000000e+00,-3.000000000000000000e+00,5.000000000000000000e+00,-3.000000000000000000e+00,-3.000000000000000000e+00,0.000000000000000000e+00,1.000000000000000000e+00,3.000000000000000000e+00,-4.033813476562500000e-01,2.463378906250000000e-01,6.410522460937500000e-01,6.046752929687500000e-01
9.000000000000000000e+00,3.000000000000000000e+00,-4.000000000000000000e+00,-1.000000000000000000e+00,-4.000000000000000000e+00,-3.000000000000000000e+00,3.000000000000000000e+00,0.000000000000000000e+00,-4.033813476562500000e-01,2.463378906250000000e-01,6.410522460937500000e-01,6.046752929687500000e-01
0.000000000000000000e+00,-7.000000000000000000e+00,5.000000000000000000e+00,-1.000000000000000000e+00,1.000000000000000000e+00,4.000000000000000000e+00,-1.400000000000000000e+01,-4.000000000000000000e+00,-4.033813476562500000e-01,2.463378906250000000e-01,6.410522460937500000e-01,6.046752929687500000e-01
-1.300000000000000000e+01,-5.000000000000000000e+00,1.000000000000000000e+00,-6.000000000000000000e+00,-6.000000000000000000e+00,-6.000000000000000000e+00,-2.000000000000000000e+00,-3.000000000000000000e+00,-4.027709960937500000e-01,2.468261718750000000e-01,6.412353515625000000e-01,6.046752929687500000e-01
0.000000000000000000e+00,4.000000000000000000e+00,-5.000000000000000000e+00,0.000000000000000000e+00,-1.000000000000000000e+00,-1.000000000000000000e+00,-1.200000000000000000e+01,-2.000000000000000000e+00,-4.027709960937500000e-01,2.468261718750000000e-01,6.412353515625000000e-01,6.046752929687500000e-01
-2.000000000000000000e+00,-2.000000000000000000e+00,4.000000000000000000e+00,-5.000000000000000000e+00,-3.000000000000000000e+00,-3.000000000000000000e+00,9.000000000000000000e+00,-2.000000000000000000e+00,-4.027709960937500000e-01,2.468261718750000000e-01,6.412353515625000000e-01,6.046752929687500000e-01
-2.200000000000000000e+01,-8.000000000000000000e+00,7.000000000000000000e+00,4.000000000000000000e+00,1.000000000000000000e+00,0.000000000000000000e+00,1.000000000000000000e+00,1.000000000000000000e+00,-4.027709960937500000e-01,2.468261718750000000e-01,6.412353515625000000e-01,6.046752929687500000e-01
