-3.000000000000000000e+00,2.000000000000000000e+00,1.000000000000000000e+00,-5.000000000000000000e+00,2.000000000000000000e+00,-6.000000000000000000e+00,-4.000000000000000000e+00,0.000000000000000000e+00,-4.275512695312500000e-01,8.575439453125000000e-02,7.540893554687500000e-01,4.911499023437500000e-01
-2.000000000000000000e+00,1.000000000000000000e+00,1.400000000000000000e+01,4.000000000000000000e+00,0.000000000000000000e+00,-5.000000000000000000e+00,-1.200000000000000000e+01,-1.000000000000000000e+00,-4.275512695312500000e-01,8.575439453125000000e-02,7.540893554687500000e-01,4.911499023437500000e-01
-2.000000000000000000e+00,-1.000000000000000000e+00,-1.200000000000000000e+01,-7.000000000000000000e+00,-1.000000000000000000e+00,1.000000000000000000e+00,1.900000000000000000e+01,-3.000000000000000000e+00,-4.276733398437500000e-01,8.752441406250000000e-02,7.540893554687500000e-01,4.906005859375000000e-01
0.000000000000000000e+00,8.000000000000000000e+00,1.100000000000000000e+01,1.000000000000000000e+01,1.000000000000000000e+00,-5.000000000000000000e+00,-1.600000000000000000e+01,1.000000000000000000e+00,-4.276733398437500000e-01,8.752441406250000000e-02,7.540893554687500000e-01,4.906005859375000000e-01
-1.000000000000000000e+00,-5.000000000000000000e+00,-9.000000000000000000e+00,-1.000000000000000000e+00,-4.000000000000000000e+00,3.000000000000000000e+00,-1.000000000000000000e+01,0.000000000000000000e+00,-4.276733398437500000e-01,8.752441406250000000e-02,7.540893554687500000e-01,4.906005859375000000e-01
4.000000000000000000e+00,-7.000000000000000000e+00,3.000000000000000000e+00,0.000000000000000000e+00,1.000000000000000000e+00,2.000000000000000000e+00,7.000000000000000000e+00,1.000000000000000000e+00,-4.276733398437500000e-01,8.752441406250000000e-02,7.540893554687500000e-01,4.906005859375000000e-01
4.000000000000000000e+00,8.000000000000000000e+00,-4.000000000000000000e+00,-7.000000000000000000e+00,-2.000000000000000000e+00,-2.000000000000000000e+00,-2.000000000000000000e+00,-1.000000000000000000e+00,-4.284057617187500000e-01,8.801269531250000000e-02,7.544555664062500000e-01,4.893188476562500000e-01
-1.000000000000000000e+01,1.100000000000000000e+01,7.000000000000000000e+00,5.000000000000000000e+00,0.000000000000000000e+00,-3.000000000000000000e+00,3.000000000000000000e+00,-6.000000000000000000e+00,-4.284057617187500000e-01,8.801269531250000000e-02,7.544555664062500000e-01,4.893188476562500000e-01
-1.200000000000000000e+01,-1.200000000000000000e+01,8.000000000000000000e+00,0.000000000000000000e+00,0.000000000000000000e+00,1.000000000000000000e+00,8.000000000000000000e+00,1.300000000000000000e+01,-4.284057617187500000e-01,8.801269531250000000e-02,7.544555664062500000e-01,4.893188476562500000e-01
-1.300000000000000000e+01,-1.600000000000000000e+01,-1.000000000000000000e+01,-7.000000000000000000e+00,-4.000000000000000000e+00,-8.000000000000000000e+00,-1.500000000000000000e+01,-1.500000000000000000e+01,-4.284057617187500000e-01,8.801269531250000000e-02,7.544555664062500000e-01,4.893188476562500000e-01
9.000000000000000000e+00,7.000000000000000000e+00,8.000000000000000000e+00,6.000000000000000000e+00,-2.000000000000000000e+00,1.000000000000000000e+00,4.000000000000000000e+00,1.300000000000000000e+01,-4.299316406250000000e-01,8.740234375000000000e-02,7.545166015625000000e-01,4.879760742187500000e-01
5.000000000000000000e+00,-2.000000000000000000e+00,-2.300000000000000000e+01,-1.400000000000000000e+01,-1.000000000000000000e+00,-2.000000000000000000e+00,1.300000000000000000e+01,-3.000000000000000000e+00,-4.299316406250000000e-01,8.740234375000000000e-02,7.545166015625000000e-01,4.879760742187500000e-01
2.000000000000000000e+00,-9.000000000000000000e+00,1.000000000000000000e+01,3.000000000000000000e+00,-1.000000000000000000e+00,5.000000000000000000e+00,7.000000000000000000e+00,-5.000000000000000000e+00,-4.299316406250000000e-01,8.740234375000000000e-02,7.545166015625000000e-01,4.879760742187500000e-01
1.000000000000000000e+01,1.100000000000000000e+01,1.000000000000000000e+01,2.000000000000000000e+00,0.000000000000000000e+00,0.000000000000000000e+00,-1.700000000000000000e+01,6.000000000000000000e+00,-4.299316406250000000e-01,8.740234375000000000e-02,7.545166015625000000e-01,4.879760742187500000e-01
-8.000000000000000000e+00,-1.200000000000000000e+01,-5.000000000000000000e+00,-7.000000000000000000e+00,-4.000000000000000000e+00,-1.000000000000000000e+00,1.400000000000000000e+01,-3.000000000000000000e+00,-4.312744140625000000e-01,8.612060546875000000e-02,7.543334960937500000e-01,4.873657226562500000e-01
1.000000000000000000e+00,0.000000000000000000e+00,1.000000000000000000e+00,3.000000000000000000e+00,1.000000000000000000e+00,1.000000000000000000e+00,4.000000000000000000e+00,2.000000000000000000e+00,-4.312744140625000000e-01,8.612060546875000000e-02,7.543334960937500000e-01,4.873657226562500000e-01
5.000000000000000000e+00,8.000000000000000000e+00,3.000000000000000000e+00,-7.000000000000000000e+00,-4.000000000000000000e+00,-8.000000000000000000e+00,-9.000000000000000000e+00,-5.000000000000000000e+00,-4.312744140625000000e-01,8.612060546875000000e-02,7.543334960937500000e-01,4.873657226562500000e-01
-2.000000000000000000e+00,-3.000000000000000000e+00,-1.000000000000000000e+01,0.000000000000000000e+00,-4.000000000000000000e+00,-6.000000000000000000e+00,-4.000000000000000000e+00,-1.000000000000000000e+00,-4.312744140625000000e-01,8.612060546875000000e-02,7.543334960937500000e-01,4.873657226562500000e-01
-1.100000000000000000e+01,-6.000000000000000000e+00,5.000000000000000000e+00,-2.000000000000000000e+00,3.000000000000000000e+00,1.000000000000000000e+00,3.000000000000000000e+00,-1.700000000000000000e+01,-4.309692382812500000e-01,8.624267578125000000e-02,7.536621093750000000e-01,4.885864257812500000e-01
4.000000000000000000e+00,8.000000000000000000e+00,1.600000000000000000e+01,5.000000000000000000e+00,-2.000000000000000000e+00,2.000000000000000000e+00,4.000000000000000000e+00,1.100000000000000000e+01,-4.309692382812500000e-01,8.624267578125000000e-02,7.536621093750000000e-01,4.885864257812500000e-01
8.000000000000000000e+00,-2.000000000000000000e+00,-2.800000000000000000e+01,-2.000000000000000000e+00,4.000000000000000000e+00,4.000000000000000000e+00,3.000000000000000000e+00,4.000000000000000000e+00,-4.309692382812500000e-01,8.624267578125000000e-02,7.536621093750000000e-01,4.885864257812500000e-01
-6.000000000000000000e+00,-5.000000000000000000e+00,-3.000000000000000000e+00,-2.000000000000000000e+00,0.000000000000000000e+00,-7.000000000000000000e+00,-4.000000000000000000e+00,-3.000000000000000000e+00,-4.309692382812500000e-01,8.624267578125000000e-02,7.536621093750000000e-01,4.885864257812500000e-01
-5.000000000000000000e+00,5.000000000000000000e+00,-1.000000000000000000e+00,7.000000000000000000e+00,-1.000000000000000000e+00,1.000000000000000000e+00,-1.300000000000000000e+01,-4.000000000000000000e+00,-4.297485351562500000e-01,8.758544921875000000e-02,7.532348632812500000e-01,4.901123046875000000e-01
9.000000000000000000e+00,-1.000000000000000000e+01,-4.000000000000000000e+00,-3.000000000000000000e+00,-2.000000000000000000e+00,-3.000000000000000000e+00,1.000000000000000000e+00,-1.000000000000000000e+00,-4.297485351562500000e-01,8.758544921875000000e-02,7.532348632812500000e-01,4.901123046875000000e-01
-1.000000000000000000e+00,0.000000000000000000e+00,1.500000000000000000e+01,3.000000000000000000e+00,-3.000000000000000000e+00,-7.000000000000000000e+00,-1.100000000000000000e+01,5.000000000000000000e+00,-4.297485351562500000e-01,8.758544921875000000e-02,7.532348632812500000e-01,4.901123046875000000e-01
3.000000000000000000e+00,1.000000000000000000e+01,1.000000000000000000e+00,-2.000000000000000000e+00,-1.000000000000000000e+00,3.000000000000000000e+00,1.500000000000000000e+01,-4.000000000000000000e+00,-4.297485351562500000e-01,8.758544921875000000e-02,7.532348632812500000e-01,4.901123046875000000e-01
-3.000000000000000000e+00,3.000000000000000000e+00,-1.000000000000000000e+00,4.000000000000000000e+00,-2.000000000000000000e+00,-1.000000000000000000e+00,-5.000000000000000000e+00,0.000000000000000000e+00,-4.290161132812500000e-01,8.801269531250000000e-02,7.531127929687500000e-01,4.908447265625000000e-01
-8.000000000000000000e+00,0.000000000000000000e+00,-8.000000000000000000e+00,-2.000000000000000000e+00,4.000000000000000000e+00,3.000000000000000000e+00,1.000000000000000000e+00,-6.000000000000000000e+00,-4.290161132812500000e-01,8.801269531250000000e-02,7.531127929687500000e-01,4.908447265625000000e-01
2.000000000000000000e+00,-3.000000000000000000e+00,1.000000000000000000e+00,-4.000000000000000000e+00,-3.000000000000000000e+00,-4.000000000000000000e+00,-2.000000000000000000e+00,-2.000000000000000000e+00,-4.290161132812500000e-01,8.801269531250000000e-02,7.531127929687500000e-01,4.908447265625000000e-01
-1.200000000000000000e+01,-2.000000000000000000e+01,-8.000000000000000000e+00,-1.200000000000000000e+01,-6.000000000000000000e+00,-3.000000000000000000e+00,-1.100000000000000000e+01,-4.000000000000000000e+00,-4.290161132812500000e-01,8.801269531250000000e-02,7.531127929687500000e-01,4.908447265625000000e-01
-1.000000000000000000e+00,-2.000000000000000000e+00,9.000000000000000000e+00,-3.000000000000000000e+00,-1.000000000000000000e+00,-3.000000000000000000e+00,0.000000000000000000e+00,3.000000000000000000e+00,-4.291381835937500000e-01,8.654785156250000000e-02,7.532958984375000000e-01,4.907226562500000000e-01
1.000000000000000000e+00,1.000000000000000000e+00,5.000000000000000000e+00,-5.000000000000000000e+00,-4.000000000000000000e+00,0.000000000000000000e+00,-3.000000000000000000e+00,-5.000000000000000000e+00,-4.291381835937500000e-01,8.654785156250000000e-02,7.532958984375000000e-01,4.907226562500000000e-01
4.000000000000000000e+00,1.500000000000000000e+01,2.000000000000000000e+00,2.000000000000000000e+01,2.000000000000000000e+00,-3.000000000000000000e+00,-5.000000000000000000e+00,-5.000000000000000000e+00,-4.291381835937500000e-01,8.654785156250000000e-02,7.532958984375000000e-01,4.907226562500000000e-01
-1.000000000000000000e+00,1.000000000000000000e+00,1.200000000000000000e+01,-4.000000000000000000e+00,0.000000000000000000e+00,0.000000000000000000e+00,5.000000000000000000e+00,2.000000000000000000e+00,-4.291381835937500000e-01,8.654785156250000000e-02,7.532958984375000000e-01,4.907226562500000000e-01
-2.000000000000000000e+00,-1.200000000000000000e+01,-1.100000000000000000e+01,-8.000000000000000000e+00,-6.000000000000000000e+00,-3.000000000000000000e+00,1.000000000000000000e+00,0.000000000000000000e+00,-4.287109375000000000e-01,8.489990234375000000e-02,7.539062500000000000e-01,4.905395507812500000e-01
1.000000000000000000e+00,0.000000000000000000e+00,6.000000000000000000e+00,9.000000000000000000e+00,3.000000000000000000e+00,0.000000000000000000e+00,-1.600000000000000000e+01,1.000000000000000000e+00,-4.287109375000000000e-01,8.489990234375000000e-02,7.539062500000000000e-01,4.905395507812500000e-01
-2.000000000000000000e+00,0.000000000000000000e+00,-1.500000000000000000e+01,-5.000000000000000000e+00,-4.000000000000000000e+00,7.000000000000000000e+00,-2.000000000000000000e+00,-8.000000000000000000e+00,-4.287109375000000000e-01,8.489990234375000000e-02,7.539062500000000000e-01,4.905395507812500000e-01
0.000000000000000000e+00,0.000000000000000000e+00,1.000000000000000000e+00,3.000000000000000000e+00,5.000000000000000000e+00,0.000000000000000000e+00,1.000000000000000000e+01,9.000000000000000000e+00,-4.287109375000000000e-01,8.489990234375000000e-02,7.539062500000000000e-01,4.905395507812500000e-01
5.000000000000000000e+00,6.000000000000000000e+00,1.400000000000000000e+01,-2.000000000000000000e+00,3.000000000000000000e+00,0.000000000000000000e+00,-1.000000000000000000e+00,8.000000000000000000e+00,-4.277343750000000000e-01,8.422851562500000000e-02,7.543945312500000000e-01,4.907226562500000000e-01
-3.000000000000000000e+00,1.000000000000000000e+00,-1.700000000000000000e+01,3.000000000000000000e+00,1.000000000000000000e+00,-5.000000000000000000e+00,-5.000000000000000000e+00,-1.300000000000000000e+01,-4.277343750000000000e-01,8.422851562500000000e-02,7.543945312500000000e-01,4.907226562500000000e-01
-8.000000000000000000e+00,-7.000000000000000000e+00,1.700000000000000000e+01,-5.000000000000000000e+00,-3.000000000000000000e+00,-3.000000000000000000e+00,-1.100000000000000000e+01,-1.700000000000000000e+01,-4.277343750000000000e-01,8.422851562500000000e-02,7.543945312500000000e-01,4.907226562500000000e-01
-2.000000000000000000e+00,-3.000000000000000000e+00,-7.000000000000000000e+00,4.000000000000000000e+00,-6.000000000000000000e+00,-2.000000000000000000e+00,8.000000000000000000e+00,1.000000000000000000e+01,-4.277343750000000000e-01,8.422851562500000000e-02,7.543945312500000000e-01,4.907226562500000000e-01
1.600000000000000000e+01,5.000000000000000000e+00,0.000000000000000000e+00,-2.000000000000000000e+00,-1.000000000000000000e+00,-1.000000000000000000e+00,-1.000000000000000000e+00,7.000000000000000000e+00,-4.265136718750000000e-01,8.404541015625000000e-02,7.542724609375000000e-01,4.919433593750000000e-01
-1.100000000000000000e+01,1.000000000000000000e+00,5.000000000000000000e+00,-5.000000000000000000e+00,-2.000000000000000000e+00,3.000000000000000000e+00,-7.000000000000000000e+00,-3.000000000000000000e+00,-4.265136718750000000e-01,8.404541015625000000e-02,7.542724609375000000e-01,4.919433593750000000e-01
-5.000000000000000000e+00,-6.000000000000000000e+00,-5.000000000000000000e+00,5.000000000000000000e+00,4.000000000000000000e+00,-2.000000000000000000e+00,1.400000000000000000e+01,0.000000000000000000e+00,-4.265136718750000000e-01,8.404541015625000000e-02,7.542724609375000000e-01,4.919433593750000000e-01
-7.000000000000000000e+00,1.000000000000000000e+00,-1.400000000000000000e+01,1.000000000000000000e+00,-1.000000000000000000e+00,3.000000000000000000e+00,-3.000000000000000000e+00,-1.600000000000000000e+01,-4.265136718750000000e-01,8.404541015625000000e-02,7.542724609375000000e-01,4.919433593750000000e-01
1.300000000000000000e+01,6.000000000000000000e+00,0.000000000000000000e+00,-1.000000000000000000e+00,1.000000000000000000e+00,0.000000000000000000e+00,2.000000000000000000e+00,8.000000000000000000e+00,-4.250488281250000000e-01,8.459472656250000000e-02,7.539672851562500000e-01,4.936523437500000000e-01
1.000000000000000000e+01,4.000000000000000000e+00,1.300000000000000000e+01,7.000000000000000000e+00,1.000000000000000000e+00,0.000000000000000000e+00,7.000000000000000000e+00,3.000000000000000000e+00,-4.250488281250000000e-01,8.459472656250000000e-02,7.539672851562500000e-01,4.936523437500000000e-01
-2.000000000000000000e+00,-8.000000000000000000e+00,-3.100000000000000000e+01,-1.600000000000000000e+01,-5.000000000000000000e+00,-2.000000000000000000e+00,-6.000000000000000000e+00,-2.000000000000000000e+00,-4.250488281250000000e-01,8.459472656250000000e-02,7.539672851562500000e-01,4.936523437500000000e-01
-8.000000000000000000e+00,-4.000000000000000000e+00,-1.100000000000000000e+01,1.000000000000000000e+00,-1.000000000000000000e+00,-2.000000000000000000e+00,-1.300000000000000000e+01,-3.000000000000000000e+00,-4.250488281250000000e-01,8.459472656250000000e-02,7.539672851562500000e-01,4.936523437500000000e-01
-9.000000000000000000e+00,0.000000000000000000e+00,-6.000000000000000000e+00,0.000000000000000000e+00,1.000000000000000000e+00,-1.000000000000000000e+00,2.000000000000000000e+00,-1.000000000000000000e+00,-4.241943359375000000e-01,8.538818359375000000e-02,7.534790039062500000e-01,4.949340820312500000e-01
-6.000000000000000000e+00,-1.400000000000000000e+01,6.000000000000000000e+00,-1.200000000000000000e+01,-3.000000000000000000e+00,2.000000000000000000e+00,8.000000000000000000e+00,0.000000000000000000e+00,-4.241943359375000000e-01,8.538818359375000000e-02,7.534790039062500000e-01,4.949340820312500000e-01
1.000000000000000000e+00,4.000000000000000000e+00,-4.000000000000000000e+00,-1.000000000000000000e+00,4.000000000000000000e+00,-4.000000000000000000e+00,-3.000000000000000000e+00,4.000000000000000000e+00,-4.241943359375000000e-01,8.538818359375000000e-02,7.534790039062500000e-01,4.949340820312500000e-01
-2.000000000000000000e+00,-8.000000000000000000e+00,-2.300000000000000000e+01,-1.600000000000000000e+01,-8.000000000000000000e+00,4.000000000000000000e+00,-1.200000000000000000e+01,-2.000000000000000000e+00,-4.241943359375000000e-01,8.538818359375000000e-02,7.534790039062500000e-01,4.949340820312500000e-01
-3.000000000000000000e+00,2.000000000000000000e+00,8.000000000000000000e+00,5.000000000000000000e+00,-2.000000000000000000e+00,-3.000000000000000000e+00,-9.000000000000000000e+00,-1.000000000000000000e+01,-4.249877929687500000e-01,8.422851562500000000e-02,7.530517578125000000e-01,4.951171875000000000e-01
2.000000000000000000e+00,-4.000000000000000000e+00,-6.000000000000000000e+00,0.000000000000000000e+00,-4.000000000000000000e+00,3.000000000000000000e+00,4.000000000000000000e+00,7.000000000000000000e+00,-4.249877929687500000e-01,8.422851562500000000e-02,7.530517578125000000e-01,4.951171875000000000e-01
7.000000000000000000e+00,6.000000000000000000e+00,2.000000000000000000e+01,-2.000000000000000000e+00,3.000000000000000000e+00,-1.000000000000000000e+00,-1.000000000000000000e+00,6.000000000000000000e+00,-4.249877929687500000e-01,8.422851562500000000e-02,7.530517578125000000e-01,4.951171875000000000e-01
4.000000000000000000e+00,6.000000000000000000e+00,4.000000000000000000e+00,1.200000000000000000e+01,-1.000000000000000000e+00,-9.000000000000000000e+00,-2.000000000000000000e+00,-5.000000000000000000e+00,-4.249877929687500000e-01,8.422851562500000000e-02,7.530517578125000000e-01,4.951171875000000000e-01
-3.000000000000000000e+00,-4.000000000000000000e+00,-1.100000000000000000e+01,-6.000000000000000000e+00,1.000000000000000000e+00,1.000000000000000000e+01,8.000000000000000000e+00,-3.000000000000000000e+00,-4.255981445312500000e-01,8.294677734375000000e-02,7.528076171875000000e-01,4.951782226562500000e-01
-4.000000000000000000e+00,-2.000000000000000000e+00,-1.100000000000000000e+01,-3.000000000000000000e+00,-4.000000000000000000e+00,-9.000000000000000000e+00,-4.000000000000000000e+00,-5.000000000000000000e+00,-4.255981445312500000e-01,8.294677734375000000e-02,7.528076171875000000e-01,4.951782226562500000e-01
-4.000000000000000000e+00,-3.000000000000000000e+00,-1.500000000000000000e+01,-3.000000000000000000e+00,-2.000000000000000000e+00,-3.000000000000000000e+00,1.000000000000000000e+00,-1.000000000000000000e+00,-4.255981445312500000e-01,8.294677734375000000e-02,7.528076171875000000e-01,4.951782226562500000e-01
7.000000000000000000e+00,1.000000000000000000e+01,1.900000000000000000e+01,3.000000000000000000e+00,0.000000000000000000e+00,-3.000000000000000000e+00,-4.000000000000000000e+00,3.000000000000000000e+00,-4.255981445312500000e-01,8.294677734375000000e-02,7.528076171875000000e-01,4.951782226562500000e-01
-6.000000000000000000e+00,-6.000000000000000000e+00,-5.000000000000000000e+00,-5.000000000000000000e+00,-2.000000000000000000e+00,-2.000000000000000000e+00,-7.000000000000000000e+00,0.000000000000000000e+00,-4.254150390625000000e-01,8.264160156250000000e-02,7.523803710937500000e-01,4.960327148437500000e-01
-2.000000000000000000e+00,-7.000000000000000000e+00,-2.500000000000000000e+01,-1.100000000000000000e+01,-1.000000000000000000e+00,0.000000000000000000e+00,-3.000000000000000000e+00,-1.000000000000000000e+00,-4.254150390625000000e-01,8.264160156250000000e-02,7.523803710937500000e-01,4.960327148437500000e-01
-5.000000000000000000e+00,-4.000000000000000000e+00,-2.000000000000000000e+00,-5.000000000000000000e+00,-8.000000000000000000e+00,-9.000000000000000000e+00,6.000000000000000000e+00,-4.000000000000000000e+00,-4.254150390625000000e-01,8.264160156250000000e-02,7.523803710937500000e-01,4.960327148437500000e-01
1.000000000000000000e+00,3.000000000000000000e+00,-2.000000000000000000e+00,5.000000000000000000e+00,5.000000000000000000e+00,1.500000000000000000e+01,-3.000000000000000000e+00,0.000000000000000000e+00,-4.254150390625000000e-01,8.264160156250000000e-02,7.523803710937500000e-01,4.960327148437500000e-01
-2.000000000000000000e+00,1.000000000000000000e+00,1.100000000000000000e+01,6.000000000000000000e+00,0.000000000000000000e+00,-2.000000000000000000e+00,2.000000000000000000e+00,2.000000000000000000e+00,-4.249877929687500000e-01,8.239746093750000000e-02,7.519531250000000000e-01,4.970092773437500000e-01
6.000000000000000000e+00,7.000000000000000000e+00,1.000000000000000000e+01,6.000000000000000000e+00,2.000000000000000000e+00,-1.000000000000000000e+00,-2.000000000000000000e+00,1.000000000000000000e+00,-4.249877929687500000e-01,8.239746093750000000e-02,7.519531250000000000e-01,4.970092773437500000e-01
-3.000000000000000000e+00,-1.200000000000000000e+01,-2.600000000000000000e+01,-1.900000000000000000e+01,-6.000000000000000000e+00,-5.000000000000000000e+00,-3.000000000000000000e+00,0.000000000000000000e+00,-4.249877929687500000e-01,8.239746093750000000e-02,7.519531250000000000e-01,4.970092773437500000e-01
-3.000000000000000000e+00,-3.000000000000000000e+00,1.400000000000000000e+01,0.000000000000000000e+00,-3.000000000000000000e+00,-4.000000000000000000e+00,-2.000000000000000000e+00,-2.000000000000000000e+00,-4.249877929687500000e-01,8.239746093750000000e-02,7.519531250000000000e-01,4.970092773437500000e-01
-3.000000000000000000e+00,-4.000000000000000000e+00,-1.200000000000000000e+01,-6.000000000000000000e+00,-3.000000000000000000e+00,1.000000000000000000e+00,5.000000000000000000e+00,-2.000000000000000000e+00,-4.250488281250000000e-01,8.215332031250000000e-02,7.513427734375000000e-01,4.979248046875000000e-01
1.000000000000000000e+00,2.000000000000000000e+00,1.500000000000000000e+01,1.000000000000000000e+01,6.000000000000000000e+00,-6.000000000000000000e+00,-1.000000000000000000e+00,-1.000000000000000000e+00,-4.250488281250000000e-01,8.215332031250000000e-02,7.513427734375000000e-01,4.979248046875000000e-01
-1.000000000000000000e+00,2.000000000000000000e+00,0.000000000000000000e+00,4.000000000000000000e+00,1.000000000000000000e+00,1.100000000000000000e+01,1.000000000000000000e+00,-3.000000000000000000e+00,-4.250488281250000000e-01,8.215332031250000000e-02,7.513427734375000000e-01,4.979248046875000000e-01
0.000000000000000000e+00,-3.000000000000000000e+00,-1.000000000000000000e+00,-8.000000000000000000e+00,-1.000000000000000000e+00,-6.000000000000000000e+00,-2.000000000000000000e+00,3.000000000000000000e+00,-4.250488281250000000e-01,8.215332031250000000e-02,7.513427734375000000e-01,4.979248046875000000e-01
0.000000000000000000e+00,0.000000000000000000e+00,-1.200000000000000000e+01,1.400000000000000000e+01,-1.000000000000000000e+00,-4.000000000000000000e+00,-4.000000000000000000e+00,-1.000000000000000000e+00,-4.250488281250000000e-01,8.197021484375000000e-02,7.507934570312500000e-01,4.989013671875000000e-01
-8.000000000000000000e+00,-1.700000000000000000e+01,-1.300000000000000000e+01,-2.200000000000000000e+01,0.000000000000000000e+00,-1.000000000000000000e+00,2.000000000000000000e+00,-4.000000000000000000e+00,-4.250488281250000000e-01,8.197021484375000000e-02,7.507934570312500000e-01,4.989013671875000000e-01
1.000000000000000000e+00,1.000000000000000000e+01,1.000000000000000000e+01,1.100000000000000000e+01,-1.000000000000000000e+00,-2.000000000000000000e+00,-7.000000000000000000e+00,1.000000000000000000e+00,-4.250488281250000000e-01,8.197021484375000000e-02,7.507934570312500000e-01,4.989013671875000000e-01
0.000000000000000000e+00,-1.000000000000000000e+00,6.000000000000000000e+00,0.000000000000000000e+00,3.000000000000000000e+00,0.000000000000000000e+00,6.000000000000000000e+00,2.000000000000000000e+00,-4.250488281250000000e-01,8.197021484375000000e-02,7.507934570312500000e-01,4.989013671875000000e-01
-5.000000000000000000e+00,-1.200000000000000000e+01,-7.000000000000000000e+00,-2.000000000000000000e+00,-1.000000000000000000e+00,-2.000000000000000000e+00,-3.000000000000000000e+00,-3.000000000000000000e+00,-4.251098632812500000e-01,8.160400390625000000e-02,7.504882812500000000e-01,4.993286132812500000e-01
2.000000000000000000e+00,8.000000000000000000e+00,3.000000000000000000e+00,-1.000000000000000000e+00,-3.000000000000000000e+00,-2.000000000000000000e+00,-2.000000000000000000e+00,-4.000000000000000000e+00,-4.251098632812500000e-01,8.160400390625000000e-02,7.504882812500000000e-01,4.993286132812500000e-01
-2.000000000000000000e+00,-4.000000000000000000e+00,-7.000000000000000000e+00,-4.000000000000000000e+00,0.000000000000000000e+00,-1.000000000000000000e+00,-8.000000000000000000e+00,-5.000000000000000000e+00,-4.251098632812500000e-01,8.160400390625000000e-02,7.504882812500000000e-01,4.993286132812500000e-01
1.000000000000000000e+00,2.000000000000000000e+00,1.000000000000000000e+00,7.000000000000000000e+00,3.000000000000000000e+00,1.000000000000000000e+00,7.000000000000000000e+00,0.000000000000000000e+00,-4.251098632812500000e-01,8.160400390625000000e-02,7.504882812500000000e-01,4.993286132812500000e-01
-2.000000000000000000e+00,-4.000000000000000000e+00,3.000000000000000000e+00,-5.000000000000000000e+00,-2.000000000000000000e+00,-1.000000000000000000e+00,-4.000000000000000000e+00,9.000000000000000000e+00,-4.248046875000000000e-01,8.142089843750000000e-02,7.504272460937500000e-01,4.996948242187500000e-01
2.000000000000000000e+00,0.000000000000000000e+00,-2.000000000000000000e+00,1.000000000000000000e+00,0.000000000000000000e+00,5.000000000000000000e+00,1.000000000000000000e+00,-2.000000000000000000e+00,-4.248046875000000000e-01,8.142089843750000000e-02,7.504272460937500000e-01,4.996948242187500000e-01
-7.000000000000000000e+00,-5.000000000000000000e+00,1.000000000000000000e+01,-4.000000000000000000e+00,-4.000000000000000000e+00,-4.000000000000000000e+00,-8.000000000000000000e+00,-7.000000000000000000e+00,-4.248046875000000000e-01,8.142089843750000000e-02,7.504272460937500000e-01,4.996948242187500000e-01
9.000000000000000000e+00,-1.000000000000000000e+00,-7.000000000000000000e+00,1.000000000000000000e+01,6.000000000000000000e+00,-3.000000000000000000e+00,5.000000000000000000e+00,4.000000000000000000e+00,-4.248046875000000000e-01,8.142089843750000000e-02,7.504272460937500000e-01,4.996948242187500000e-01
9.000000000000000000e+00,7.000000000000000000e+00,6.000000000000000000e+00,-5.000000000000000000e+00,-2.000000000000000000e+00,-1.000000000000000000e+00,-4.000000000000000000e+00,-5.000000000000000000e+00,-4.243774414062500000e-01,8.087158203125000000e-02,7.505493164062500000e-01,5.000000000000000000e-01
-1.000000000000000000e+00,-1.000000000000000000e+00,9.000000000000000000e+00,-6.000000000000000000e+00,-2.000000000000000000e+00,-1.000000000000000000e+00,2.600000000000000000e+01,1.200000000000000000e+01,-4.243774414062500000e-01,8.087158203125000000e-02,7.505493164062500000e-01,5.000000000000000000e-01
-1.100000000000000000e+01,1.000000000000000000e+00,-1.200000000000000000e+01,1.000000000000000000e+00,0.000000000000000000e+00,-1.000000000000000000e+00,-1.300000000000000000e+01,-6.000000000000000000e+00,-4.243774414062500000e-01,8.087158203125000000e-02,7.505493164062500000e-01,5.000000000000000000e-01
-1.200000000000000000e+01,-1.500000000000000000e+01,9.000000000000000000e+00,2.000000000000000000e+00,-3.000000000000000000e+00,-9.000000000000000000e+00,-2.400000000000000000e+01,-9.000000000000000000e+00,-4.243774414062500000e-01,8.087158203125000000e-02,7.505493164062500000e-01,5.000000000000000000e-01
3.000000000000000000e+00,6.000000000000000000e+00,-1.000000000000000000e+00,4.000000000000000000e+00,-1.000000000000000000e+00,6.000000000000000000e+00,1.100000000000000000e+01,7.000000000000000000e+00,-4.238891601562500000e-01,8.020019531250000000e-02,7.507324218750000000e-01,5.002441406250000000e-01
4.000000000000000000e+00,-1.000000000000000000e+00,0.000000000000000000e+00,0.000000000000000000e+00,-3.000000000000000000e+00,-4.000000000000000000e+00,-1.000000000000000000e+00,4.000000000000000000e+00,-4.238891601562500000e-01,8.020019531250000000e-02,7.507324218750000000e-01,5.002441406250000000e-01
3.000000000000000000e+00,6.000000000000000000e+00,1.000000000000000000e+01,-4.000000000000000000e+00,-1.000000000000000000e+00,1.000000000000000000e+00,1.600000000000000000e+01,0.000000000000000000e+00,-4.238891601562500000e-01,8.020019531250000000e-02,7.507324218750000000e-01,5.002441406250000000e-01
0.000000000000000000e+00,2.000000000000000000e+00,0.000000000000000000e+00,-2.000000000000000000e+00,1.000000000000000000e+00,-1.000000000000000000e+00,6.000000000000000000e+00,3.000000000000000000e+00,-4.238891601562500000e-01,8.020019531250000000e-02,7.507324218750000000e-01,5.002441406250000000e-01
-7.000000000000000000e+00,-1.200000000000000000e+01,-2.300000000000000000e+01,-6.000000000000000000e+00,-2.000000000000000000e+00,-3.000000000000000000e+00,-1.600000000000000000e+01,-6.000000000000000000e+00,-4.238891601562500000e-01,7.904052734375000000e-02,7.509155273437500000e-01,5.001220703125000000e-01
-3.000000000000000000e+00,4.000000000000000000e+00,1.200000000000000000e+01,-1.000000000000000000e+00,-1.000000000000000000e+00,-2.000000000000000000e+00,-4.000000000000000000e+00,-6.000000000000000000e+00,-4.238891601562500000e-01,7.904052734375000000e-02,7.509155273437500000e-01,5.001220703125000000e-01
-2.000000000000000000e+00,-6.000000000000000000e+00,-3.000000000000000000e+00,8.000000000000000000e+00,-1.000000000000000000e+00,3.000000000000000000e+00,3.000000000000000000e+00,0.000000000000000000e+00,-4.238891601562500000e-01,7.904052734375000000e-02,7.509155273437500000e-01,5.001220703125000000e-01
6.000000000000000000e+00,7.000000000000000000e+00,-1.000000000000000000e+01,-3.000000000000000000e+00,-1.000000000000000000e+00,-2.000000000000000000e+00,-2.000000000000000000e+00,-2.000000000000000000e+00,-4.238891601562500000e-01,7.904052734375000000e-02,7.509155273437500000e-01,5.001220703125000000e-01
-4.000000000000000000e+00,-2.000000000000000000e+00,1.500000000000000000e+01,-1.000000000000000000e+00,-3.000000000000000000e+00,-1.000000000000000000e+00,4.000000000000000000e+00,0.000000000000000000e+00,-4.238891601562500000e-01,7.867431640625000000e-02,7.509765625000000000e-01,5.001831054687500000e-01
0.000000000000000000e+00,0.000000000000000000e+00,-1.100000000000000000e+01,-1.000000000000000000e+00,0.000000000000000000e+00,-3.000000000000000000e+00,-5.000000000000000000e+00,-4.000000000000000000e+00,-4.238891601562500000e-01,7.867431640625000000e-02,7.509765625000000000e-01,5.001831054687500000e-01
4.000000000000000000e+00,2.000000000000000000e+00,1.400000000000000000e+01,5.000000000000000000e+00,3.000000000000000000e+00,-2.000000000000000000e+00,0.000000000000000000e+00,3.000000000000000000e+00,-4.238891601562500000e-01,7.867431640625000000e-02,7.509765625000000000e-01,5.001831054687500000e-01
-3.000000000000000000e+00,-2.000000000000000000e+00,-8.000000000000000000e+00,-1.900000000000000000e+01,-9.000000000000000000e+00,2.000000000000000000e+00,-7.000000000000000000e+00,-3.000000000000000000e+00,-4.238891601562500000e-01,7.867431640625000000e-02,7.509765625000000000e-01,5.001831054687500000e-01
1.000000000000000000e+00,2.000000000000000000e+00,1.100000000000000000e+01,3.000000000000000000e+00,1.000000000000000000e+00,-5.000000000000000000e+00,4.000000000000000000e+00,-2.000000000000000000e+00,-4.235839843750000000e-01,7.934570312500000000e-02,7.506103515625000000e-01,5.007934570312500000e-01
-2.000000000000000000e+00,-2.000000000000000000e+00,-1.500000000000000000e+01,7.000000000000000000e+00,-1.000000000000000000e+00,3.000000000000000000e+00,-8.000000000000000000e+00,-8.000000000000000000e+00,-4.235839843750000000e-01,7.934570312500000000e-02,7.506103515625000000e-01,5.007934570312500000e-01
0.000000000000000000e+00,-5.000000000000000000e+00,1.400000000000000000e+01,-1.000000000000000000e+00,-2.000000000000000000e+00,-5.000000000000000000e+00,-7.000000000000000000e+00,4.000000000000000000e+00,-4.235839843750000000e-01,7.934570312500000000e-02,7.506103515625000000e-01,5.007934570312500000e-01
0.000000000000000000e+00,8.000000000000000000e+00,1.200000000000000000e+01,3.000000000000000000e+00,0.000000000000000000e+00,-3.000000000000000000e+00,4.000000000000000000e+00,-1.500000000000000000e+01,-4.235839843750000000e-01,7.934570312500000000e-02,7.506103515625000000e-01,5.007934570312500000e-01
-4.000000000000000000e+00,-7.000000000000000000e+00,-7.000000000000000000e+00,-4.000000000000000000e+00,-1.000000000000000000e+00,-2.000000000000000000e+00,-5.000000000000000000e+00,-2.000000000000000000e+00,-4.227905273437500000e-01,8.099365234375000000e-02,7.502441406250000000e-01,5.018310546875000000e-01
0.000000000000000000e+00,5.000000000000000000e+00,9.000000000000000000e+00,5.000000000000000000e+00,0.000000000000000000e+00,0.000000000000000000e+00,-8.000000000000000000e+00,0.000000000000000000e+00,-4.227905273437500000e-01,8.099365234375000000e-02,7.502441406250000000e-01,5.018310546875000000e-01
6.000000000000000000e+00,2.000000000000000000e+00,-1.100000000000000000e+01,-4.000000000000000000e+00,1.000000000000000000e+00,-2.000000000000000000e+00,8.000000000000000000e+00,1.000000000000000000e+00,-4.227905273437500000e-01,8.099365234375000000e-02,7.502441406250000000e-01,5.018310546875000000e-01
-7.000000000000000000e+00,-9.000000000000000000e+00,0.000000000000000000e+00,-2.000000000000000000e+00,-4.000000000000000000e+00,1.000000000000000000e+00,1.000000000000000000e+00,1.000000000000000000e+00,-4.227905273437500000e-01,8.099365234375000000e-02,7.502441406250000000e-01,5.018310546875000000e-01
-6.000000000000000000e+00,-1.100000000000000000e+01,7.000000000000000000e+00,-5.000000000000000000e+00,-4.000000000000000000e+00,-1.000000000000000000e+00,-3.000000000000000000e+00,-4.000000000000000000e+00,-4.219360351562500000e-01,8.251953125000000000e-02,7.500000000000000000e-01,5.025634765625000000e-01
0.000000000000000000e+00,0.000000000000000000e+00,-8.000000000000000000e+00,-8.000000000000000000e+00,2.000000000000000000e+00,0.000000000000000000e+00,5.000000000000000000e+00,-2.000000000000000000e+00,-4.219360351562500000e-01,8.251953125000000000e-02,7.500000000000000000e-01,5.025634765625000000e-01
3.000000000000000000e+00,2.000000000000000000e+00,1.200000000000000000e+01,-2.000000000000000000e+00,-1.000000000000000000e+00,-7.000000000000000000e+00,-1.000000000000000000e+01,1.000000000000000000e+00,-4.219360351562500000e-01,8.251953125000000000e-02,7.500000000000000000e-01,5.025634765625000000e-01
4.000000000000000000e+00,3.000000000000000000e+00,-8.000000000000000000e+00,3.000000000000000000e+00,1.000000000000000000e+00,2.000000000000000000e+00,3.000000000000000000e+00,3.000000000000000000e+00,-4.219360351562500000e-01,8.251953125000000000e-02,7.500000000000000000e-01,5.025634765625000000e-01
8.000000000000000000e+00,4.000000000000000000e+00,3.000000000000000000e+00,2.000000000000000000e+00,1.000000000000000000e+00,-1.000000000000000000e+00,3.000000000000000000e+00,-1.000000000000000000e+00,-4.215698242187500000e-01,8.355712890625000000e-02,7.500000000000000000e-01,5.027465820312500000e-01
-1.100000000000000000e+01,-2.000000000000000000e+00,-2.000000000000000000e+00,1.200000000000000000e+01,-2.000000000000000000e+00,-8.000000000000000000e+00,-1.500000000000000000e+01,3.000000000000000000e+00,-4.215698242187500000e-01,8.355712890625000000e-02,7.500000000000000000e-01,5.027465820312500000e-01
-8.000000000000000000e+00,-1.500000000000000000e+01,-1.100000000000000000e+01,-9.000000000000000000e+00,-4.000000000000000000e+00,5.000000000000000000e+00,-3.000000000000000000e+00,-3.000000000000000000e+00,-4.215698242187500000e-01,8.355712890625000000e-02,7.500000000000000000e-01,5.027465820312500000e-01
4.000000000000000000e+00,8.000000000000000000e+00,2.000000000000000000e+00,-1.000000000000000000e+00,2.000000000000000000e+00,3.000000000000000000e+00,6.000000000000000000e+00,-2.000000000000000000e+00,-4.215698242187500000e-01,8.355712890625000000e-02,7.500000000000000000e-01,5.027465820312500000e-01
-2.000000000000000000e+00,-6.000000000000000000e+00,-3.000000000000000000e+00,-9.000000000000000000e+00,-3.000000000000000000e+00,-3.000000000000000000e+00,-2.000000000000000000e+00,2.000000000000000000e+00,-4.215087890625000000e-01,8.349609375000000000e-02,7.502441406250000000e-01,5.024414062500000000e-01
3.000000000000000000e+00,-1.000000000000000000e+00,-1.000000000000000000e+00,4.000000000000000000e+00,0.000000000000000000e+00,-2.000000000000000000e+00,-3.000000000000000000e+00,-2.000000000000000000e+00,-4.215087890625000000e-01,8.349609375000000000e-02,7.502441406250000000e-01,5.024414062500000000e-01
1.000000000000000000e+00,7.000000000000000000e+00,5.000000000000000000e+00,2.000000000000000000e+00,-1.000000000000000000e+00,1.000000000000000000e+00,1.200000000000000000e+01,0.000000000000000000e+00,-4.215087890625000000e-01,8.349609375000000000e-02,7.502441406250000000e-01,5.024414062500000000e-01
-7.000000000000000000e+00,-1.100000000000000000e+01,-1.800000000000000000e+01,-4.000000000000000000e+00,-3.000000000000000000e+00,0.000000000000000000e+00,-1.400000000000000000e+01,-1.000000000000000000e+00,-4.215087890625000000e-01,8.349609375000000000e-02,7.502441406250000000e-01,5.024414062500000000e-01
0.000000000000000000e+00,3.000000000000000000e+00,-3.000000000000000000e+00,-2.000000000000000000e+00,0.000000000000000000e+00,2.000000000000000000e+00,-2.000000000000000000e+00,-1.000000000000000000e+00,-4.216308593750000000e-01,8.282470703125000000e-02,7.502441406250000000e-01,5.023803710937500000e-01
1.000000000000000000e+00,-1.000000000000000000e+00,1.000000000000000000e+00,1.000000000000000000e+00,-1.000000000000000000e+00,-7.000000000000000000e+00,-5.000000000000000000e+00,-1.000000000000000000e+00,-4.216308593750000000e-01,8.282470703125000000e-02,7.502441406250000000e-01,5.023803710937500000e-01
-4.000000000000000000e+00,0.000000000000000000e+00,-3.000000000000000000e+00,2.000000000000000000e+00,0.000000000000000000e+00,1.000000000000000000e+00,1.000000000000000000e+01,1.500000000000000000e+01,-4.216308593750000000e-01,8.282470703125000000e-02,7.502441406250000000e-01,5.023803710937500000e-01
-5.000000000000000000e+00,-6.000000000000000000e+00,-7.000000000000000000e+00,-5.000000000000000000e+00,-4.000000000000000000e+00,0.000000000000000000e+00,-1.000000000000000000e+00,-6.000000000000000000e+00,-4.216308593750000000e-01,8.282470703125000000e-02,7.502441406250000000e-01,5.023803710937500000e-01
3.000000000000000000e+00,0.000000000000000000e+00,1.000000000000000000e+00,-1.200000000000000000e+01,-3.000000000000000000e+00,0.000000000000000000e+00,4.000000000000000000e+00,3.000000000000000000e+00,-4.218139648437500000e-01,8.221435546875000000e-02,7.500000000000000000e-01,5.026855468750000000e-01
-5.000000000000000000e+00,-3.000000000000000000e+00,-2.000000000000000000e+00,1.000000000000000000e+00,-4.000000000000000000e+00,-2.000000000000000000e+00,-1.700000000000000000e+01,-7.000000000000000000e+00,-4.218139648437500000e-01,8.221435546875000000e-02,7.500000000000000000e-01,5.026855468750000000e-01
2.000000000000000000e+00,0.000000000000000000e+00,1.000000000000000000e+01,-1.000000000000000000e+00,-1.000000000000000000e+00,-1.100000000000000000e+01,-8.000000000000000000e+00,-3.000000000000000000e+00,-4.218139648437500000e-01,8.221435546875000000e-02,7.500000000000000000e-01,5.026855468750000000e-01
3.000000000000000000e+00,4.000000000000000000e+00,-3.000000000000000000e+00,1.000000000000000000e+00,1.000000000000000000e+00,-6.000000000000000000e+00,1.100000000000000000e+01,5.000000000000000000e+00,-4.218139648437500000e-01,8.221435546875000000e-02,7.500000000000000000e-01,5.026855468750000000e-01
-8.000000000000000000e+00,-2.000000000000000000e+00,-1.400000000000000000e+01,3.000000000000000000e+00,-1.000000000000000000e+00,-2.000000000000000000e+00,-4.000000000000000000e+00,-4.000000000000000000e+00,-4.224243164062500000e-01,8.135986328125000000e-02,7.495727539062500000e-01,5.029907226562500000e-01
0.000000000000000000e+00,-6.000000000000000000e+00,-1.900000000000000000e+01,-2.000000000000000000e+00,-4.000000000000000000e+00,-2.000000000000000000e+00,-1.300000000000000000e+01,4.000000000000000000e+00,-4.224243164062500000e-01,8.135986328125000000e-02,7.495727539062500000e-01,5.029907226562500000e-01
3.000000000000000000e+00,4.000000000000000000e+00,1.000000000000000000e+00,-8.000000000000000000e+00,2.000000000000000000e+00,1.100000000000000000e+01,4.000000000000000000e+00,-4.000000000000000000e+00,-4.224243164062500000e-01,8.135986328125000000e-02,7.495727539062500000e-01,5.029907226562500000e-01
-3.000000000000000000e+00,-3.000000000000000000e+00,5.000000000000000000e+00,4.000000000000000000e+00,-5.000000000000000000e+00,2.000000000000000000e+00,3.000000000000000000e+00,6.000000000000000000e+00,-4.224243164062500000e-01,8.135986328125000000e-02,7.495727539062500000e-01,5.029907226562500000e-01
-1.000000000000000000e+00,3.000000000000000000e+00,1.300000000000000000e+01,1.000000000000000000e+00,2.000000000000000000e+00,-5.000000000000000000e+00,-3.000000000000000000e+00,-2.000000000000000000e+01,-4.232177734375000000e-01,8.026123046875000000e-02,7.489624023437500000e-01,5.034790039062500000e-01
4.000000000000000000e+00,1.000000000000000000e+00,0.000000000000000000e+00,-4.000000000000000000e+00,-4.000000000000000000e+00,1.000000000000000000e+00,6.000000000000000000e+00,3.000000000000000000e+00,-4.232177734375000000e-01,8.026123046875000000e-02,7.489624023437500000e-01,5.034790039062500000e-01
-3.000000000000000000e+00,-5.000000000000000000e+00,-1.000000000000000000e+01,3.000000000000000000e+00,0.000000000000000000e+00,-1.000000000000000000e+00,0.000000000000000000e+00,-2.000000000000000000e+00,-4.232177734375000000e-01,8.026123046875000000e-02,7.489624023437500000e-01,5.034790039062500000e-01
1.000000000000000000e+00,6.000000000000000000e+00,3.000000000000000000e+00,0.000000000000000000e+00,-1.000000000000000000e+00,-1.000000000000000000e+00,1.000000000000000000e+00,2.000000000000000000e+00,-4.232177734375000000e-01,8.026123046875000000e-02,7.489624023437500000e-01,5.034790039062500000e-01
-2.000000000000000000e+00,2.000000000000000000e+00,-4.000000000000000000e+00,4.000000000000000000e+00,-1.000000000000000000e+00,2.000000000000000000e+00,-1.000000000000000000e+00,4.000000000000000000e+00,-4.229736328125000000e-01,8.081054687500000000e-02,7.482299804687500000e-01,5.046386718750000000e-01
-1.000000000000000000e+00,1.000000000000000000e+00,1.400000000000000000e+01,-4.000000000000000000e+00,1.000000000000000000e+00,-1.000000000000000000e+00,6.000000000000000000e+00,-3.000000000000000000e+00,-4.229736328125000000e-01,8.081054687500000000e-02,7.482299804687500000e-01,5.046386718750000000e-01
2.000000000000000000e+00,0.000000000000000000e+00,3.000000000000000000e+00,0.000000000000000000e+00,-3.000000000000000000e+00,4.000000000000000000e+00,-2.000000000000000000e+00,-4.000000000000000000e+00,-4.229736328125000000e-01,8.081054687500000000e-02,7.482299804687500000e-01,5.046386718750000000e-01
3.000000000000000000e+00,1.000000000000000000e+00,1.100000000000000000e+01,1.000000000000000000e+00,-2.000000000000000000e+00,-8.000000000000000000e+00,3.000000000000000000e+00,4.000000000000000000e+00,-4.229736328125000000e-01,8.081054687500000000e-02,7.482299804687500000e-01,5.046386718750000000e-01
-1.000000000000000000e+00,3.000000000000000000e+00,-1.200000000000000000e+01,2.000000000000000000e+00,3.000000000000000000e+00,1.300000000000000000e+01,2.000000000000000000e+00,2.000000000000000000e+00,-4.228515625000000000e-01,8.172607421875000000e-02,7.477416992187500000e-01,5.053100585937500000e-01
-4.000000000000000000e+00,-9.000000000000000000e+00,-5.000000000000000000e+00,-7.000000000000000000e+00,-3.000000000000000000e+00,-3.000000000000000000e+00,6.000000000000000000e+00,-1.000000000000000000e+00,-4.228515625000000000e-01,8.172607421875000000e-02,7.477416992187500000e-01,5.053100585937500000e-01
-2.000000000000000000e+00,1.000000000000000000e+00,-1.000000000000000000e+00,4.000000000000000000e+00,1.000000000000000000e+00,-4.000000000000000000e+00,-5.000000000000000000e+00,0.000000000000000000e+00,-4.228515625000000000e-01,8.172607421875000000e-02,7.477416992187500000e-01,5.053100585937500000e-01
1.000000000000000000e+00,-3.000000000000000000e+00,1.000000000000000000e+00,2.000000000000000000e+00,1.000000000000000000e+00,-2.000000000000000000e+00,1.000000000000000000e+00,-1.000000000000000000e+00,-4.228515625000000000e-01,8.172607421875000000e-02,7.477416992187500000e-01,5.053100585937500000e-01
-2.200000000000000000e+01,-2.000000000000000000e+00,8.000000000000000000e+00,1.000000000000000000e+01,0.000000000000000000e+00,0.000000000000000000e+00,-8.000000000000000000e+00,-5.000000000000000000e+00,-4.235229492187500000e-01,8.111572265625000000e-02,7.477416992187500000e-01,5.048828125000000000e-01
9.000000000000000000e+00,-2.000000000000000000e+00,0.000000000000000000e+00,-6.000000000000000000e+00,0.000000000000000000e+00,6.000000000000000000e+00,2.400000000000000000e+01,4.000000000000000000e+00,-4.235229492187500000e-01,8.111572265625000000e-02,7.477416992187500000e-01,5.048828125000000000e-01
2.000000000000000000e+01,2.000000000000000000e+00,3.000000000000000000e+00,4.000000000000000000e+00,2.000000000000000000e+00,5.000000000000000000e+00,-1.900000000000000000e+01,0.000000000000000000e+00,-4.235229492187500000e-01,8.111572265625000000e-02,7.477416992187500000e-01,5.048828125000000000e-01
-7.000000000000000000e+00,-7.000000000000000000e+00,-4.000000000000000000e+00,-1.000000000000000000e+01,-5.000000000000000000e+00,-6.000000000000000000e+00,-2.000000000000000000e+00,4.000000000000000000e+00,-4.235229492187500000e-01,8.111572265625000000e-02,7.477416992187500000e-01,5.048828125000000000e-01
3.000000000000000000e+00,3.000000000000000000e+00,4.000000000000000000e+00,0.000000000000000000e+00,-2.000000000000000000e+00,-4.000000000000000000e+00,5.000000000000000000e+00,6.000000000000000000e+00,-4.243164062500000000e-01,7.958984375000000000e-02,7.477416992187500000e-01,5.043945312500000000e-01
-1.100000000000000000e+01,-2.000000000000000000e+00,-4.000000000000000000e+00,-1.000000000000000000e+00,-2.000000000000000000e+00,3.000000000000000000e+00,1.000000000000000000e+01,-2.000000000000000000e+00,-4.243164062500000000e-01,7.958984375000000000e-02,7.477416992187500000e-01,5.043945312500000000e-01
-4.000000000000000000e+00,-3.000000000000000000e+00,-2.000000000000000000e+00,4.000000000000000000e+00,-2.000000000000000000e+00,-5.000000000000000000e+00,-6.000000000000000000e+00,-6.000000000000000000e+00,-4.243164062500000000e-01,7.958984375000000000e-02,7.477416992187500000e-01,5.043945312500000000e-01
4.000000000000000000e+00,5.000000000000000000e+00,-2.000000000000000000e+00,2.000000000000000000e+00,3.000000000000000000e+00,3.000000000000000000e+00,-2.000000000000000000e+00,-1.000000000000000000e+00,-4.243164062500000000e-01,7.958984375000000000e-02,7.477416992187500000e-01,5.043945312500000000e-01
0.000000000000000000e+00,-6.000000000000000000e+00,-7.000000000000000000e+00,-5.000000000000000000e+00,-6.000000000000000000e+00,-9.000000000000000000e+00,-3.000000000000000000e+00,-3.000000000000000000e+00,-4.247436523437500000e-01,7.885742187500000000e-02,7.476806640625000000e-01,5.042114257812500000e-01
0.000000000000000000e+00,2.000000000000000000e+00,1.500000000000000000e+01,-8.000000000000000000e+00,0.000000000000000000e+00,-5.000000000000000000e+00,-1.100000000000000000e+01,2.000000000000000000e+00,-4.247436523437500000e-01,7.885742187500000000e-02,7.476806640625000000e-01,5.042114257812500000e-01
0.000000000000000000e+00,4.000000000000000000e+00,-5.000000000000000000e+00,1.500000000000000000e+01,0.000000000000000000e+00,1.000000000000000000e+01,1.000000000000000000e+01,-2.000000000000000000e+00,-4.247436523437500000e-01,7.885742187500000000e-02,7.476806640625000000e-01,5.042114257812500000e-01
-5.000000000000000000e+00,-7.000000000000000000e+00,-5.000000000000000000e+00,-1.000000000000000000e+01,-8.000000000000000000e+00,0.000000000000000000e+00,-3.000000000000000000e+00,-3.000000000000000000e+00,-4.247436523437500000e-01,7.885742187500000000e-02,7.476806640625000000e-01,5.042114257812500000e-01
1.000000000000000000e+00,-2.000000000000000000e+00,0.000000000000000000e+00,-5.000000000000000000e+00,0.000000000000000000e+00,-3.000000000000000000e+00,2.000000000000000000e+00,5.000000000000000000e+00,-4.249267578125000000e-01,7.861328125000000000e-02,7.475585937500000000e-01,5.042724609375000000e-01
5.000000000000000000e+00,2.000000000000000000e+00,8.000000000000000000e+00,5.000000000000000000e+00,0.000000000000000000e+00,0.000000000000000000e+00,-2.000000000000000000e+00,-3.000000000000000000e+00,-4.249267578125000000e-01,7.861328125000000000e-02,7.475585937500000000e-01,5.042724609375000000e-01
-5.000000000000000000e+00,-6.000000000000000000e+00,-6.000000000000000000e+00,-9.000000000000000000e+00,-3.000000000000000000e+00,-7.000000000000000000e+00,-1.000000000000000000e+00,1.000000000000000000e+00,-4.249267578125000000e-01,7.861328125000000000e-02,7.475585937500000000e-01,5.042724609375000000e-01
-2.000000000000000000e+00,1.000000000000000000e+00,6.000000000000000000e+00,1.000000000000000000e+00,1.000000000000000000e+00,5.000000000000000000e+00,-2.000000000000000000e+00,-6.000000000000000000e+00,-4.249267578125000000e-01,7.861328125000000000e-02,7.475585937500000000e-01,5.042724609375000000e-01
2.000000000000000000e+00,5.000000000000000000e+00,1.100000000000000000e+01,-3.000000000000000000e+00,-3.000000000000000000e+00,-1.000000000000000000e+01,-9.000000000000000000e+00,2.000000000000000000e+00,-4.249267578125000000e-01,7.873535156250000000e-02,7.474365234375000000e-01,5.045166015625000000e-01
2.000000000000000000e+00,0.000000000000000000e+00,-5.000000000000000000e+00,7.000000000000000000e+00,4.000000000000000000e+00,1.100000000000000000e+01,5.000000000000000000e+00,-1.000000000000000000e+00,-4.249267578125000000e-01,7.873535156250000000e-02,7.474365234375000000e-01,5.045166015625000000e-01
-1.300000000000000000e+01,-1.700000000000000000e+01,-1.400000000000000000e+01,-1.800000000000000000e+01,-7.000000000000000000e+00,-6.000000000000000000e+00,-2.000000000000000000e+00,-1.100000000000000000e+01,-4.249267578125000000e-01,7.873535156250000000e-02,7.474365234375000000e-01,5.045166015625000000e-01
-2.000000000000000000e+00,0.000000000000000000e+00,4.000000000000000000e+00,8.000000000000000000e+00,1.000000000000000000e+00,0.000000000000000000e+00,4.000000000000000000e+00,1.000000000000000000e+00,-4.249267578125000000e-01,7.873535156250000000e-02,7.474365234375000000e-01,5.045166015625000000e-01
5.000000000000000000e+00,0.000000000000000000e+00,0.000000000000000000e+00,-7.000000000000000000e+00,-1.000000000000000000e+00,-5.000000000000000000e+00,2.000000000000000000e+00,8.000000000000000000e+00,-4.242553710937500000e-01,7.989501953125000000e-02,7.472534179687500000e-01,5.051879882812500000e-01
0.000000000000000000e+00,6.000000000000000000e+00,2.000000000000000000e+00,5.000000000000000000e+00,-1.000000000000000000e+00,-6.000000000000000000e+00,-1.500000000000000000e+01,-8.000000000000000000e+00,-4.242553710937500000e-01,7.989501953125000000e-02,7.472534179687500000e-01,5.051879882812500000e-01
0.000000000000000000e+00,5.000000000000000000e+00,-4.000000000000000000e+00,3.000000000000000000e+00,3.000000000000000000e+00,1.700000000000000000e+01,3.300000000000000000e+01,8.000000000000000000e+00,-4.242553710937500000e-01,7.989501953125000000e-02,7.472534179687500000e-01,5.051879882812500000e-01
-2.000000000000000000e+00,-4.000000000000000000e+00,-1.000000000000000000e+00,-3.000000000000000000e+00,-1.000000000000000000e+00,-1.200000000000000000e+01,-3.900000000000000000e+01,-1.200000000000000000e+01,-4.242553710937500000e-01,7.989501953125000000e-02,7.472534179687500000e-01,5.051879882812500000e-01
5.000000000000000000e+00,-3.000000000000000000e+00,1.000000000000000000e+00,3.000000000000000000e+00,0.000000000000000000e+00,7.000000000000000000e+00,5.000000000000000000e+00,7.000000000000000000e+00,-4.235839843750000000e-01,8.050537109375000000e-02,7.473754882812500000e-01,5.054321289062500000e-01
-5.000000000000000000e+00,-4.000000000000000000e+00,-9.000000000000000000e+00,-1.100000000000000000e+01,-8.000000000000000000e+00,-5.000000000000000000e+00,-1.000000000000000000e+01,0.000000000000000000e+00,-4.235839843750000000e-01,8.050537109375000000e-02,7.473754882812500000e-01,5.054321289062500000e-01
-2.000000000000000000e+00,-2.000000000000000000e+00,2.000000000000000000e+00,5.000000000000000000e+00,-1.000000000000000000e+00,-3.000000000000000000e+00,-1.200000000000000000e+01,-4.000000000000000000e+00,-4.235839843750000000e-01,8.050537109375000000e-02,7.473754882812500000e-01,5.054321289062500000e-01
2.000000000000000000e+00,6.000000000000000000e+00,2.000000000000000000e+00,-2.000000000000000000e+00,1.000000000000000000e+00,-3.000000000000000000e+00,1.600000000000000000e+01,5.000000000000000000e+00,-4.235839843750000000e-01,8.050537109375000000e-02,7.473754882812500000e-01,5.054321289062500000e-01
1.000000000000000000e+00,6.000000000000000000e+00,-6.000000000000000000e+00,-1.200000000000000000e+01,0.000000000000000000e+00,7.000000000000000000e+00,2.000000000000000000e+00,-8.000000000000000000e+00,-4.233398437500000000e-01,8.032226562500000000e-02,7.476806640625000000e-01,5.051879882812500000e-01
0.000000000000000000e+00,-2.000000000000000000e+00,-7.000000000000000000e+00,3.000000000000000000e+00,-1.000000000000000000e+00,-1.000000000000000000e+00,-3.000000000000000000e+00,1.000000000000000000e+00,-4.233398437500000000e-01,8.032226562500000000e-02,7.476806640625000000e-01,5.051879882812500000e-01
3.000000000000000000e+00,-1.000000000000000000e+00,1.000000000000000000e+01,-4.000000000000000000e+00,-3.000000000000000000e+00,-7.000000000000000000e+00,-7.000000000000000000e+00,0.000000000000000000e+00,-4.233398437500000000e-01,8.032226562500000000e-02,7.476806640625000000e-01,5.051879882812500000e-01
-2.000000000000000000e+00,1.000000000000000000e+00,-1.000000000000000000e+01,3.000000000000000000e+00,3.000000000000000000e+00,4.000000000000000000e+00,8.000000000000000000e+00,-4.000000000000000000e+00,-4.233398437500000000e-01,8.032226562500000000e-02,7.476806640625000000e-01,5.051879882812500000e-01
-6.000000000000000000e+00,-8.000000000000000000e+00,4.000000000000000000e+00,-4.000000000000000000e+00,-6.000000000000000000e+00,-1.200000000000000000e+01,-9.000000000000000000e+00,-4.000000000000000000e+00,-4.237670898437500000e-01,7.977294921875000000e-02,7.479248046875000000e-01,5.045776367187500000e-01
-4.000000000000000000e+00,0.000000000000000000e+00,-4.000000000000000000e+00,5.000000000000000000e+00,0.000000000000000000e+00,5.000000000000000000e+00,6.000000000000000000e+00,-3.000000000000000000e+00,-4.237670898437500000e-01,7.977294921875000000e-02,7.479248046875000000e-01,5.045776367187500000e-01
-3.000000000000000000e+00,2.000000000000000000e+00,2.000000000000000000e+00,-5.000000000000000000e+00,-3.000000000000000000e+00,-5.000000000000000000e+00,-4.000000000000000000e+00,-2.000000000000000000e+00,-4.237670898437500000e-01,7.977294921875000000e-02,7.479248046875000000e-01,5.045776367187500000e-01
0.000000000000000000e+00,-2.000000000000000000e+00,0.000000000000000000e+00,-5.000000000000000000e+00,-3.000000000000000000e+00,-5.000000000000000000e+00,3.000000000000000000e+00,3.000000000000000000e+00,-4.237670898437500000e-01,7.977294921875000000e-02,7.479248046875000000e-01,5.045776367187500000e-01
0.000000000000000000e+00,-2.000000000000000000e+00,-9.000000000000000000e+00,7.000000000000000000e+00,-1.000000000000000000e+00,0.000000000000000000e+00,0.000000000000000000e+00,3.000000000000000000e+00,-4.242553710937500000e-01,7.836914062500000000e-02,7.481079101562500000e-01,5.040893554687500000e-01
-8.000000000000000000e+00,-8.000000000000000000e+00,3.000000000000000000e+00,-1.000000000000000000e+00,-3.000000000000000000e+00,-1.000000000000000000e+01,-1.200000000000000000e+01,-2.300000000000000000e+01,-4.242553710937500000e-01,7.836914062500000000e-02,7.481079101562500000e-01,5.040893554687500000e-01
-3.000000000000000000e+00,0.000000000000000000e+00,7.000000000000000000e+00,0.000000000000000000e+00,-1.000000000000000000e+00,8.000000000000000000e+00,2.600000000000000000e+01,8.000000000000000000e+00,-4.242553710937500000e-01,7.836914062500000000e-02,7.481079101562500000e-01,5.040893554687500000e-01
8.000000000000000000e+00,4.000000000000000000e+00,4.000000000000000000e+00,-9.000000000000000000e+00,-1.000000000000000000e+00,-1.300000000000000000e+01,-5.300000000000000000e+01,-1.000000000000000000e+00,-4.242553710937500000e-01,7.836914062500000000e-02,7.481079101562500000e-01,5.040893554687500000e-01
0.000000000000000000e+00,-4.000000000000000000e+00,-9.000000000000000000e+00,-1.000000000000000000e+01,0.000000000000000000e+00,1.500000000000000000e+01,1.900000000000000000e+01,2.000000000000000000e+00,-4.237060546875000000e-01,7.751464843750000000e-02,7.482299804687500000e-01,5.045166015625000000e-01
-5.000000000000000000e+00,-1.100000000000000000e+01,-6.000000000000000000e+00,1.400000000000000000e+01,2.000000000000000000e+00,-6.000000000000000000e+00,-3.000000000000000000e+00,-2.000000000000000000e+00,-4.237060546875000000e-01,7.751464843750000000e-02,7.482299804687500000e-01,5.045166015625000000e-01
-2.000000000000000000e+00,-5.000000000000000000e+00,-1.000000000000000000e+01,4.000000000000000000e+00,-1.000000000000000000e+00,-6.000000000000000000e+00,1.000000000000000000e+00,-2.000000000000000000e+00,-4.237060546875000000e-01,7.751464843750000000e-02,7.482299804687500000e-01,5.045166015625000000e-01
0.000000000000000000e+00,1.000000000000000000e+00,7.000000000000000000e+00,-2.000000000000000000e+00,0.000000000000000000e+00,5.000000000000000000e+00,1.200000000000000000e+01,-3.000000000000000000e+00,-4.237060546875000000e-01,7.751464843750000000e-02,7.482299804687500000e-01,5.045166015625000000e-01
-1.000000000000000000e+00,-1.000000000000000000e+00,1.000000000000000000e+00,-5.000000000000000000e+00,-2.000000000000000000e+00,-1.000000000000000000e+00,-7.000000000000000000e+00,-9.000000000000000000e+00,-4.224243164062500000e-01,7.836914062500000000e-02,7.481079101562500000e-01,5.057373046875000000e-01
-3.000000000000000000e+00,-5.000000000000000000e+00,-1.200000000000000000e+01,-6.000000000000000000e+00,1.000000000000000000e+00,3.000000000000000000e+00,5.000000000000000000e+00,7.000000000000000000e+00,-4.224243164062500000e-01,7.836914062500000000e-02,7.481079101562500000e-01,5.057373046875000000e-01
0.000000000000000000e+00,3.000000000000000000e+00,9.000000000000000000e+00,-2.000000000000000000e+00,-3.000000000000000000e+00,-6.000000000000000000e+00,-1.100000000000000000e+01,1.000000000000000000e+00,-4.224243164062500000e-01,7.836914062500000000e-02,7.481079101562500000e-01,5.057373046875000000e-01
-2.000000000000000000e+00,-1.000000000000000000e+00,-6.000000000000000000e+00,3.000000000000000000e+00,-5.000000000000000000e+00,4.000000000000000000e+00,1.100000000000000000e+01,2.000000000000000000e+00,-4.224243164062500000e-01,7.836914062500000000e-02,7.481079101562500000e-01,5.057373046875000000e-01
-1.000000000000000000e+00,-4.000000000000000000e+00,4.000000000000000000e+00,8.000000000000000000e+00,0.000000000000000000e+00,-6.000000000000000000e+00,-5.000000000000000000e+00,-4.000000000000000000e+00,-4.216918945312500000e-01,7.946777343750000000e-02,7.477416992187500000e-01,5.065917968750000000e-01
3.000000000000000000e+00,7.000000000000000000e+00,-3.000000000000000000e+00,-8.000000000000000000e+00,-3.000000000000000000e+00,5.000000000000000000e+00,6.000000000000000000e+00,1.000000000000000000e+00,-4.216918945312500000e-01,7.946777343750000000e-02,7.477416992187500000e-01,5.065917968750000000e-01
2.000000000000000000e+00,2.000000000000000000e+00,-3.000000000000000000e+00,-4.000000000000000000e+00,0.000000000000000000e+00,-1.000000000000000000e+00,-2.000000000000000000e+00,3.000000000000000000e+00,-4.216918945312500000e-01,7.946777343750000000e-02,7.477416992187500000e-01,5.065917968750000000e-01
-4.000000000000000000e+00,-2.000000000000000000e+00,-6.000000000000000000e+00,0.000000000000000000e+00,1.000000000000000000e+00,3.000000000000000000e+00,7.000000000000000000e+00,-4.000000000000000000e+00,-4.216918945312500000e-01,7.946777343750000000e-02,7.477416992187500000e-01,5.065917968750000000e-01
-2.000000000000000000e+00,1.000000000000000000e+00,-3.000000000000000000e+00,-3.000000000000000000e+00,0.000000000000000000e+00,-1.000000000000000000e+00,-3.000000000000000000e+00,-1.000000000000000000e+00,-4.218139648437500000e-01,7.952880859375000000e-02,7.477416992187500000e-01,5.065917968750000000e-01
-2.000000000000000000e+00,-4.000000000000000000e+00,1.000000000000000000e+00,1.000000000000000000e+00,-1.000000000000000000e+00,-3.000000000000000000e+00,-5.000000000000000000e+00,-1.000000000000000000e+00,-4.218139648437500000e-01,7.952880859375000000e-02,7.477416992187500000e-01,5.065917968750000000e-01
1.000000000000000000e+00,5.000000000000000000e+00,8.000000000000000000e+00,5.000000000000000000e+00,-3.000000000000000000e+00,0.000000000000000000e+00,-7.000000000000000000e+00,-3.000000000000000000e+00,-4.218139648437500000e-01,7.952880859375000000e-02,7.477416992187500000e-01,5.065917968750000000e-01
-5.000000000000000000e+00,-1.500000000000000000e+01,-9.000000000000000000e+00,-4.000000000000000000e+00,0.000000000000000000e+00,2.000000000000000000e+00,3.000000000000000000e+00,0.000000000000000000e+00,-4.218139648437500000e-01,7.952880859375000000e-02,7.477416992187500000e-01,5.065917968750000000e-01
2.000000000000000000e+00,2.000000000000000000e+00,-8.000000000000000000e+00,-8.000000000000000000e+00,-1.000000000000000000e+00,-4.000000000000000000e+00,0.000000000000000000e+00,-2.000000000000000000e+00,-4.224853515625000000e-01,7.843017578125000000e-02,7.480468750000000000e-01,5.056762695312500000e-01
1.000000000000000000e+00,-1.000000000000000000e+00,6.000000000000000000e+00,-1.000000000000000000e+00,1.000000000000000000e+00,2.000000000000000000e+00,0.000000000000000000e+00,3.000000000000000000e+00,-4.224853515625000000e-01,7.843017578125000000e-02,7.480468750000000000e-01,5.056762695312500000e-01
0.000000000000000000e+00,3.000000000000000000e+00,0.000000000000000000e+00,-1.200000000000000000e+01,1.000000000000000000e+00,-2.000000000000000000e+00,-7.000000000000000000e+00,-9.000000000000000000e+00,-4.224853515625000000e-01,7.843017578125000000e-02,7.480468750000000000e-01,5.056762695312500000e-01
0.000000000000000000e+00,-2.000000000000000000e+00,1.000000000000000000e+00,1.400000000000000000e+01,1.000000000000000000e+00,-1.000000000000000000e+00,9.000000000000000000e+00,2.000000000000000000e+00,-4.224853515625000000e-01,7.843017578125000000e-02,7.480468750000000000e-01,5.056762695312500000e-01
-3.000000000000000000e+00,-4.000000000000000000e+00,-4.000000000000000000e+00,-9.000000000000000000e+00,-1.000000000000000000e+00,-2.000000000000000000e+00,-8.000000000000000000e+00,-1.300000000000000000e+01,-4.230957031250000000e-01,7.690429687500000000e-02,7.485961914062500000e-01,5.045776367187500000e-01
-1.000000000000000000e+00,-3.000000000000000000e+00,3.000000000000000000e+00,-2.000000000000000000e+00,-4.000000000000000000e+00,-3.000000000000000000e+00,5.000000000000000000e+00,1.000000000000000000e+01,-4.230957031250000000e-01,7.690429687500000000e-02,7.485961914062500000e-01,5.045776367187500000e-01
-4.000000000000000000e+00,-3.000000000000000000e+00,-2.000000000000000000e+00,-6.000000000000000000e+00,-1.000000000000000000e+00,2.000000000000000000e+00,-3.000000000000000000e+00,1.000000000000000000e+00,-4.230957031250000000e-01,7.690429687500000000e-02,7.485961914062500000e-01,5.045776367187500000e-01
3.000000000000000000e+00,2.000000000000000000e+00,1.300000000000000000e+01,6.000000000000000000e+00,-4.000000000000000000e+00,-6.000000000000000000e+00,8.000000000000000000e+00,-1.000000000000000000e+00,-4.230957031250000000e-01,7.690429687500000000e-02,7.485961914062500000e-01,5.045776367187500000e-01
-2.000000000000000000e+00,5.000000000000000000e+00,-1.000000000000000000e+00,-2.000000000000000000e+00,6.000000000000000000e+00,2.300000000000000000e+01,4.000000000000000000e+00,-2.000000000000000000e+00,-4.230957031250000000e-01,7.641601562500000000e-02,7.489013671875000000e-01,5.042724609375000000e-01
1.000000000000000000e+00,8.000000000000000000e+00,1.000000000000000000e+01,1.200000000000000000e+01,2.000000000000000000e+00,-3.000000000000000000e+00,-2.100000000000000000e+01,1.000000000000000000e+00,-4.230957031250000000e-01,7.641601562500000000e-02,7.489013671875000000e-01,5.042724609375000000e-01
-7.000000000000000000e+00,-1.400000000000000000e+01,-6.000000000000000000e+00,-6.000000000000000000e+00,-5.000000000000000000e+00,-6.000000000000000000e+00,3.000000000000000000e+00,-3.000000000000000000e+00,-4.230957031250000000e-01,7.641601562500000000e-02,7.489013671875000000e-01,5.042724609375000000e-01
0.000000000000000000e+00,2.000000000000000000e+00,6.000000000000000000e+00,-4.000000000000000000e+00,-1.000000000000000000e+00,6.000000000000000000e+00,3.000000000000000000e+00,3.000000000000000000e+00,-4.230957031250000000e-01,7.641601562500000000e-02,7.489013671875000000e-01,5.042724609375000000e-01
-1.000000000000000000e+00,-2.000000000000000000e+00,1.000000000000000000e+00,8.000000000000000000e+00,-5.000000000000000000e+00,-8.000000000000000000e+00,-3.000000000000000000e+00,-1.000000000000000000e+00,-4.229736328125000000e-01,7.659912109375000000e-02,7.490234375000000000e-01,5.040893554687500000e-01
-2.000000000000000000e+00,-5.000000000000000000e+00,2.000000000000000000e+00,-8.000000000000000000e+00,-2.000000000000000000e+00,0.000000000000000000e+00,1.000000000000000000e+00,-1.000000000000000000e+00,-4.229736328125000000e-01,7.659912109375000000e-02,7.490234375000000000e-01,5.040893554687500000e-01
2.000000000000000000e+00,5.000000000000000000e+00,0.000000000000000000e+00,2.000000000000000000e+00,0.000000000000000000e+00,-1.000000000000000000e+00,-3.000000000000000000e+00,3.000000000000000000e+00,-4.229736328125000000e-01,7.659912109375000000e-02,7.490234375000000000e-01,5.040893554687500000e-01
-3.000000000000000000e+00,-1.000000000000000000e+00,3.000000000000000000e+00,2.000000000000000000e+00,-1.000000000000000000e+00,-3.000000000000000000e+00,-3.000000000000000000e+00,-5.000000000000000000e+00,-4.229736328125000000e-01,7.659912109375000000e-02,7.490234375000000000e-01,5.040893554687500000e-01
-4.000000000000000000e+00,-5.000000000000000000e+00,-1.200000000000000000e+01,-7.000000000000000000e+00,-3.000000000000000000e+00,-7.000000000000000000e+00,-9.000000000000000000e+00,2.000000000000000000e+00,-4.230346679687500000e-01,7.678222656250000000e-02,7.490234375000000000e-01,5.040893554687500000e-01
0.000000000000000000e+00,-3.000000000000000000e+00,-1.400000000000000000e+01,-7.000000000000000000e+00,-1.000000000000000000e+00,6.000000000000000000e+00,5.000000000000000000e+00,-3.000000000000000000e+00,-4.230346679687500000e-01,7.678222656250000000e-02,7.490234375000000000e-01,5.040893554687500000e-01
-1.000000000000000000e+00,-1.000000000000000000e+00,3.000000000000000000e+00,6.000000000000000000e+00,-1.000000000000000000e+00,-3.000000000000000000e+00,-5.000000000000000000e+00,0.000000000000000000e+00,-4.230346679687500000e-01,7.678222656250000000e-02,7.490234375000000000e-01,5.040893554687500000e-01
0.000000000000000000e+00,-3.000000000000000000e+00,-6.000000000000000000e+00,-5.000000000000000000e+00,0.000000000000000000e+00,3.000000000000000000e+00,-1.000000000000000000e+00,1.000000000000000000e+00,-4.230346679687500000e-01,7.678222656250000000e-02,7.490234375000000000e-01,5.040893554687500000e-01
-1.000000000000000000e+00,0.000000000000000000e+00,-2.000000000000000000e+00,5.000000000000000000e+00,-3.000000000000000000e+00,-3.000000000000000000e+00,1.000000000000000000e+00,0.000000000000000000e+00,-4.233398437500000000e-01,7.684326171875000000e-02,7.488403320312500000e-01,5.040283203125000000e-01
-1.000000000000000000e+00,-1.000000000000000000e+00,3.000000000000000000e+00,-7.000000000000000000e+00,-1.000000000000000000e+00,-3.000000000000000000e+00,3.000000000000000000e+00,-1.000000000000000000e+00,-4.233398437500000000e-01,7.684326171875000000e-02,7.488403320312500000e-01,5.040283203125000000e-01
-4.000000000000000000e+00,-4.000000000000000000e+00,-5.000000000000000000e+00,3.000000000000000000e+00,0.000000000000000000e+00,1.000000000000000000e+00,-1.000000000000000000e+00,-1.000000000000000000e+00,-4.233398437500000000e-01,7.684326171875000000e-02,7.488403320312500000e-01,5.040283203125000000e-01
0.000000000000000000e+00,2.000000000000000000e+00,6.000000000000000000e+00,-1.000000000000000000e+00,-1.000000000000000000e+00,-4.000000000000000000e+00,0.000000000000000000e+00,1.000000000000000000e+00,-4.233398437500000000e-01,7.684326171875000000e-02,7.488403320312500000e-01,5.040283203125000000e-01
1.000000000000000000e+00,0.000000000000000000e+00,6.000000000000000000e+00,3.000000000000000000e+00,2.000000000000000000e+00,0.000000000000000000e+00,2.000000000000000000e+00,3.000000000000000000e+00,-4.239501953125000000e-01,7.659912109375000000e-02,7.485961914062500000e-01,5.039062500000000000e-01
1.000000000000000000e+00,2.000000000000000000e+00,-3.000000000000000000e+00,2.000000000000000000e+00,0.000000000000000000e+00,-3.000000000000000000e+00,-5.000000000000000000e+00,-2.000000000000000000e+00,-4.239501953125000000e-01,7.659912109375000000e-02,7.485961914062500000e-01,5.039062500000000000e-01
-2.000000000000000000e+00,-1.000000000000000000e+00,3.000000000000000000e+00,5.000000000000000000e+00,0.000000000000000000e+00,-5.000000000000000000e+00,2.000000000000000000e+00,9.000000000000000000e+00,-4.239501953125000000e-01,7.659912109375000000e-02,7.485961914062500000e-01,5.039062500000000000e-01
1.000000000000000000e+00,4.000000000000000000e+00,0.000000000000000000e+00,-1.000000000000000000e+01,0.000000000000000000e+00,1.100000000000000000e+01,6.000000000000000000e+00,-9.000000000000000000e+00,-4.239501953125000000e-01,7.659912109375000000e-02,7.485961914062500000e-01,5.039062500000000000e-01
-3.000000000000000000e+00,-7.000000000000000000e+00,-1.300000000000000000e+01,4.000000000000000000e+00,-3.000000000000000000e+00,-3.000000000000000000e+00,-1.000000000000000000e+00,-2.000000000000000000e+00,-4.248657226562500000e-01,7.574462890625000000e-02,7.485351562500000000e-01,5.033569335937500000e-01
-3.000000000000000000e+00,2.000000000000000000e+00,9.000000000000000000e+00,4.000000000000000000e+00,-1.000000000000000000e+00,0.000000000000000000e+00,8.000000000000000000e+00,-3.000000000000000000e+00,-4.248657226562500000e-01,7.574462890625000000e-02,7.485351562500000000e-01,5.033569335937500000e-01
1.000000000000000000e+00,0.000000000000000000e+00,-1.000000000000000000e+01,-1.300000000000000000e+01,-1.000000000000000000e+00,-3.000000000000000000e+00,1.000000000000000000e+00,1.000000000000000000e+00,-4.248657226562500000e-01,7.574462890625000000e-02,7.485351562500000000e-01,5.033569335937500000e-01
0.000000000000000000e+00,2.000000000000000000e+00,5.000000000000000000e+00,6.000000000000000000e+00,-2.000000000000000000e+00,-6.000000000000000000e+00,-5.000000000000000000e+00,3.000000000000000000e+00,-4.248657226562500000e-01,7.574462890625000000e-02,7.485351562500000000e-01,5.033569335937500000e-01
-2.000000000000000000e+00,-1.000000000000000000e+00,3.000000000000000000e+00,-1.000000000000000000e+00,0.000000000000000000e+00,0.000000000000000000e+00,1.300000000000000000e+01,1.000000000000000000e+00,-4.258422851562500000e-01,7.476806640625000000e-02,7.487182617187500000e-01,5.025024414062500000e-01
1.000000000000000000e+00,0.000000000000000000e+00,-1.000000000000000000e+00,5.000000000000000000e+00,3.000000000000000000e+00,8.000000000000000000e+00,0.000000000000000000e+00,-3.000000000000000000e+00,-4.258422851562500000e-01,7.476806640625000000e-02,7.487182617187500000e-01,5.025024414062500000e-01
-1.000000000000000000e+00,1.000000000000000000e+00,8.000000000000000000e+00,-2.000000000000000000e+00,-2.000000000000000000e+00,-3.000000000000000000e+00,-1.400000000000000000e+01,-1.000000000000000000e+01,-4.258422851562500000e-01,7.476806640625000000e-02,7.487182617187500000e-01,5.025024414062500000e-01
0.000000000000000000e+00,-7.000000000000000000e+00,-1.800000000000000000e+01,-2.000000000000000000e+00,-2.000000000000000000e+00,-3.000000000000000000e+00,5.000000000000000000e+00,1.200000000000000000e+01,-4.258422851562500000e-01,7.476806640625000000e-02,7.487182617187500000e-01,5.025024414062500000e-01
-5.000000000000000000e+00,-3.000000000000000000e+00,1.000000000000000000e+01,0.000000000000000000e+00,-4.000000000000000000e+00,2.000000000000000000e+00,9.000000000000000000e+00,0.000000000000000000e+00,-4.270019531250000000e-01,7.415771484375000000e-02,7.486572265625000000e-01,5.015869140625000000e-01
-3.000000000000000000e+00,-3.000000000000000000e+00,-5.000000000000000000e+00,-2.000000000000000000e+00,-3.000000000000000000e+00,-3.000000000000000000e+00,-4.000000000000000000e+00,-4.000000000000000000e+00,-4.270019531250000000e-01,7.415771484375000000e-02,7.486572265625000000e-01,5.015869140625000000e-01
1.300000000000000000e+01,-1.000000000000000000e+00,-1.000000000000000000e+00,-1.400000000000000000e+01,-4.000000000000000000e+00,0.000000000000000000e+00,3.000000000000000000e+00,9.000000000000000000e+00,-4.270019531250000000e-01,7.415771484375000000e-02,7.486572265625000000e-01,5.015869140625000000e-01
1.000000000000000000e+00,1.000000000000000000e+00,3.000000000000000000e+00,5.000000000000000000e+00,2.000000000000000000e+00,0.000000000000000000e+00,-5.000000000000000000e+00,-8.000000000000000000e+00,-4.270019531250000000e-01,7.415771484375000000e-02,7.486572265625000000e-01,5.015869140625000000e-01
-1.000000000000000000e+00,-1.000000000000000000e+00,-3.000000000000000000e+00,-2.000000000000000000e+00,0.000000000000000000e+00,-3.000000000000000000e+00,-6.000000000000000000e+00,-1.000000000000000000e+00,-4.278564453125000000e-01,7.421875000000000000e-02,7.486572265625000000e-01,5.008544921875000000e-01
-5.000000000000000000e+00,1.000000000000000000e+00,3.000000000000000000e+00,-1.000000000000000000e+00,-1.000000000000000000e+00,-2.000000000000000000e+00,0.000000000000000000e+00,-1.000000000000000000e+00,-4.278564453125000000e-01,7.421875000000000000e-02,7.486572265625000000e-01,5.008544921875000000e-01
-6.000000000000000000e+00,0.000000000000000000e+00,-4.000000000000000000e+00,3.000000000000000000e+00,1.000000000000000000e+00,1.000000000000000000e+00,2.000000000000000000e+00,-8.000000000000000000e+00,-4.278564453125000000e-01,7.421875000000000000e-02,7.486572265625000000e-01,5.008544921875000000e-01
-2.000000000000000000e+00,0.000000000000000000e+00,4.000000000000000000e+00,-9.000000000000000000e+00,-1.000000000000000000e+00,-6.000000000000000000e+00,-1.100000000000000000e+01,-7.000000000000000000e+00,-4.278564453125000000e-01,7.421875000000000000e-02,7.486572265625000000e-01,5.008544921875000000e-01
3.000000000000000000e+00,-3.000000000000000000e+00,-3.100000000000000000e+01,-3.100000000000000000e+01,-1.300000000000000000e+01,-3.000000000000000000e+00,-5.000000000000000000e+00,3.000000000000000000e+00,-4.283447265625000000e-01,7.464599609375000000e-02,7.488403320312500000e-01,5.001220703125000000e-01
-1.000000000000000000e+00,-6.000000000000000000e+00,8.000000000000000000e+00,0.000000000000000000e+00,-1.000000000000000000e+00,-4.000000000000000000e+00,-3.000000000000000000e+00,-4.000000000000000000e+00,-4.283447265625000000e-01,7.464599609375000000e-02,7.488403320312500000e-01,5.001220703125000000e-01
-4.000000000000000000e+00,3.000000000000000000e+00,-6.000000000000000000e+00,4.000000000000000000e+00,-3.000000000000000000e+00,1.000000000000000000e+00,-5.000000000000000000e+00,-5.000000000000000000e+00,-4.283447265625000000e-01,7.464599609375000000e-02,7.488403320312500000e-01,5.001220703125000000e-01
1.000000000000000000e+00,0.000000000000000000e+00,9.000000000000000000e+00,7.000000000000000000e+00,3.000000000000000000e+00,-3.000000000000000000e+00,-1.000000000000000000e+00,3.000000000000000000e+00,-4.283447265625000000e-01,7.464599609375000000e-02,7.488403320312500000e-01,5.001220703125000000e-01
