-3.800000000000000000e+01,-2.900000000000000000e+01,-1.200000000000000000e+01,-4.000000000000000000e+00,-2.000000000000000000e+00,0.000000000000000000e+00,-5.000000000000000000e+00,-2.000000000000000000e+00,-3.310546875000000000e-01,1.488037109375000000e-01,7.584838867187500000e-01,5.411987304687500000e-01
-7.400000000000000000e+01,-5.000000000000000000e+00,8.000000000000000000e+00,5.000000000000000000e+00,-2.000000000000000000e+00,-3.000000000000000000e+00,-4.000000000000000000e+00,-9.000000000000000000e+00,-3.310546875000000000e-01,1.488037109375000000e-01,7.584838867187500000e-01,5.411987304687500000e-01
4.800000000000000000e+01,1.500000000000000000e+01,4.000000000000000000e+00,1.000000000000000000e+00,2.000000000000000000e+00,-2.000000000000000000e+00,5.000000000000000000e+00,6.000000000000000000e+00,-3.310546875000000000e-01,1.488037109375000000e-01,7.584838867187500000e-01,5.411987304687500000e-01
3.900000000000000000e+01,7.000000000000000000e+00,-3.000000000000000000e+00,-1.700000000000000000e+01,-5.000000000000000000e+00,1.300000000000000000e+01,1.000000000000000000e+00,7.000000000000000000e+00,-3.310546875000000000e-01,1.488037109375000000e-01,7.584838867187500000e-01,5.411987304687500000e-01
-2.000000000000000000e+00,3.000000000000000000e+00,-4.000000000000000000e+00,6.000000000000000000e+00,-1.000000000000000000e+00,-6.000000000000000000e+00,-4.000000000000000000e+00,-4.000000000000000000e+00,-3.294677734375000000e-01,1.457519531250000000e-01,7.581787109375000000e-01,5.434570312500000000e-01
8.000000000000000000e+00,1.400000000000000000e+01,1.100000000000000000e+01,1.600000000000000000e+01,6.000000000000000000e+00,5.000000000000000000e+00,5.000000000000000000e+00,6.000000000000000000e+00,-3.294677734375000000e-01,1.457519531250000000e-01,7.581787109375000000e-01,5.434570312500000000e-01
-1.800000000000000000e+01,1.400000000000000000e+01,-3.100000000000000000e+01,-7.000000000000000000e+00,-2.000000000000000000e+00,-2.000000000000000000e+00,-1.000000000000000000e+00,-4.000000000000000000e+00,-3.294677734375000000e-01,1.457519531250000000e-01,7.581787109375000000e-01,5.434570312500000000e-01
-1.900000000000000000e+01,-1.200000000000000000e+01,-1.800000000000000000e+01,0.000000000000000000e+00,0.000000000000000000e+00,-5.000000000000000000e+00,-3.000000000000000000e+00,-5.000000000000000000e+00,-3.294677734375000000e-01,1.457519531250000000e-01,7.581787109375000000e-01,5.434570312500000000e-01
2.400000000000000000e+01,8.000000000000000000e+00,5.000000000000000000e+00,9.000000000000000000e+00,-2.000000000000000000e+00,-2.000000000000000000e+00,-1.000000000000000000e+00,1.000000000000000000e+00,-3.266601562500000000e-01,1.459350585937500000e-01,7.580566406250000000e-01,5.452880859375000000e-01
2.000000000000000000e+00,-2.400000000000000000e+01,-2.000000000000000000e+00,-2.300000000000000000e+01,-3.000000000000000000e+00,5.000000000000000000e+00,1.000000000000000000e+00,1.000000000000000000e+00,-3.266601562500000000e-01,1.459350585937500000e-01,7.580566406250000000e-01,5.452880859375000000e-01
-3.400000000000000000e+01,2.000000000000000000e+00,-1.600000000000000000e+01,8.000000000000000000e+00,0.000000000000000000e+00,0.000000000000000000e+00,-6.000000000000000000e+00,-7.000000000000000000e+00,-3.243408203125000000e-01,1.470947265625000000e-01,7.579956054687500000e-01,5.463867187500000000e-01
1.200000000000000000e+01,-1.500000000000000000e+01,-8.000000000000000000e+00,-5.000000000000000000e+00,-3.000000000000000000e+00,-8.000000000000000000e+00,0.000000000000000000e+00,1.000000000000000000e+00,-3.243408203125000000e-01,1.470947265625000000e-01,7.579956054687500000e-01,5.463867187500000000e-01
-7.000000000000000000e+00,3.000000000000000000e+00,4.000000000000000000e+00,3.000000000000000000e+00,-1.000000000000000000e+00,-1.000000000000000000e+00,2.000000000000000000e+00,2.000000000000000000e+00,-3.243408203125000000e-01,1.470947265625000000e-01,7.579956054687500000e-01,5.463867187500000000e-01
-4.000000000000000000e+00,-2.000000000000000000e+00,7.000000000000000000e+00,-4.000000000000000000e+00,0.000000000000000000e+00,2.000000000000000000e+00,-1.000000000000000000e+00,2.000000000000000000e+00,-3.243408203125000000e-01,1.470947265625000000e-01,7.579956054687500000e-01,5.463867187500000000e-01
-3.000000000000000000e+00,3.000000000000000000e+00,-1.000000000000000000e+01,5.000000000000000000e+00,1.000000000000000000e+00,1.000000000000000000e+00,0.000000000000000000e+00,-5.000000000000000000e+00,-3.223876953125000000e-01,1.474609375000000000e-01,7.579956054687500000e-01,5.474243164062500000e-01
5.000000000000000000e+00,-9.000000000000000000e+00,-6.000000000000000000e+00,-7.000000000000000000e+00,-6.000000000000000000e+00,-2.000000000000000000e+00,2.000000000000000000e+00,0.000000000000000000e+00,-3.223876953125000000e-01,1.474609375000000000e-01,7.579956054687500000e-01,5.474243164062500000e-01
1.800000000000000000e+01,3.000000000000000000e+00,2.000000000000000000e+00,-6.000000000000000000e+00,-4.000000000000000000e+00,2.000000000000000000e+00,-1.000000000000000000e+00,3.000000000000000000e+00,-3.223876953125000000e-01,1.474609375000000000e-01,7.579956054687500000e-01,5.474243164062500000e-01
-5.000000000000000000e+00,1.600000000000000000e+01,0.000000000000000000e+00,2.000000000000000000e+00,-3.000000000000000000e+00,-1.600000000000000000e+01,-1.000000000000000000e+01,-3.000000000000000000e+00,-3.223876953125000000e-01,1.474609375000000000e-01,7.579956054687500000e-01,5.474243164062500000e-01
-1.100000000000000000e+01,-5.000000000000000000e+00,4.000000000000000000e+00,-2.000000000000000000e+00,7.000000000000000000e+00,2.700000000000000000e+01,2.500000000000000000e+01,0.000000000000000000e+00,-3.213500976562500000e-01,1.464233398437500000e-01,7.578125000000000000e-01,5.485839843750000000e-01
-1.900000000000000000e+01,9.000000000000000000e+00,0.000000000000000000e+00,2.000000000000000000e+00,-5.000000000000000000e+00,-7.000000000000000000e+00,-9.000000000000000000e+00,1.000000000000000000e+00,-3.213500976562500000e-01,1.464233398437500000e-01,7.578125000000000000e-01,5.485839843750000000e-01
1.100000000000000000e+01,-1.000000000000000000e+01,2.000000000000000000e+00,-1.000000000000000000e+00,-1.000000000000000000e+00,1.000000000000000000e+00,8.000000000000000000e+00,-1.000000000000000000e+00,-3.213500976562500000e-01,1.464233398437500000e-01,7.578125000000000000e-01,5.485839843750000000e-01
3.000000000000000000e+00,1.600000000000000000e+01,0.000000000000000000e+00,3.000000000000000000e+00,-1.000000000000000000e+00,-2.000000000000000000e+00,-1.100000000000000000e+01,-1.000000000000000000e+00,-3.213500976562500000e-01,1.464233398437500000e-01,7.578125000000000000e-01,5.485839843750000000e-01
1.000000000000000000e+00,-2.200000000000000000e+01,1.500000000000000000e+01,-1.000000000000000000e+00,-1.000000000000000000e+00,1.000000000000000000e+00,0.000000000000000000e+00,4.000000000000000000e+00,-3.208007812500000000e-01,1.461791992187500000e-01,7.574462890625000000e-01,5.494995117187500000e-01
-4.000000000000000000e+00,7.000000000000000000e+00,4.000000000000000000e+00,-4.000000000000000000e+00,-1.000000000000000000e+00,-4.000000000000000000e+00,-2.000000000000000000e+00,-4.000000000000000000e+00,-3.208007812500000000e-01,1.461791992187500000e-01,7.574462890625000000e-01,5.494995117187500000e-01
-1.500000000000000000e+01,-6.000000000000000000e+00,-1.600000000000000000e+01,-4.000000000000000000e+00,2.000000000000000000e+00,1.000000000000000000e+00,-3.000000000000000000e+00,-3.000000000000000000e+00,-3.208007812500000000e-01,1.461791992187500000e-01,7.574462890625000000e-01,5.494995117187500000e-01
2.800000000000000000e+01,-1.600000000000000000e+01,-1.000000000000000000e+00,1.000000000000000000e+00,0.000000000000000000e+00,1.000000000000000000e+00,2.000000000000000000e+00,-2.000000000000000000e+00,-3.208007812500000000e-01,1.461791992187500000e-01,7.574462890625000000e-01,5.494995117187500000e-01
1.100000000000000000e+01,1.000000000000000000e+01,1.200000000000000000e+01,-7.000000000000000000e+00,-3.000000000000000000e+00,-7.000000000000000000e+00,-4.000000000000000000e+00,6.000000000000000000e+00,-3.197021484375000000e-01,1.475830078125000000e-01,7.569580078125000000e-01,5.504150390625000000e-01
1.000000000000000000e+00,-3.000000000000000000e+00,5.000000000000000000e+00,8.000000000000000000e+00,2.000000000000000000e+00,4.000000000000000000e+00,2.000000000000000000e+00,-1.000000000000000000e+00,-3.197021484375000000e-01,1.475830078125000000e-01,7.569580078125000000e-01,5.504150390625000000e-01
4.000000000000000000e+00,-7.000000000000000000e+00,-1.800000000000000000e+01,-1.100000000000000000e+01,-4.000000000000000000e+00,-5.000000000000000000e+00,-1.100000000000000000e+01,-3.000000000000000000e+00,-3.197021484375000000e-01,1.475830078125000000e-01,7.569580078125000000e-01,5.504150390625000000e-01
-3.700000000000000000e+01,-7.000000000000000000e+00,-1.700000000000000000e+01,0.000000000000000000e+00,-3.000000000000000000e+00,-1.000000000000000000e+00,2.000000000000000000e+00,-5.000000000000000000e+00,-3.197021484375000000e-01,1.475830078125000000e-01,7.569580078125000000e-01,5.504150390625000000e-01
-2.000000000000000000e+00,1.000000000000000000e+00,5.000000000000000000e+00,0.000000000000000000e+00,2.000000000000000000e+00,-5.000000000000000000e+00,-6.000000000000000000e+00,-1.000000000000000000e+00,-3.184204101562500000e-01,1.494750976562500000e-01,7.565917968750000000e-01,5.511474609375000000e-01
2.600000000000000000e+01,8.000000000000000000e+00,-1.200000000000000000e+01,-4.000000000000000000e+00,-3.000000000000000000e+00,-2.000000000000000000e+00,4.000000000000000000e+00,-2.000000000000000000e+00,-3.184204101562500000e-01,1.494750976562500000e-01,7.565917968750000000e-01,5.511474609375000000e-01
-2.700000000000000000e+01,3.000000000000000000e+00,1.200000000000000000e+01,-3.000000000000000000e+00,-5.000000000000000000e+00,-4.000000000000000000e+00,-2.000000000000000000e+00,-1.000000000000000000e+00,-3.184204101562500000e-01,1.494750976562500000e-01,7.565917968750000000e-01,5.511474609375000000e-01
3.100000000000000000e+01,0.000000000000000000e+00,8.000000000000000000e+00,-2.000000000000000000e+00,-3.000000000000000000e+00,2.000000000000000000e+00,2.000000000000000000e+00,7.000000000000000000e+00,-3.184204101562500000e-01,1.494750976562500000e-01,7.565917968750000000e-01,5.511474609375000000e-01
-1.400000000000000000e+01,-2.000000000000000000e+00,-4.000000000000000000e+00,-3.000000000000000000e+00,-3.000000000000000000e+00,-4.000000000000000000e+00,-4.000000000000000000e+00,-4.000000000000000000e+00,-3.177490234375000000e-01,1.511840820312500000e-01,7.564697265625000000e-01,5.512084960937500000e-01
-1.700000000000000000e+01,-5.000000000000000000e+00,-7.000000000000000000e+00,1.100000000000000000e+01,3.000000000000000000e+00,-2.000000000000000000e+00,-1.000000000000000000e+00,-1.000000000000000000e+00,-3.177490234375000000e-01,1.511840820312500000e-01,7.564697265625000000e-01,5.512084960937500000e-01
-1.700000000000000000e+01,-1.000000000000000000e+01,-1.000000000000000000e+00,-5.000000000000000000e+00,1.000000000000000000e+00,2.000000000000000000e+00,1.000000000000000000e+00,-3.000000000000000000e+00,-3.177490234375000000e-01,1.511840820312500000e-01,7.564697265625000000e-01,5.512084960937500000e-01
1.900000000000000000e+01,6.000000000000000000e+00,3.000000000000000000e+00,1.300000000000000000e+01,4.000000000000000000e+00,3.000000000000000000e+00,1.200000000000000000e+01,-1.000000000000000000e+00,-3.177490234375000000e-01,1.511840820312500000e-01,7.564697265625000000e-01,5.512084960937500000e-01
-7.000000000000000000e+00,1.000000000000000000e+00,1.000000000000000000e+00,-4.000000000000000000e+00,-6.000000000000000000e+00,-1.100000000000000000e+01,-1.200000000000000000e+01,2.000000000000000000e+00,-3.179931640625000000e-01,1.521606445312500000e-01,7.559814453125000000e-01,5.514526367187500000e-01
-6.000000000000000000e+00,-2.000000000000000000e+00,3.000000000000000000e+00,0.000000000000000000e+00,2.000000000000000000e+00,2.000000000000000000e+01,8.000000000000000000e+00,-1.000000000000000000e+00,-3.179931640625000000e-01,1.521606445312500000e-01,7.559814453125000000e-01,5.514526367187500000e-01
9.000000000000000000e+00,-1.000000000000000000e+00,1.000000000000000000e+00,3.000000000000000000e+00,-2.000000000000000000e+00,-1.300000000000000000e+01,2.000000000000000000e+00,-1.000000000000000000e+00,-3.179931640625000000e-01,1.521606445312500000e-01,7.559814453125000000e-01,5.514526367187500000e-01
-5.000000000000000000e+00,-1.000000000000000000e+00,-6.000000000000000000e+00,-4.000000000000000000e+00,-2.000000000000000000e+00,1.000000000000000000e+00,-1.000000000000000000e+00,3.000000000000000000e+00,-3.179931640625000000e-01,1.521606445312500000e-01,7.559814453125000000e-01,5.514526367187500000e-01
-1.000000000000000000e+00,-1.000000000000000000e+00,-5.000000000000000000e+00,0.000000000000000000e+00,1.000000000000000000e+00,-3.000000000000000000e+00,3.000000000000000000e+00,-4.000000000000000000e+00,-3.186035156250000000e-01,1.525878906250000000e-01,7.550048828125000000e-01,5.523681640625000000e-01
-8.000000000000000000e+00,7.000000000000000000e+00,-2.000000000000000000e+00,0.000000000000000000e+00,-1.000000000000000000e+00,-4.000000000000000000e+00,-4.000000000000000000e+00,-4.000000000000000000e+00,-3.186035156250000000e-01,1.525878906250000000e-01,7.550048828125000000e-01,5.523681640625000000e-01
3.000000000000000000e+01,-4.000000000000000000e+00,-5.000000000000000000e+00,0.000000000000000000e+00,1.000000000000000000e+00,1.000000000000000000e+00,7.000000000000000000e+00,9.000000000000000000e+00,-3.186035156250000000e-01,1.525878906250000000e-01,7.550048828125000000e-01,5.523681640625000000e-01
-2.400000000000000000e+01,-4.800000000000000000e+01,-1.000000000000000000e+00,-3.000000000000000000e+00,-1.000000000000000000e+00,1.000000000000000000e+00,-2.000000000000000000e+00,-6.000000000000000000e+00,-3.186035156250000000e-01,1.525878906250000000e-01,7.550048828125000000e-01,5.523681640625000000e-01
0.000000000000000000e+00,3.200000000000000000e+01,5.000000000000000000e+00,1.000000000000000000e+00,0.000000000000000000e+00,-7.000000000000000000e+00,-2.000000000000000000e+00,5.000000000000000000e+00,-3.189086914062500000e-01,1.533203125000000000e-01,7.537231445312500000e-01,5.537719726562500000e-01
6.000000000000000000e+00,7.000000000000000000e+00,1.000000000000000000e+00,-3.000000000000000000e+00,-2.000000000000000000e+00,-3.000000000000000000e+00,5.000000000000000000e+00,1.000000000000000000e+01,-3.189086914062500000e-01,1.533203125000000000e-01,7.537231445312500000e-01,5.537719726562500000e-01
1.000000000000000000e+00,-1.600000000000000000e+01,-2.000000000000000000e+00,-2.000000000000000000e+00,-2.000000000000000000e+00,2.000000000000000000e+00,-7.000000000000000000e+00,-7.000000000000000000e+00,-3.189086914062500000e-01,1.533203125000000000e-01,7.537231445312500000e-01,5.537719726562500000e-01
-4.000000000000000000e+00,-2.000000000000000000e+00,-2.000000000000000000e+00,-3.000000000000000000e+00,1.000000000000000000e+00,-2.000000000000000000e+00,-1.000000000000000000e+00,-5.000000000000000000e+00,-3.189086914062500000e-01,1.533203125000000000e-01,7.537231445312500000e-01,5.537719726562500000e-01
-1.900000000000000000e+01,1.000000000000000000e+00,-2.000000000000000000e+00,-1.000000000000000000e+00,0.000000000000000000e+00,2.000000000000000000e+00,-5.000000000000000000e+00,-1.100000000000000000e+01,-3.189697265625000000e-01,1.549682617187500000e-01,7.527465820312500000e-01,5.546264648437500000e-01
3.000000000000000000e+00,-1.600000000000000000e+01,-1.000000000000000000e+00,1.000000000000000000e+00,-4.000000000000000000e+00,-9.000000000000000000e+00,-5.000000000000000000e+00,-4.000000000000000000e+00,-3.189697265625000000e-01,1.549682617187500000e-01,7.527465820312500000e-01,5.546264648437500000e-01
6.000000000000000000e+00,2.100000000000000000e+01,3.000000000000000000e+00,-2.000000000000000000e+00,-4.000000000000000000e+00,5.000000000000000000e+00,1.000000000000000000e+00,2.000000000000000000e+00,-3.189697265625000000e-01,1.549682617187500000e-01,7.527465820312500000e-01,5.546264648437500000e-01
2.000000000000000000e+00,1.200000000000000000e+01,1.500000000000000000e+01,-2.000000000000000000e+00,-1.000000000000000000e+00,-2.000000000000000000e+00,2.000000000000000000e+00,3.000000000000000000e+00,-3.189697265625000000e-01,1.549682617187500000e-01,7.527465820312500000e-01,5.546264648437500000e-01
-1.000000000000000000e+00,-2.600000000000000000e+01,-2.000000000000000000e+00,5.000000000000000000e+00,6.000000000000000000e+00,1.100000000000000000e+01,2.000000000000000000e+00,-2.000000000000000000e+00,-3.195190429687500000e-01,1.555175781250000000e-01,7.525024414062500000e-01,5.544433593750000000e-01
5.000000000000000000e+00,1.000000000000000000e+00,-4.000000000000000000e+00,-9.000000000000000000e+00,-7.000000000000000000e+00,-4.000000000000000000e+00,-3.000000000000000000e+00,-2.000000000000000000e+00,-3.195190429687500000e-01,1.555175781250000000e-01,7.525024414062500000e-01,5.544433593750000000e-01
-4.000000000000000000e+00,-7.000000000000000000e+00,8.000000000000000000e+00,5.000000000000000000e+00,0.000000000000000000e+00,-2.000000000000000000e+00,0.000000000000000000e+00,6.000000000000000000e+00,-3.195190429687500000e-01,1.555175781250000000e-01,7.525024414062500000e-01,5.544433593750000000e-01
4.000000000000000000e+00,1.300000000000000000e+01,2.000000000000000000e+00,-1.000000000000000000e+00,-1.000000000000000000e+00,0.000000000000000000e+00,-2.000000000000000000e+00,-2.000000000000000000e+00,-3.195190429687500000e-01,1.555175781250000000e-01,7.525024414062500000e-01,5.544433593750000000e-01
1.800000000000000000e+01,-4.000000000000000000e+00,1.100000000000000000e+01,-3.000000000000000000e+00,-3.000000000000000000e+00,0.000000000000000000e+00,7.000000000000000000e+00,1.000000000000000000e+00,-3.209228515625000000e-01,1.542358398437500000e-01,7.523803710937500000e-01,5.541381835937500000e-01
-3.000000000000000000e+01,-5.000000000000000000e+00,-3.000000000000000000e+00,-1.000000000000000000e+00,-1.000000000000000000e+00,-3.000000000000000000e+00,-1.000000000000000000e+01,-7.000000000000000000e+00,-3.209228515625000000e-01,1.542358398437500000e-01,7.523803710937500000e-01,5.541381835937500000e-01
3.800000000000000000e+01,1.100000000000000000e+01,-9.000000000000000000e+00,1.000000000000000000e+00,-2.000000000000000000e+00,0.000000000000000000e+00,0.000000000000000000e+00,1.200000000000000000e+01,-3.209228515625000000e-01,1.542358398437500000e-01,7.523803710937500000e-01,5.541381835937500000e-01
-1.100000000000000000e+01,-8.000000000000000000e+00,3.000000000000000000e+00,-3.000000000000000000e+00,-2.000000000000000000e+00,1.000000000000000000e+00,-5.000000000000000000e+00,-1.000000000000000000e+01,-3.209228515625000000e-01,1.542358398437500000e-01,7.523803710937500000e-01,5.541381835937500000e-01
-2.200000000000000000e+01,8.000000000000000000e+00,1.000000000000000000e+00,2.000000000000000000e+00,0.000000000000000000e+00,-1.000000000000000000e+00,3.000000000000000000e+00,0.000000000000000000e+00,-3.222656250000000000e-01,1.531372070312500000e-01,7.521362304687500000e-01,5.540161132812500000e-01
2.000000000000000000e+00,-2.200000000000000000e+01,-2.000000000000000000e+00,1.000000000000000000e+00,3.000000000000000000e+00,-1.000000000000000000e+00,-2.000000000000000000e+00,-5.000000000000000000e+00,-3.222656250000000000e-01,1.531372070312500000e-01,7.521362304687500000e-01,5.540161132812500000e-01
-3.100000000000000000e+01,-1.200000000000000000e+01,-6.000000000000000000e+00,-1.000000000000000000e+00,-1.000000000000000000e+00,1.000000000000000000e+00,-5.000000000000000000e+00,-6.000000000000000000e+00,-3.222656250000000000e-01,1.531372070312500000e-01,7.521362304687500000e-01,5.540161132812500000e-01
3.100000000000000000e+01,3.000000000000000000e+01,1.000000000000000000e+00,5.000000000000000000e+00,1.000000000000000000e+00,1.000000000000000000e+00,2.000000000000000000e+00,1.000000000000000000e+00,-3.222656250000000000e-01,1.531372070312500000e-01,7.521362304687500000e-01,5.540161132812500000e-01
8.000000000000000000e+00,1.000000000000000000e+01,1.200000000000000000e+01,0.000000000000000000e+00,-5.000000000000000000e+00,-3.000000000000000000e+00,0.000000000000000000e+00,5.000000000000000000e+00,-3.229980468750000000e-01,1.530761718750000000e-01,7.520141601562500000e-01,5.537719726562500000e-01
-1.100000000000000000e+01,-1.300000000000000000e+01,6.000000000000000000e+00,-1.000000000000000000e+00,-1.000000000000000000e+00,-3.000000000000000000e+00,1.000000000000000000e+00,-5.000000000000000000e+00,-3.229980468750000000e-01,1.530761718750000000e-01,7.520141601562500000e-01,5.537719726562500000e-01
-3.000000000000000000e+00,-5.000000000000000000e+00,-1.000000000000000000e+00,-5.000000000000000000e+00,-2.000000000000000000e+00,1.000000000000000000e+00,-2.000000000000000000e+00,1.000000000000000000e+00,-3.229980468750000000e-01,1.530761718750000000e-01,7.520141601562500000e-01,5.537719726562500000e-01
-2.000000000000000000e+01,-1.200000000000000000e+01,-2.500000000000000000e+01,-2.000000000000000000e+00,-1.000000000000000000e+00,-5.000000000000000000e+00,-6.000000000000000000e+00,2.000000000000000000e+00,-3.229980468750000000e-01,1.530761718750000000e-01,7.520141601562500000e-01,5.537719726562500000e-01
0.000000000000000000e+00,9.000000000000000000e+00,8.000000000000000000e+00,2.000000000000000000e+00,0.000000000000000000e+00,3.000000000000000000e+00,-6.000000000000000000e+00,-9.000000000000000000e+00,-3.230590820312500000e-01,1.531372070312500000e-01,7.523193359375000000e-01,5.532836914062500000e-01
2.000000000000000000e+00,4.000000000000000000e+00,1.000000000000000000e+00,-2.000000000000000000e+00,0.000000000000000000e+00,-4.000000000000000000e+00,2.000000000000000000e+00,8.000000000000000000e+00,-3.230590820312500000e-01,1.531372070312500000e-01,7.523193359375000000e-01,5.532836914062500000e-01
1.100000000000000000e+01,1.000000000000000000e+00,9.000000000000000000e+00,-2.000000000000000000e+00,1.000000000000000000e+00,0.000000000000000000e+00,2.000000000000000000e+00,0.000000000000000000e+00,-3.230590820312500000e-01,1.531372070312500000e-01,7.523193359375000000e-01,5.532836914062500000e-01
-3.000000000000000000e+00,1.000000000000000000e+01,-1.100000000000000000e+01,-1.000000000000000000e+00,-1.000000000000000000e+00,1.000000000000000000e+00,-3.000000000000000000e+00,-6.000000000000000000e+00,-3.230590820312500000e-01,1.531372070312500000e-01,7.523193359375000000e-01,5.532836914062500000e-01
-2.300000000000000000e+01,-3.300000000000000000e+01,-9.000000000000000000e+00,1.000000000000000000e+00,-4.000000000000000000e+00,-6.000000000000000000e+00,-4.000000000000000000e+00,-4.000000000000000000e+00,-3.228149414062500000e-01,1.530151367187500000e-01,7.529296875000000000e-01,5.526733398437500000e-01
0.000000000000000000e+00,1.000000000000000000e+01,-1.200000000000000000e+01,2.000000000000000000e+00,2.000000000000000000e+00,-2.000000000000000000e+00,-2.000000000000000000e+00,-5.000000000000000000e+00,-3.228149414062500000e-01,1.530151367187500000e-01,7.529296875000000000e-01,5.526733398437500000e-01
1.400000000000000000e+01,-1.000000000000000000e+01,2.000000000000000000e+00,-5.000000000000000000e+00,-3.000000000000000000e+00,-2.000000000000000000e+00,-4.000000000000000000e+00,-1.000000000000000000e+00,-3.228149414062500000e-01,1.530151367187500000e-01,7.529296875000000000e-01,5.526733398437500000e-01
-7.000000000000000000e+00,7.000000000000000000e+00,4.000000000000000000e+00,0.000000000000000000e+00,1.000000000000000000e+00,4.000000000000000000e+00,1.000000000000000000e+00,4.000000000000000000e+00,-3.228149414062500000e-01,1.530151367187500000e-01,7.529296875000000000e-01,5.526733398437500000e-01
-1.000000000000000000e+00,-8.000000000000000000e+00,-9.000000000000000000e+00,-7.000000000000000000e+00,-2.000000000000000000e+00,-2.000000000000000000e+00,-3.000000000000000000e+00,-2.000000000000000000e+00,-3.223876953125000000e-01,1.526489257812500000e-01,7.537841796875000000e-01,5.517578125000000000e-01
-5.000000000000000000e+00,1.300000000000000000e+01,5.000000000000000000e+00,-2.000000000000000000e+00,-1.000000000000000000e+00,0.000000000000000000e+00,-4.000000000000000000e+00,-1.000000000000000000e+01,-3.223876953125000000e-01,1.526489257812500000e-01,7.537841796875000000e-01,5.517578125000000000e-01
-1.700000000000000000e+01,1.000000000000000000e+00,-8.000000000000000000e+00,4.000000000000000000e+00,0.000000000000000000e+00,-3.000000000000000000e+00,-2.000000000000000000e+00,0.000000000000000000e+00,-3.223876953125000000e-01,1.526489257812500000e-01,7.537841796875000000e-01,5.517578125000000000e-01
3.400000000000000000e+01,-3.000000000000000000e+00,1.000000000000000000e+01,-3.000000000000000000e+00,-2.000000000000000000e+00,0.000000000000000000e+00,7.000000000000000000e+00,9.000000000000000000e+00,-3.223876953125000000e-01,1.526489257812500000e-01,7.537841796875000000e-01,5.517578125000000000e-01
-4.000000000000000000e+00,0.000000000000000000e+00,5.000000000000000000e+00,-2.000000000000000000e+00,-1.000000000000000000e+00,0.000000000000000000e+00,-5.000000000000000000e+00,-3.000000000000000000e+00,-3.223876953125000000e-01,1.517944335937500000e-01,7.545166015625000000e-01,5.510864257812500000e-01
0.000000000000000000e+00,-7.000000000000000000e+00,-4.000000000000000000e+00,-2.000000000000000000e+00,2.000000000000000000e+00,2.000000000000000000e+00,8.000000000000000000e+00,9.000000000000000000e+00,-3.223876953125000000e-01,1.517944335937500000e-01,7.545166015625000000e-01,5.510864257812500000e-01
-1.500000000000000000e+01,6.000000000000000000e+00,-6.000000000000000000e+00,-1.000000000000000000e+00,-1.000000000000000000e+00,-3.000000000000000000e+00,-7.000000000000000000e+00,-1.100000000000000000e+01,-3.223876953125000000e-01,1.517944335937500000e-01,7.545166015625000000e-01,5.510864257812500000e-01
-1.000000000000000000e+01,-3.200000000000000000e+01,1.000000000000000000e+01,-7.000000000000000000e+00,-6.000000000000000000e+00,-8.000000000000000000e+00,0.000000000000000000e+00,-2.000000000000000000e+00,-3.223876953125000000e-01,1.517944335937500000e-01,7.545166015625000000e-01,5.510864257812500000e-01
1.400000000000000000e+01,1.100000000000000000e+01,3.000000000000000000e+00,2.000000000000000000e+00,6.000000000000000000e+00,1.100000000000000000e+01,4.000000000000000000e+00,1.000000000000000000e+00,-3.229980468750000000e-01,1.506958007812500000e-01,7.545776367187500000e-01,5.509643554687500000e-01
8.000000000000000000e+00,8.000000000000000000e+00,-1.000000000000000000e+00,-1.000000000000000000e+00,-3.000000000000000000e+00,-4.000000000000000000e+00,-4.000000000000000000e+00,-1.000000000000000000e+00,-3.229980468750000000e-01,1.506958007812500000e-01,7.545776367187500000e-01,5.509643554687500000e-01
-3.000000000000000000e+00,5.000000000000000000e+00,-5.000000000000000000e+00,1.000000000000000000e+01,2.000000000000000000e+00,4.000000000000000000e+00,8.000000000000000000e+00,1.000000000000000000e+00,-3.229980468750000000e-01,1.506958007812500000e-01,7.545776367187500000e-01,5.509643554687500000e-01
-3.000000000000000000e+00,-1.100000000000000000e+01,0.000000000000000000e+00,-6.000000000000000000e+00,-4.000000000000000000e+00,-6.000000000000000000e+00,-1.700000000000000000e+01,-3.000000000000000000e+00,-3.229980468750000000e-01,1.506958007812500000e-01,7.545776367187500000e-01,5.509643554687500000e-01
1.500000000000000000e+01,1.100000000000000000e+01,6.000000000000000000e+00,9.000000000000000000e+00,1.000000000000000000e+00,4.000000000000000000e+00,1.500000000000000000e+01,5.000000000000000000e+00,-3.226318359375000000e-01,1.508789062500000000e-01,7.543334960937500000e-01,5.514526367187500000e-01
-3.100000000000000000e+01,-2.700000000000000000e+01,8.000000000000000000e+00,-1.200000000000000000e+01,-3.000000000000000000e+00,3.000000000000000000e+00,1.000000000000000000e+00,-1.000000000000000000e+00,-3.226318359375000000e-01,1.508789062500000000e-01,7.543334960937500000e-01,5.514526367187500000e-01
3.500000000000000000e+01,2.000000000000000000e+00,5.000000000000000000e+00,0.000000000000000000e+00,-2.000000000000000000e+00,-7.000000000000000000e+00,-1.800000000000000000e+01,-4.000000000000000000e+00,-3.226318359375000000e-01,1.508789062500000000e-01,7.543334960937500000e-01,5.514526367187500000e-01
-1.900000000000000000e+01,4.600000000000000000e+01,9.000000000000000000e+00,3.000000000000000000e+00,0.000000000000000000e+00,9.000000000000000000e+00,3.000000000000000000e+00,0.000000000000000000e+00,-3.226318359375000000e-01,1.508789062500000000e-01,7.543334960937500000e-01,5.514526367187500000e-01
7.000000000000000000e+00,-4.000000000000000000e+00,-1.300000000000000000e+01,-8.000000000000000000e+00,0.000000000000000000e+00,-8.000000000000000000e+00,0.000000000000000000e+00,2.000000000000000000e+00,-3.225097656250000000e-01,1.513061523437500000e-01,7.539062500000000000e-01,5.519409179687500000e-01
2.000000000000000000e+00,5.000000000000000000e+00,5.000000000000000000e+00,5.000000000000000000e+00,-1.000000000000000000e+00,1.100000000000000000e+01,1.000000000000000000e+00,-2.000000000000000000e+00,-3.225097656250000000e-01,1.513061523437500000e-01,7.539062500000000000e-01,5.519409179687500000e-01
-2.000000000000000000e+00,-6.000000000000000000e+00,3.000000000000000000e+00,-8.000000000000000000e+00,-3.000000000000000000e+00,-3.000000000000000000e+00,7.000000000000000000e+00,5.000000000000000000e+00,-3.225097656250000000e-01,1.513061523437500000e-01,7.539062500000000000e-01,5.519409179687500000e-01
-1.600000000000000000e+01,-1.400000000000000000e+01,-3.800000000000000000e+01,9.000000000000000000e+00,1.000000000000000000e+00,-1.000000000000000000e+00,-1.000000000000000000e+00,-7.000000000000000000e+00,-3.225097656250000000e-01,1.513061523437500000e-01,7.539062500000000000e-01,5.519409179687500000e-01
-3.000000000000000000e+00,-5.000000000000000000e+00,1.100000000000000000e+01,-1.100000000000000000e+01,-6.000000000000000000e+00,-6.000000000000000000e+00,-6.000000000000000000e+00,-1.000000000000000000e+00,-3.233032226562500000e-01,1.511840820312500000e-01,7.532958984375000000e-01,5.523681640625000000e-01
1.400000000000000000e+01,-1.400000000000000000e+01,-8.000000000000000000e+00,1.700000000000000000e+01,-1.000000000000000000e+00,-3.000000000000000000e+00,-2.000000000000000000e+00,-2.000000000000000000e+00,-3.233032226562500000e-01,1.511840820312500000e-01,7.532958984375000000e-01,5.523681640625000000e-01
-4.000000000000000000e+00,4.000000000000000000e+00,3.000000000000000000e+00,-1.100000000000000000e+01,-3.000000000000000000e+00,-1.000000000000000000e+00,-5.000000000000000000e+00,-2.000000000000000000e+00,-3.233032226562500000e-01,1.511840820312500000e-01,7.532958984375000000e-01,5.523681640625000000e-01
0.000000000000000000e+00,-7.000000000000000000e+00,1.100000000000000000e+01,0.000000000000000000e+00,-5.000000000000000000e+00,-6.000000000000000000e+00,0.000000000000000000e+00,1.000000000000000000e+00,-3.233032226562500000e-01,1.511840820312500000e-01,7.532958984375000000e-01,5.523681640625000000e-01
-5.000000000000000000e+00,-4.000000000000000000e+00,-6.000000000000000000e+00,-1.000000000000000000e+00,1.000000000000000000e+00,3.000000000000000000e+00,1.000000000000000000e+00,4.000000000000000000e+00,-3.241577148437500000e-01,1.511840820312500000e-01,7.526855468750000000e-01,5.526733398437500000e-01
3.000000000000000000e+00,4.000000000000000000e+00,-3.000000000000000000e+00,-4.000000000000000000e+00,-1.000000000000000000e+00,-7.000000000000000000e+00,-5.000000000000000000e+00,-9.000000000000000000e+00,-3.241577148437500000e-01,1.511840820312500000e-01,7.526855468750000000e-01,5.526733398437500000e-01
-4.000000000000000000e+00,-7.000000000000000000e+00,6.000000000000000000e+00,2.000000000000000000e+00,0.000000000000000000e+00,0.000000000000000000e+00,2.000000000000000000e+00,-5.000000000000000000e+00,-3.241577148437500000e-01,1.511840820312500000e-01,7.526855468750000000e-01,5.526733398437500000e-01
0.000000000000000000e+00,2.000000000000000000e+00,1.000000000000000000e+00,-3.000000000000000000e+00,-2.000000000000000000e+00,-2.000000000000000000e+00,2.000000000000000000e+00,0.000000000000000000e+00,-3.241577148437500000e-01,1.511840820312500000e-01,7.526855468750000000e-01,5.526733398437500000e-01
-4.300000000000000000e+01,-4.000000000000000000e+00,1.000000000000000000e+00,2.000000000000000000e+00,0.000000000000000000e+00,-2.000000000000000000e+00,-4.000000000000000000e+00,-6.000000000000000000e+00,-3.259887695312500000e-01,1.502075195312500000e-01,7.519531250000000000e-01,5.529174804687500000e-01
6.200000000000000000e+01,1.900000000000000000e+01,1.000000000000000000e+00,-6.000000000000000000e+00,-3.000000000000000000e+00,0.000000000000000000e+00,3.000000000000000000e+00,1.500000000000000000e+01,-3.259887695312500000e-01,1.502075195312500000e-01,7.519531250000000000e-01,5.529174804687500000e-01
-2.000000000000000000e+00,-2.100000000000000000e+01,-8.000000000000000000e+00,-3.000000000000000000e+00,-2.000000000000000000e+00,-1.000000000000000000e+00,-4.000000000000000000e+00,-4.000000000000000000e+00,-3.259887695312500000e-01,1.502075195312500000e-01,7.519531250000000000e-01,5.529174804687500000e-01
-2.000000000000000000e+00,-1.000000000000000000e+00,1.000000000000000000e+01,-5.000000000000000000e+00,0.000000000000000000e+00,0.000000000000000000e+00,2.000000000000000000e+00,1.000000000000000000e+00,-3.259887695312500000e-01,1.502075195312500000e-01,7.519531250000000000e-01,5.529174804687500000e-01
-1.200000000000000000e+01,-1.400000000000000000e+01,-5.000000000000000000e+00,6.000000000000000000e+00,1.000000000000000000e+00,0.000000000000000000e+00,-4.000000000000000000e+00,-2.000000000000000000e+00,-3.291015625000000000e-01,1.477661132812500000e-01,7.509155273437500000e-01,5.530395507812500000e-01
-1.200000000000000000e+01,2.200000000000000000e+01,-2.000000000000000000e+00,-4.000000000000000000e+00,2.000000000000000000e+00,0.000000000000000000e+00,-1.000000000000000000e+00,-2.000000000000000000e+00,-3.291015625000000000e-01,1.477661132812500000e-01,7.509155273437500000e-01,5.530395507812500000e-01
-8.000000000000000000e+00,4.000000000000000000e+00,-6.000000000000000000e+00,3.000000000000000000e+00,0.000000000000000000e+00,-1.000000000000000000e+00,1.000000000000000000e+00,-4.000000000000000000e+00,-3.291015625000000000e-01,1.477661132812500000e-01,7.509155273437500000e-01,5.530395507812500000e-01
-1.400000000000000000e+01,-1.100000000000000000e+01,-2.000000000000000000e+00,-3.000000000000000000e+00,-1.000000000000000000e+00,1.000000000000000000e+00,-1.000000000000000000e+00,1.000000000000000000e+00,-3.291015625000000000e-01,1.477661132812500000e-01,7.509155273437500000e-01,5.530395507812500000e-01
3.600000000000000000e+01,1.900000000000000000e+01,4.000000000000000000e+00,1.000000000000000000e+00,-2.000000000000000000e+00,-5.000000000000000000e+00,-4.000000000000000000e+00,2.000000000000000000e+00,-3.314208984375000000e-01,1.457519531250000000e-01,7.498779296875000000e-01,5.536499023437500000e-01
-1.500000000000000000e+01,-2.500000000000000000e+01,-1.200000000000000000e+01,-6.000000000000000000e+00,-4.000000000000000000e+00,-2.000000000000000000e+00,-1.000000000000000000e+00,-1.000000000000000000e+00,-3.314208984375000000e-01,1.457519531250000000e-01,7.498779296875000000e-01,5.536499023437500000e-01
2.000000000000000000e+00,1.900000000000000000e+01,4.000000000000000000e+00,2.000000000000000000e+00,-3.000000000000000000e+00,-1.000000000000000000e+00,-2.000000000000000000e+00,-4.000000000000000000e+00,-3.314208984375000000e-01,1.457519531250000000e-01,7.498779296875000000e-01,5.536499023437500000e-01
-1.300000000000000000e+01,-1.000000000000000000e+00,6.000000000000000000e+00,1.000000000000000000e+00,3.000000000000000000e+00,-1.000000000000000000e+00,0.000000000000000000e+00,-1.000000000000000000e+00,-3.314208984375000000e-01,1.457519531250000000e-01,7.498779296875000000e-01,5.536499023437500000e-01
-1.000000000000000000e+00,-2.500000000000000000e+01,-1.000000000000000000e+01,2.000000000000000000e+00,-2.000000000000000000e+00,-2.000000000000000000e+00,-2.000000000000000000e+00,-1.000000000000000000e+00,-3.326416015625000000e-01,1.444702148437500000e-01,7.487182617187500000e-01,5.548095703125000000e-01
-1.000000000000000000e+01,-1.700000000000000000e+01,-8.000000000000000000e+00,-5.000000000000000000e+00,-2.000000000000000000e+00,0.000000000000000000e+00,0.000000000000000000e+00,2.000000000000000000e+00,-3.326416015625000000e-01,1.444702148437500000e-01,7.487182617187500000e-01,5.548095703125000000e-01
3.000000000000000000e+00,2.200000000000000000e+01,-8.000000000000000000e+00,0.000000000000000000e+00,-1.000000000000000000e+00,0.000000000000000000e+00,-1.000000000000000000e+00,-3.000000000000000000e+00,-3.326416015625000000e-01,1.444702148437500000e-01,7.487182617187500000e-01,5.548095703125000000e-01
-9.000000000000000000e+00,-7.000000000000000000e+00,-1.400000000000000000e+01,-6.000000000000000000e+00,1.000000000000000000e+00,1.000000000000000000e+00,3.000000000000000000e+00,-1.000000000000000000e+00,-3.326416015625000000e-01,1.444702148437500000e-01,7.487182617187500000e-01,5.548095703125000000e-01
4.200000000000000000e+01,2.700000000000000000e+01,1.000000000000000000e+01,-3.000000000000000000e+00,1.000000000000000000e+00,1.000000000000000000e+00,-3.000000000000000000e+00,1.000000000000000000e+00,-3.339843750000000000e-01,1.425170898437500000e-01,7.473144531250000000e-01,5.563964843750000000e-01
-2.600000000000000000e+01,-2.300000000000000000e+01,-7.000000000000000000e+00,4.000000000000000000e+00,-5.000000000000000000e+00,-2.000000000000000000e+00,-3.000000000000000000e+00,-5.000000000000000000e+00,-3.339843750000000000e-01,1.425170898437500000e-01,7.473144531250000000e-01,5.563964843750000000e-01
-2.000000000000000000e+00,-1.700000000000000000e+01,9.000000000000000000e+00,6.000000000000000000e+00,1.000000000000000000e+01,2.000000000000000000e+00,3.000000000000000000e+00,-6.000000000000000000e+00,-3.339843750000000000e-01,1.425170898437500000e-01,7.473144531250000000e-01,5.563964843750000000e-01
2.300000000000000000e+01,2.500000000000000000e+01,5.000000000000000000e+00,-8.000000000000000000e+00,-8.000000000000000000e+00,-2.000000000000000000e+00,1.000000000000000000e+00,4.000000000000000000e+00,-3.339843750000000000e-01,1.425170898437500000e-01,7.473144531250000000e-01,5.563964843750000000e-01
-1.900000000000000000e+01,-1.800000000000000000e+01,-2.000000000000000000e+01,1.700000000000000000e+01,1.400000000000000000e+01,0.000000000000000000e+00,-2.000000000000000000e+00,-3.000000000000000000e+00,-3.350219726562500000e-01,1.393432617187500000e-01,7.459716796875000000e-01,5.583496093750000000e-01
4.000000000000000000e+00,2.500000000000000000e+01,1.100000000000000000e+01,-3.000000000000000000e+00,1.000000000000000000e+00,-2.000000000000000000e+00,0.000000000000000000e+00,-1.000000000000000000e+00,-3.350219726562500000e-01,1.393432617187500000e-01,7.459716796875000000e-01,5.583496093750000000e-01
-1.100000000000000000e+01,-2.000000000000000000e+01,0.000000000000000000e+00,3.000000000000000000e+00,1.000000000000000000e+00,2.000000000000000000e+00,2.000000000000000000e+00,3.000000000000000000e+00,-3.350219726562500000e-01,1.393432617187500000e-01,7.459716796875000000e-01,5.583496093750000000e-01
5.000000000000000000e+00,1.000000000000000000e+00,4.000000000000000000e+00,-7.000000000000000000e+00,-3.000000000000000000e+00,3.000000000000000000e+00,-1.000000000000000000e+00,-3.000000000000000000e+00,-3.350219726562500000e-01,1.393432617187500000e-01,7.459716796875000000e-01,5.583496093750000000e-01
-9.000000000000000000e+00,2.000000000000000000e+00,2.000000000000000000e+00,-7.000000000000000000e+00,-5.000000000000000000e+00,-4.000000000000000000e+00,-2.000000000000000000e+00,-6.000000000000000000e+00,-3.347778320312500000e-01,1.361694335937500000e-01,7.451782226562500000e-01,5.603637695312500000e-01
2.000000000000000000e+00,-7.000000000000000000e+00,-7.000000000000000000e+00,-2.000000000000000000e+00,-3.000000000000000000e+00,0.000000000000000000e+00,-3.000000000000000000e+00,-2.000000000000000000e+00,-3.347778320312500000e-01,1.361694335937500000e-01,7.451782226562500000e-01,5.603637695312500000e-01
-1.400000000000000000e+01,3.000000000000000000e+00,-1.000000000000000000e+01,-6.000000000000000000e+00,-3.000000000000000000e+00,-5.000000000000000000e+00,-4.000000000000000000e+00,-2.000000000000000000e+00,-3.347778320312500000e-01,1.361694335937500000e-01,7.451782226562500000e-01,5.603637695312500000e-01
1.100000000000000000e+01,-1.000000000000000000e+00,2.000000000000000000e+00,0.000000000000000000e+00,2.000000000000000000e+00,-1.000000000000000000e+00,-1.000000000000000000e+00,1.000000000000000000e+00,-3.347778320312500000e-01,1.361694335937500000e-01,7.451782226562500000e-01,5.603637695312500000e-01
-2.000000000000000000e+00,-5.000000000000000000e+00,2.000000000000000000e+00,-5.000000000000000000e+00,-9.000000000000000000e+00,-3.000000000000000000e+00,-3.000000000000000000e+00,-1.000000000000000000e+00,-3.353271484375000000e-01,1.321411132812500000e-01,7.445068359375000000e-01,5.619506835937500000e-01
-3.000000000000000000e+00,5.000000000000000000e+00,-1.000000000000000000e+01,3.000000000000000000e+00,3.000000000000000000e+00,0.000000000000000000e+00,1.000000000000000000e+00,-1.000000000000000000e+00,-3.353271484375000000e-01,1.321411132812500000e-01,7.445068359375000000e-01,5.619506835937500000e-01
1.300000000000000000e+01,8.000000000000000000e+00,1.000000000000000000e+00,-9.000000000000000000e+00,-6.000000000000000000e+00,-5.000000000000000000e+00,-1.000000000000000000e+00,9.000000000000000000e+00,-3.353271484375000000e-01,1.321411132812500000e-01,7.445068359375000000e-01,5.619506835937500000e-01
-2.000000000000000000e+00,-1.600000000000000000e+01,0.000000000000000000e+00,2.000000000000000000e+00,-1.000000000000000000e+00,1.000000000000000000e+00,-2.000000000000000000e+00,-7.000000000000000000e+00,-3.353271484375000000e-01,1.321411132812500000e-01,7.445068359375000000e-01,5.619506835937500000e-01
-5.000000000000000000e+00,6.000000000000000000e+00,1.000000000000000000e+00,2.000000000000000000e+00,-1.000000000000000000e+00,0.000000000000000000e+00,1.100000000000000000e+01,-1.000000000000000000e+00,-3.367309570312500000e-01,1.273803710937500000e-01,7.438964843750000000e-01,5.629882812500000000e-01
-6.000000000000000000e+00,-9.000000000000000000e+00,-4.000000000000000000e+00,-7.000000000000000000e+00,-3.000000000000000000e+00,-5.000000000000000000e+00,-2.100000000000000000e+01,-3.000000000000000000e+00,-3.367309570312500000e-01,1.273803710937500000e-01,7.438964843750000000e-01,5.629882812500000000e-01
6.000000000000000000e+00,-3.000000000000000000e+00,-2.000000000000000000e+00,-3.000000000000000000e+00,-1.000000000000000000e+00,5.000000000000000000e+00,1.400000000000000000e+01,2.000000000000000000e+00,-3.367309570312500000e-01,1.273803710937500000e-01,7.438964843750000000e-01,5.629882812500000000e-01
3.000000000000000000e+00,3.000000000000000000e+00,1.000000000000000000e+00,8.000000000000000000e+00,1.000000000000000000e+00,7.000000000000000000e+00,-2.000000000000000000e+00,0.000000000000000000e+00,-3.367309570312500000e-01,1.273803710937500000e-01,7.438964843750000000e-01,5.629882812500000000e-01
-4.000000000000000000e+00,-1.700000000000000000e+01,-4.000000000000000000e+00,-6.000000000000000000e+00,-3.000000000000000000e+00,-4.000000000000000000e+00,-2.000000000000000000e+00,-1.000000000000000000e+00,-3.375244140625000000e-01,1.239013671875000000e-01,7.436523437500000000e-01,5.636596679687500000e-01
2.400000000000000000e+01,4.000000000000000000e+00,8.000000000000000000e+00,0.000000000000000000e+00,-2.000000000000000000e+00,-4.000000000000000000e+00,4.000000000000000000e+00,1.000000000000000000e+00,-3.375244140625000000e-01,1.239013671875000000e-01,7.436523437500000000e-01,5.636596679687500000e-01
-2.000000000000000000e+00,-1.000000000000000000e+00,-1.600000000000000000e+01,-7.000000000000000000e+00,-3.000000000000000000e+00,-3.000000000000000000e+00,-5.000000000000000000e+00,-3.000000000000000000e+00,-3.375244140625000000e-01,1.239013671875000000e-01,7.436523437500000000e-01,5.636596679687500000e-01
-1.900000000000000000e+01,-2.000000000000000000e+01,-1.000000000000000000e+00,1.000000000000000000e+00,-1.000000000000000000e+00,-4.000000000000000000e+00,-2.000000000000000000e+00,0.000000000000000000e+00,-3.375244140625000000e-01,1.239013671875000000e-01,7.436523437500000000e-01,5.636596679687500000e-01
-3.000000000000000000e+00,2.100000000000000000e+01,6.000000000000000000e+00,-1.100000000000000000e+01,-4.000000000000000000e+00,1.000000000000000000e+00,1.000000000000000000e+00,-2.000000000000000000e+00,-3.377075195312500000e-01,1.220092773437500000e-01,7.431640625000000000e-01,5.645751953125000000e-01
-2.000000000000000000e+00,-8.000000000000000000e+00,3.000000000000000000e+00,3.000000000000000000e+00,-4.000000000000000000e+00,-8.000000000000000000e+00,0.000000000000000000e+00,-2.000000000000000000e+00,-3.377075195312500000e-01,1.220092773437500000e-01,7.431640625000000000e-01,5.645751953125000000e-01
-2.700000000000000000e+01,-4.000000000000000000e+00,1.300000000000000000e+01,4.000000000000000000e+00,-1.000000000000000000e+00,0.000000000000000000e+00,-8.000000000000000000e+00,-6.000000000000000000e+00,-3.377075195312500000e-01,1.220092773437500000e-01,7.431640625000000000e-01,5.645751953125000000e-01
2.900000000000000000e+01,1.600000000000000000e+01,2.000000000000000000e+00,0.000000000000000000e+00,0.000000000000000000e+00,-2.000000000000000000e+00,6.000000000000000000e+00,5.000000000000000000e+00,-3.377075195312500000e-01,1.220092773437500000e-01,7.431640625000000000e-01,5.645751953125000000e-01
-1.300000000000000000e+01,-1.100000000000000000e+01,-8.000000000000000000e+00,-2.000000000000000000e+00,-1.000000000000000000e+00,-2.000000000000000000e+00,-6.000000000000000000e+00,-4.000000000000000000e+00,-3.365478515625000000e-01,1.221313476562500000e-01,7.426147460937500000e-01,5.659179687500000000e-01
3.000000000000000000e+00,1.700000000000000000e+01,5.000000000000000000e+00,3.000000000000000000e+00,2.000000000000000000e+00,1.000000000000000000e+00,3.000000000000000000e+00,-2.000000000000000000e+00,-3.365478515625000000e-01,1.221313476562500000e-01,7.426147460937500000e-01,5.659179687500000000e-01
5.000000000000000000e+00,-2.000000000000000000e+01,-9.000000000000000000e+00,-8.000000000000000000e+00,-1.000000000000000000e+00,0.000000000000000000e+00,-1.000000000000000000e+00,-1.000000000000000000e+00,-3.365478515625000000e-01,1.221313476562500000e-01,7.426147460937500000e-01,5.659179687500000000e-01
-1.000000000000000000e+00,2.800000000000000000e+01,9.000000000000000000e+00,-2.000000000000000000e+00,1.000000000000000000e+00,4.000000000000000000e+00,1.000000000000000000e+00,-1.000000000000000000e+00,-3.365478515625000000e-01,1.221313476562500000e-01,7.426147460937500000e-01,5.659179687500000000e-01
0.000000000000000000e+00,-2.000000000000000000e+01,-1.300000000000000000e+01,1.200000000000000000e+01,-1.000000000000000000e+00,-2.000000000000000000e+00,-1.000000000000000000e+00,0.000000000000000000e+00,-3.342895507812500000e-01,1.237792968750000000e-01,7.423095703125000000e-01,5.673217773437500000e-01
1.000000000000000000e+00,1.900000000000000000e+01,8.000000000000000000e+00,-1.500000000000000000e+01,-2.000000000000000000e+00,1.000000000000000000e+00,1.000000000000000000e+00,-3.000000000000000000e+00,-3.342895507812500000e-01,1.237792968750000000e-01,7.423095703125000000e-01,5.673217773437500000e-01
-1.200000000000000000e+01,-9.000000000000000000e+00,-2.000000000000000000e+00,7.000000000000000000e+00,-3.000000000000000000e+00,1.000000000000000000e+00,0.000000000000000000e+00,-1.000000000000000000e+00,-3.342895507812500000e-01,1.237792968750000000e-01,7.423095703125000000e-01,5.673217773437500000e-01
-1.000000000000000000e+00,-5.000000000000000000e+00,0.000000000000000000e+00,-5.000000000000000000e+00,0.000000000000000000e+00,-7.000000000000000000e+00,-6.000000000000000000e+00,-2.000000000000000000e+00,-3.342895507812500000e-01,1.237792968750000000e-01,7.423095703125000000e-01,5.673217773437500000e-01
4.000000000000000000e+00,1.200000000000000000e+01,8.000000000000000000e+00,-3.000000000000000000e+00,-2.000000000000000000e+00,-1.000000000000000000e+00,-3.000000000000000000e+00,-3.000000000000000000e+00,-3.327636718750000000e-01,1.246337890625000000e-01,7.424316406250000000e-01,5.678100585937500000e-01
-5.000000000000000000e+00,-8.000000000000000000e+00,2.000000000000000000e+00,1.300000000000000000e+01,3.000000000000000000e+00,-2.000000000000000000e+00,-3.000000000000000000e+00,-1.000000000000000000e+00,-3.327636718750000000e-01,1.246337890625000000e-01,7.424316406250000000e-01,5.678100585937500000e-01
-4.000000000000000000e+00,1.000000000000000000e+00,0.000000000000000000e+00,-1.300000000000000000e+01,-5.000000000000000000e+00,-7.000000000000000000e+00,-3.000000000000000000e+00,-2.000000000000000000e+00,-3.327636718750000000e-01,1.246337890625000000e-01,7.424316406250000000e-01,5.678100585937500000e-01
8.000000000000000000e+00,0.000000000000000000e+00,2.000000000000000000e+00,-3.000000000000000000e+00,-4.000000000000000000e+00,1.000000000000000000e+00,0.000000000000000000e+00,3.000000000000000000e+00,-3.327636718750000000e-01,1.246337890625000000e-01,7.424316406250000000e-01,5.678100585937500000e-01
-1.100000000000000000e+01,-1.700000000000000000e+01,1.000000000000000000e+00,-2.000000000000000000e+00,-1.000000000000000000e+00,-2.000000000000000000e+00,-1.000000000000000000e+00,-3.000000000000000000e+00,-3.317871093750000000e-01,1.250610351562500000e-01,7.429809570312500000e-01,5.676269531250000000e-01
-2.000000000000000000e+00,-1.600000000000000000e+01,-4.000000000000000000e+00,-2.000000000000000000e+00,-2.000000000000000000e+00,-4.000000000000000000e+00,1.000000000000000000e+00,-3.000000000000000000e+00,-3.317871093750000000e-01,1.250610351562500000e-01,7.429809570312500000e-01,5.676269531250000000e-01
1.200000000000000000e+01,-5.000000000000000000e+00,9.000000000000000000e+00,2.000000000000000000e+00,1.000000000000000000e+00,-5.000000000000000000e+00,-1.000000000000000000e+00,1.000000000000000000e+00,-3.317871093750000000e-01,1.250610351562500000e-01,7.429809570312500000e-01,5.676269531250000000e-01
-3.000000000000000000e+01,-9.000000000000000000e+00,-1.600000000000000000e+01,-1.000000000000000000e+00,-2.000000000000000000e+00,-7.000000000000000000e+00,-3.000000000000000000e+00,-3.000000000000000000e+00,-3.317871093750000000e-01,1.250610351562500000e-01,7.429809570312500000e-01,5.676269531250000000e-01
2.400000000000000000e+01,3.300000000000000000e+01,2.000000000000000000e+01,2.000000000000000000e+00,-4.000000000000000000e+00,1.000000000000000000e+00,-1.000000000000000000e+00,3.000000000000000000e+00,-3.316650390625000000e-01,1.243896484375000000e-01,7.431030273437500000e-01,5.676879882812500000e-01
-6.000000000000000000e+00,-6.000000000000000000e+00,-1.100000000000000000e+01,-4.000000000000000000e+00,-3.000000000000000000e+00,3.000000000000000000e+00,3.000000000000000000e+00,-1.000000000000000000e+00,-3.316650390625000000e-01,1.243896484375000000e-01,7.431030273437500000e-01,5.676879882812500000e-01
-6.000000000000000000e+00,-2.100000000000000000e+01,-1.300000000000000000e+01,2.000000000000000000e+00,2.000000000000000000e+00,-2.000000000000000000e+00,-2.000000000000000000e+00,-3.000000000000000000e+00,-3.316650390625000000e-01,1.243896484375000000e-01,7.431030273437500000e-01,5.676879882812500000e-01
-1.300000000000000000e+01,-2.000000000000000000e+01,5.000000000000000000e+00,4.000000000000000000e+00,-1.000000000000000000e+00,-1.000000000000000000e+00,-4.000000000000000000e+00,-3.000000000000000000e+00,-3.316650390625000000e-01,1.243896484375000000e-01,7.431030273437500000e-01,5.676879882812500000e-01
2.400000000000000000e+01,1.900000000000000000e+01,-5.000000000000000000e+00,-2.000000000000000000e+00,0.000000000000000000e+00,3.000000000000000000e+00,4.000000000000000000e+00,4.000000000000000000e+00,-3.315429687500000000e-01,1.233520507812500000e-01,7.429199218750000000e-01,5.682373046875000000e-01
2.000000000000000000e+00,2.000000000000000000e+00,9.000000000000000000e+00,-5.000000000000000000e+00,0.000000000000000000e+00,-2.000000000000000000e+00,0.000000000000000000e+00,4.000000000000000000e+00,-3.315429687500000000e-01,1.233520507812500000e-01,7.429199218750000000e-01,5.682373046875000000e-01
3.000000000000000000e+00,1.100000000000000000e+01,6.000000000000000000e+00,4.000000000000000000e+00,-2.000000000000000000e+00,1.000000000000000000e+00,-2.000000000000000000e+00,2.000000000000000000e+00,-3.315429687500000000e-01,1.233520507812500000e-01,7.429199218750000000e-01,5.682373046875000000e-01
-4.000000000000000000e+00,0.000000000000000000e+00,-2.000000000000000000e+00,-1.000000000000000000e+00,2.000000000000000000e+00,0.000000000000000000e+00,1.000000000000000000e+00,-5.000000000000000000e+00,-3.315429687500000000e-01,1.233520507812500000e-01,7.429199218750000000e-01,5.682373046875000000e-01
-2.700000000000000000e+01,3.000000000000000000e+00,-1.100000000000000000e+01,-2.000000000000000000e+00,1.000000000000000000e+00,-1.000000000000000000e+00,-3.000000000000000000e+00,-2.000000000000000000e+00,-3.309326171875000000e-01,1.242065429687500000e-01,7.424926757812500000e-01,5.689086914062500000e-01
3.200000000000000000e+01,1.000000000000000000e+00,5.000000000000000000e+00,0.000000000000000000e+00,0.000000000000000000e+00,0.000000000000000000e+00,-1.000000000000000000e+00,2.000000000000000000e+00,-3.309326171875000000e-01,1.242065429687500000e-01,7.424926757812500000e-01,5.689086914062500000e-01
-1.200000000000000000e+01,-8.000000000000000000e+00,-2.100000000000000000e+01,3.000000000000000000e+00,1.000000000000000000e+00,2.000000000000000000e+00,-2.000000000000000000e+00,0.000000000000000000e+00,-3.309326171875000000e-01,1.242065429687500000e-01,7.424926757812500000e-01,5.689086914062500000e-01
-1.500000000000000000e+01,2.000000000000000000e+00,-3.000000000000000000e+00,-9.000000000000000000e+00,-3.000000000000000000e+00,-2.000000000000000000e+00,-1.000000000000000000e+00,-8.000000000000000000e+00,-3.309326171875000000e-01,1.242065429687500000e-01,7.424926757812500000e-01,5.689086914062500000e-01
1.300000000000000000e+01,-1.200000000000000000e+01,-2.500000000000000000e+01,-8.000000000000000000e+00,-3.000000000000000000e+00,-5.000000000000000000e+00,-3.000000000000000000e+00,0.000000000000000000e+00,-3.302001953125000000e-01,1.258544921875000000e-01,7.418823242187500000e-01,5.697631835937500000e-01
-1.600000000000000000e+01,1.400000000000000000e+01,4.000000000000000000e+00,6.000000000000000000e+00,2.000000000000000000e+00,5.000000000000000000e+00,2.000000000000000000e+00,-1.000000000000000000e+00,-3.302001953125000000e-01,1.258544921875000000e-01,7.418823242187500000e-01,5.697631835937500000e-01
7.000000000000000000e+00,1.300000000000000000e+01,6.000000000000000000e+00,-6.000000000000000000e+00,-5.000000000000000000e+00,1.000000000000000000e+00,0.000000000000000000e+00,-1.000000000000000000e+00,-3.302001953125000000e-01,1.258544921875000000e-01,7.418823242187500000e-01,5.697631835937500000e-01
3.900000000000000000e+01,-7.000000000000000000e+00,-5.000000000000000000e+00,9.000000000000000000e+00,6.000000000000000000e+00,1.000000000000000000e+00,0.000000000000000000e+00,6.000000000000000000e+00,-3.302001953125000000e-01,1.258544921875000000e-01,7.418823242187500000e-01,5.697631835937500000e-01
-2.800000000000000000e+01,0.000000000000000000e+00,-2.000000000000000000e+00,-5.000000000000000000e+00,-5.000000000000000000e+00,-1.000000000000000000e+00,-5.000000000000000000e+00,-6.000000000000000000e+00,-3.298950195312500000e-01,1.265869140625000000e-01,7.415771484375000000e-01,5.701904296875000000e-01
-8.000000000000000000e+00,-1.700000000000000000e+01,-2.200000000000000000e+01,-2.400000000000000000e+01,-4.000000000000000000e+00,-3.000000000000000000e+00,0.000000000000000000e+00,-2.000000000000000000e+00,-3.298950195312500000e-01,1.265869140625000000e-01,7.415771484375000000e-01,5.701904296875000000e-01
2.600000000000000000e+01,1.300000000000000000e+01,1.300000000000000000e+01,2.100000000000000000e+01,-3.000000000000000000e+00,-5.000000000000000000e+00,-2.000000000000000000e+00,2.000000000000000000e+00,-3.298950195312500000e-01,1.265869140625000000e-01,7.415771484375000000e-01,5.701904296875000000e-01
-3.100000000000000000e+01,-4.000000000000000000e+00,-5.000000000000000000e+00,-9.000000000000000000e+00,-6.000000000000000000e+00,-2.000000000000000000e+00,-6.000000000000000000e+00,-1.200000000000000000e+01,-3.298950195312500000e-01,1.265869140625000000e-01,7.415771484375000000e-01,5.701904296875000000e-01
5.200000000000000000e+01,6.000000000000000000e+00,2.300000000000000000e+01,7.000000000000000000e+00,2.000000000000000000e+00,-1.000000000000000000e+00,2.000000000000000000e+00,1.900000000000000000e+01,-3.308715820312500000e-01,1.257934570312500000e-01,7.416381835937500000e-01,5.697631835937500000e-01
-3.600000000000000000e+01,4.000000000000000000e+00,-7.000000000000000000e+00,-1.800000000000000000e+01,-3.000000000000000000e+00,-1.000000000000000000e+00,-4.000000000000000000e+00,-8.000000000000000000e+00,-3.308715820312500000e-01,1.257934570312500000e-01,7.416381835937500000e-01,5.697631835937500000e-01
0.000000000000000000e+00,-6.000000000000000000e+00,3.000000000000000000e+00,1.000000000000000000e+01,3.000000000000000000e+00,-2.000000000000000000e+00,0.000000000000000000e+00,-1.000000000000000000e+00,-3.308715820312500000e-01,1.257934570312500000e-01,7.416381835937500000e-01,5.697631835937500000e-01
-5.000000000000000000e+00,2.000000000000000000e+00,1.300000000000000000e+01,6.000000000000000000e+00,-2.000000000000000000e+00,0.000000000000000000e+00,-1.000000000000000000e+00,-2.000000000000000000e+00,-3.308715820312500000e-01,1.257934570312500000e-01,7.416381835937500000e-01,5.697631835937500000e-01
-8.000000000000000000e+00,-6.000000000000000000e+00,-2.600000000000000000e+01,-2.000000000000000000e+00,-1.000000000000000000e+00,-3.000000000000000000e+00,-3.000000000000000000e+00,-1.000000000000000000e+01,-3.328247070312500000e-01,1.243286132812500000e-01,7.413330078125000000e-01,5.692749023437500000e-01
3.500000000000000000e+01,-1.000000000000000000e+00,1.400000000000000000e+01,-6.000000000000000000e+00,-1.100000000000000000e+01,-3.000000000000000000e+00,3.000000000000000000e+00,1.700000000000000000e+01,-3.328247070312500000e-01,1.243286132812500000e-01,7.413330078125000000e-01,5.692749023437500000e-01
-1.600000000000000000e+01,2.000000000000000000e+00,2.000000000000000000e+00,-7.000000000000000000e+00,9.000000000000000000e+00,4.000000000000000000e+00,-1.000000000000000000e+00,-4.000000000000000000e+00,-3.328247070312500000e-01,1.243286132812500000e-01,7.413330078125000000e-01,5.692749023437500000e-01
1.000000000000000000e+00,0.000000000000000000e+00,-3.000000000000000000e+00,1.000000000000000000e+00,-5.000000000000000000e+00,-2.000000000000000000e+00,-2.000000000000000000e+00,1.000000000000000000e+00,-3.328247070312500000e-01,1.243286132812500000e-01,7.413330078125000000e-01,5.692749023437500000e-01
-4.400000000000000000e+01,-1.200000000000000000e+01,9.000000000000000000e+00,-4.000000000000000000e+00,-3.000000000000000000e+00,-2.000000000000000000e+00,-4.000000000000000000e+00,-9.000000000000000000e+00,-3.357543945312500000e-01,1.229858398437500000e-01,7.403564453125000000e-01,5.692138671875000000e-01
8.000000000000000000e+00,4.000000000000000000e+00,0.000000000000000000e+00,1.500000000000000000e+01,4.000000000000000000e+00,-1.000000000000000000e+00,0.000000000000000000e+00,-2.000000000000000000e+00,-3.357543945312500000e-01,1.229858398437500000e-01,7.403564453125000000e-01,5.692138671875000000e-01
-2.000000000000000000e+00,-1.000000000000000000e+01,1.000000000000000000e+00,-9.000000000000000000e+00,-4.000000000000000000e+00,7.000000000000000000e+00,-1.000000000000000000e+00,-1.000000000000000000e+00,-3.357543945312500000e-01,1.229858398437500000e-01,7.403564453125000000e-01,5.692138671875000000e-01
-1.600000000000000000e+01,4.000000000000000000e+00,-1.000000000000000000e+00,2.000000000000000000e+00,1.000000000000000000e+00,-1.000000000000000000e+00,-1.000000000000000000e+00,-5.000000000000000000e+00,-3.357543945312500000e-01,1.229858398437500000e-01,7.403564453125000000e-01,5.692138671875000000e-01
2.800000000000000000e+01,1.000000000000000000e+01,2.000000000000000000e+00,0.000000000000000000e+00,2.000000000000000000e+00,0.000000000000000000e+00,1.000000000000000000e+00,5.000000000000000000e+00,-3.383178710937500000e-01,1.224365234375000000e-01,7.386474609375000000e-01,5.700073242187500000e-01
1.000000000000000000e+01,-7.000000000000000000e+00,5.000000000000000000e+00,6.000000000000000000e+00,2.000000000000000000e+00,0.000000000000000000e+00,8.000000000000000000e+00,1.000000000000000000e+00,-3.383178710937500000e-01,1.224365234375000000e-01,7.386474609375000000e-01,5.700073242187500000e-01
-2.000000000000000000e+00,1.100000000000000000e+01,-2.800000000000000000e+01,-1.000000000000000000e+01,-9.000000000000000000e+00,-4.000000000000000000e+00,-1.400000000000000000e+01,-4.000000000000000000e+00,-3.383178710937500000e-01,1.224365234375000000e-01,7.386474609375000000e-01,5.700073242187500000e-01
-1.000000000000000000e+00,-1.200000000000000000e+01,1.100000000000000000e+01,1.000000000000000000e+00,1.000000000000000000e+00,0.000000000000000000e+00,-5.000000000000000000e+00,-3.000000000000000000e+00,-3.383178710937500000e-01,1.224365234375000000e-01,7.386474609375000000e-01,5.700073242187500000e-01
-2.600000000000000000e+01,1.100000000000000000e+01,5.000000000000000000e+00,1.000000000000000000e+00,0.000000000000000000e+00,-3.000000000000000000e+00,-6.000000000000000000e+00,-8.000000000000000000e+00,-3.411254882812500000e-01,1.222534179687500000e-01,7.368164062500000000e-01,5.706787109375000000e-01
-6.000000000000000000e+00,-2.700000000000000000e+01,-5.000000000000000000e+00,6.000000000000000000e+00,0.000000000000000000e+00,1.000000000000000000e+00,1.000000000000000000e+00,3.000000000000000000e+00,-3.411254882812500000e-01,1.222534179687500000e-01,7.368164062500000000e-01,5.706787109375000000e-01
3.800000000000000000e+01,1.600000000000000000e+01,-1.000000000000000000e+00,-1.100000000000000000e+01,-2.000000000000000000e+00,-1.000000000000000000e+01,2.000000000000000000e+00,3.000000000000000000e+00,-3.411254882812500000e-01,1.222534179687500000e-01,7.368164062500000000e-01,5.706787109375000000e-01
0.000000000000000000e+00,-1.200000000000000000e+01,4.000000000000000000e+00,-6.000000000000000000e+00,1.000000000000000000e+00,1.400000000000000000e+01,4.000000000000000000e+00,1.000000000000000000e+00,-3.411254882812500000e-01,1.222534179687500000e-01,7.368164062500000000e-01,5.706787109375000000e-01
-8.000000000000000000e+00,-1.600000000000000000e+01,-7.000000000000000000e+00,2.000000000000000000e+00,-4.000000000000000000e+00,-6.000000000000000000e+00,-2.000000000000000000e+00,-4.000000000000000000e+00,-3.447875976562500000e-01,1.214599609375000000e-01,7.350463867187500000e-01,5.709838867187500000e-01
0.000000000000000000e+00,2.600000000000000000e+01,8.000000000000000000e+00,0.000000000000000000e+00,0.000000000000000000e+00,-2.000000000000000000e+00,-6.000000000000000000e+00,-2.000000000000000000e+00,-3.447875976562500000e-01,1.214599609375000000e-01,7.350463867187500000e-01,5.709838867187500000e-01
-4.900000000000000000e+01,-2.300000000000000000e+01,-1.000000000000000000e+00,5.000000000000000000e+00,2.000000000000000000e+00,2.000000000000000000e+00,1.000000000000000000e+00,-4.000000000000000000e+00,-3.447875976562500000e-01,1.214599609375000000e-01,7.350463867187500000e-01,5.709838867187500000e-01
3.900000000000000000e+01,1.300000000000000000e+01,-1.000000000000000000e+01,-5.000000000000000000e+00,-4.000000000000000000e+00,-9.000000000000000000e+00,-3.000000000000000000e+00,4.000000000000000000e+00,-3.447875976562500000e-01,1.214599609375000000e-01,7.350463867187500000e-01,5.709838867187500000e-01
-3.000000000000000000e+00,-2.000000000000000000e+01,9.000000000000000000e+00,-2.000000000000000000e+00,-1.000000000000000000e+00,4.000000000000000000e+00,3.000000000000000000e+00,0.000000000000000000e+00,-3.480834960937500000e-01,1.207885742187500000e-01,7.332763671875000000e-01,5.713500976562500000e-01
-7.000000000000000000e+00,6.000000000000000000e+00,-1.300000000000000000e+01,0.000000000000000000e+00,-1.000000000000000000e+00,0.000000000000000000e+00,-4.000000000000000000e+00,-6.000000000000000000e+00,-3.480834960937500000e-01,1.207885742187500000e-01,7.332763671875000000e-01,5.713500976562500000e-01
-7.000000000000000000e+00,-1.000000000000000000e+00,-7.000000000000000000e+00,0.000000000000000000e+00,0.000000000000000000e+00,-1.000000000000000000e+00,-1.000000000000000000e+00,0.000000000000000000e+00,-3.480834960937500000e-01,1.207885742187500000e-01,7.332763671875000000e-01,5.713500976562500000e-01
-2.000000000000000000e+00,1.000000000000000000e+00,-1.000000000000000000e+00,-9.000000000000000000e+00,-1.000000000000000000e+00,-4.000000000000000000e+00,1.000000000000000000e+00,0.000000000000000000e+00,-3.480834960937500000e-01,1.207885742187500000e-01,7.332763671875000000e-01,5.713500976562500000e-01
3.000000000000000000e+00,-3.000000000000000000e+00,1.000000000000000000e+00,6.000000000000000000e+00,-1.000000000000000000e+00,2.000000000000000000e+00,0.000000000000000000e+00,0.000000000000000000e+00,-3.505249023437500000e-01,1.208496093750000000e-01,7.323608398437500000e-01,5.711059570312500000e-01
-1.100000000000000000e+01,1.000000000000000000e+00,4.000000000000000000e+00,6.000000000000000000e+00,0.000000000000000000e+00,-1.000000000000000000e+00,-4.000000000000000000e+00,-4.000000000000000000e+00,-3.505249023437500000e-01,1.208496093750000000e-01,7.323608398437500000e-01,5.711059570312500000e-01
-6.000000000000000000e+00,-1.000000000000000000e+00,-3.000000000000000000e+00,-6.000000000000000000e+00,-4.000000000000000000e+00,-1.000000000000000000e+00,0.000000000000000000e+00,-4.000000000000000000e+00,-3.505249023437500000e-01,1.208496093750000000e-01,7.323608398437500000e-01,5.711059570312500000e-01
1.100000000000000000e+01,4.000000000000000000e+00,-1.100000000000000000e+01,2.000000000000000000e+00,3.000000000000000000e+00,0.000000000000000000e+00,4.000000000000000000e+00,5.000000000000000000e+00,-3.505249023437500000e-01,1.208496093750000000e-01,7.323608398437500000e-01,5.711059570312500000e-01
0.000000000000000000e+00,-7.000000000000000000e+00,4.000000000000000000e+00,-7.000000000000000000e+00,-3.000000000000000000e+00,-1.000000000000000000e+00,-1.000000000000000000e+00,-1.000000000000000000e+00,-3.526611328125000000e-01,1.209106445312500000e-01,7.322387695312500000e-01,5.698852539062500000e-01
5.000000000000000000e+00,0.000000000000000000e+00,1.000000000000000000e+00,-3.000000000000000000e+00,-2.000000000000000000e+00,-2.000000000000000000e+00,-3.000000000000000000e+00,-4.000000000000000000e+00,-3.526611328125000000e-01,1.209106445312500000e-01,7.322387695312500000e-01,5.698852539062500000e-01
-1.900000000000000000e+01,1.400000000000000000e+01,2.600000000000000000e+01,5.000000000000000000e+00,1.000000000000000000e+00,0.000000000000000000e+00,-2.000000000000000000e+00,-5.000000000000000000e+00,-3.526611328125000000e-01,1.209106445312500000e-01,7.322387695312500000e-01,5.698852539062500000e-01
3.000000000000000000e+00,-2.700000000000000000e+01,-1.500000000000000000e+01,-2.000000000000000000e+00,-1.000000000000000000e+00,-2.000000000000000000e+00,2.000000000000000000e+00,-3.000000000000000000e+00,-3.526611328125000000e-01,1.209106445312500000e-01,7.322387695312500000e-01,5.698852539062500000e-01
1.900000000000000000e+01,5.000000000000000000e+00,-7.000000000000000000e+00,1.000000000000000000e+00,-2.000000000000000000e+00,-7.000000000000000000e+00,-4.000000000000000000e+00,3.000000000000000000e+00,-3.543090820312500000e-01,1.205444335937500000e-01,7.325439453125000000e-01,5.685424804687500000e-01
-1.900000000000000000e+01,6.000000000000000000e+00,2.000000000000000000e+00,5.000000000000000000e+00,4.000000000000000000e+00,3.000000000000000000e+00,4.000000000000000000e+00,-2.000000000000000000e+00,-3.543090820312500000e-01,1.205444335937500000e-01,7.325439453125000000e-01,5.685424804687500000e-01
2.100000000000000000e+01,3.000000000000000000e+00,4.000000000000000000e+00,-2.000000000000000000e+00,-2.000000000000000000e+00,-1.000000000000000000e+00,-2.000000000000000000e+00,-3.000000000000000000e+00,-3.543090820312500000e-01,1.205444335937500000e-01,7.325439453125000000e-01,5.685424804687500000e-01
-1.000000000000000000e+00,-5.000000000000000000e+00,-1.000000000000000000e+00,4.000000000000000000e+00,2.000000000000000000e+00,-6.000000000000000000e+00,2.000000000000000000e+00,7.000000000000000000e+00,-3.543090820312500000e-01,1.205444335937500000e-01,7.325439453125000000e-01,5.685424804687500000e-01
-2.300000000000000000e+01,9.000000000000000000e+00,-1.000000000000000000e+01,-7.000000000000000000e+00,-2.000000000000000000e+00,4.000000000000000000e+00,-7.000000000000000000e+00,-1.000000000000000000e+01,-3.554077148437500000e-01,1.194458007812500000e-01,7.326660156250000000e-01,5.679931640625000000e-01
7.000000000000000000e+00,-5.000000000000000000e+00,-2.000000000000000000e+00,3.000000000000000000e+00,-2.000000000000000000e+00,-3.000000000000000000e+00,0.000000000000000000e+00,3.000000000000000000e+00,-3.554077148437500000e-01,1.194458007812500000e-01,7.326660156250000000e-01,5.679931640625000000e-01
-4.000000000000000000e+00,-4.000000000000000000e+00,5.000000000000000000e+00,-4.000000000000000000e+00,0.000000000000000000e+00,4.000000000000000000e+00,1.000000000000000000e+00,-1.000000000000000000e+00,-3.554077148437500000e-01,1.194458007812500000e-01,7.326660156250000000e-01,5.679931640625000000e-01
4.000000000000000000e+00,2.900000000000000000e+01,1.100000000000000000e+01,1.000000000000000000e+00,-3.000000000000000000e+00,-6.000000000000000000e+00,0.000000000000000000e+00,0.000000000000000000e+00,-3.554077148437500000e-01,1.194458007812500000e-01,7.326660156250000000e-01,5.679931640625000000e-01
9.000000000000000000e+00,-1.800000000000000000e+01,2.000000000000000000e+00,0.000000000000000000e+00,0.000000000000000000e+00,-3.000000000000000000e+00,2.000000000000000000e+00,2.000000000000000000e+00,-3.552856445312500000e-01,1.190185546875000000e-01,7.325439453125000000e-01,5.682373046875000000e-01
2.000000000000000000e+00,2.200000000000000000e+01,-3.000000000000000000e+00,-4.000000000000000000e+00,-1.000000000000000000e+00,4.000000000000000000e+00,2.000000000000000000e+00,2.000000000000000000e+00,-3.552856445312500000e-01,1.190185546875000000e-01,7.325439453125000000e-01,5.682373046875000000e-01
-1.200000000000000000e+01,-2.700000000000000000e+01,-2.000000000000000000e+00,-4.000000000000000000e+00,-4.000000000000000000e+00,-3.000000000000000000e+00,-2.000000000000000000e+00,-3.000000000000000000e+00,-3.552856445312500000e-01,1.190185546875000000e-01,7.325439453125000000e-01,5.682373046875000000e-01
2.000000000000000000e+00,1.800000000000000000e+01,-7.000000000000000000e+00,-1.000000000000000000e+00,-4.000000000000000000e+00,1.000000000000000000e+00,-3.000000000000000000e+00,1.000000000000000000e+00,-3.552856445312500000e-01,1.190185546875000000e-01,7.325439453125000000e-01,5.682373046875000000e-01
-9.000000000000000000e+00,-1.800000000000000000e+01,9.000000000000000000e+00,-1.000000000000000000e+00,0.000000000000000000e+00,0.000000000000000000e+00,0.000000000000000000e+00,1.000000000000000000e+00,-3.541870117187500000e-01,1.203002929687500000e-01,7.323608398437500000e-01,5.689086914062500000e-01
2.000000000000000000e+00,-7.000000000000000000e+00,-1.500000000000000000e+01,-1.000000000000000000e+00,0.000000000000000000e+00,-3.000000000000000000e+00,-7.000000000000000000e+00,-8.000000000000000000e+00,-3.541870117187500000e-01,1.203002929687500000e-01,7.323608398437500000e-01,5.689086914062500000e-01
0.000000000000000000e+00,7.000000000000000000e+00,-3.000000000000000000e+00,2.000000000000000000e+00,-1.000000000000000000e+00,-1.000000000000000000e+00,3.000000000000000000e+00,0.000000000000000000e+00,-3.541870117187500000e-01,1.203002929687500000e-01,7.323608398437500000e-01,5.689086914062500000e-01
5.000000000000000000e+00,-1.500000000000000000e+01,1.000000000000000000e+00,3.000000000000000000e+00,-1.000000000000000000e+00,-1.000000000000000000e+00,-3.000000000000000000e+00,-3.000000000000000000e+00,-3.541870117187500000e-01,1.203002929687500000e-01,7.323608398437500000e-01,5.689086914062500000e-01
3.800000000000000000e+01,1.700000000000000000e+01,1.100000000000000000e+01,-5.000000000000000000e+00,-2.000000000000000000e+00,0.000000000000000000e+00,4.000000000000000000e+00,8.000000000000000000e+00,-3.521118164062500000e-01,1.221923828125000000e-01,7.324218750000000000e-01,5.697021484375000000e-01
-6.000000000000000000e+00,-8.000000000000000000e+00,1.200000000000000000e+01,1.000000000000000000e+01,1.000000000000000000e+00,-1.000000000000000000e+00,-3.000000000000000000e+00,-4.000000000000000000e+00,-3.521118164062500000e-01,1.221923828125000000e-01,7.324218750000000000e-01,5.697021484375000000e-01
-2.000000000000000000e+00,-3.000000000000000000e+00,-1.300000000000000000e+01,0.000000000000000000e+00,-2.000000000000000000e+00,1.000000000000000000e+00,1.000000000000000000e+00,5.000000000000000000e+00,-3.521118164062500000e-01,1.221923828125000000e-01,7.324218750000000000e-01,5.697021484375000000e-01
-2.200000000000000000e+01,-2.400000000000000000e+01,1.300000000000000000e+01,4.000000000000000000e+00,1.000000000000000000e+00,0.000000000000000000e+00,-2.000000000000000000e+00,-6.000000000000000000e+00,-3.521118164062500000e-01,1.221923828125000000e-01,7.324218750000000000e-01,5.697021484375000000e-01
-1.900000000000000000e+01,1.000000000000000000e+00,-1.400000000000000000e+01,-1.100000000000000000e+01,-4.000000000000000000e+00,-3.000000000000000000e+00,1.000000000000000000e+00,-4.000000000000000000e+00,-3.505249023437500000e-01,1.228027343750000000e-01,7.332153320312500000e-01,5.695190429687500000e-01
9.000000000000000000e+00,9.000000000000000000e+00,-4.000000000000000000e+00,-6.000000000000000000e+00,-4.000000000000000000e+00,-2.000000000000000000e+00,0.000000000000000000e+00,0.000000000000000000e+00,-3.505249023437500000e-01,1.228027343750000000e-01,7.332153320312500000e-01,5.695190429687500000e-01
1.000000000000000000e+01,5.000000000000000000e+00,1.700000000000000000e+01,6.000000000000000000e+00,-1.000000000000000000e+00,-2.000000000000000000e+00,-3.000000000000000000e+00,0.000000000000000000e+00,-3.505249023437500000e-01,1.228027343750000000e-01,7.332153320312500000e-01,5.695190429687500000e-01
-5.000000000000000000e+00,5.000000000000000000e+00,-1.800000000000000000e+01,-8.000000000000000000e+00,-3.000000000000000000e+00,-2.000000000000000000e+00,2.000000000000000000e+00,4.000000000000000000e+00,-3.505249023437500000e-01,1.228027343750000000e-01,7.332153320312500000e-01,5.695190429687500000e-01
-1.600000000000000000e+01,0.000000000000000000e+00,1.800000000000000000e+01,2.000000000000000000e+01,5.000000000000000000e+00,-1.000000000000000000e+00,-3.000000000000000000e+00,-6.000000000000000000e+00,-3.500366210937500000e-01,1.219482421875000000e-01,7.343750000000000000e-01,5.685424804687500000e-01
2.400000000000000000e+01,1.100000000000000000e+01,-6.000000000000000000e+00,-7.000000000000000000e+00,1.000000000000000000e+00,0.000000000000000000e+00,-2.000000000000000000e+00,1.000000000000000000e+00,-3.500366210937500000e-01,1.219482421875000000e-01,7.343750000000000000e-01,5.685424804687500000e-01
1.500000000000000000e+01,4.000000000000000000e+00,1.000000000000000000e+01,1.000000000000000000e+00,-2.000000000000000000e+00,1.000000000000000000e+00,2.000000000000000000e+00,2.000000000000000000e+00,-3.500366210937500000e-01,1.219482421875000000e-01,7.343750000000000000e-01,5.685424804687500000e-01
-2.100000000000000000e+01,-2.100000000000000000e+01,-2.600000000000000000e+01,-9.000000000000000000e+00,-5.000000000000000000e+00,-1.000000000000000000e+00,0.000000000000000000e+00,-4.000000000000000000e+00,-3.500366210937500000e-01,1.219482421875000000e-01,7.343750000000000000e-01,5.685424804687500000e-01
