-2.200000000000000000e+01,-4.000000000000000000e+00,-7.000000000000000000e+00,-2.000000000000000000e+00,2.000000000000000000e+00,-1.000000000000000000e+00,-1.000000000000000000e+00,1.000000000000000000e+00,3.590087890625000000e-01,1.943359375000000000e-01,-9.047851562500000000e-01,1.212768554687500000e-01
8.000000000000000000e+00,-5.000000000000000000e+00,-3.000000000000000000e+00,-2.000000000000000000e+00,1.000000000000000000e+00,-1.000000000000000000e+00,1.000000000000000000e+00,-3.000000000000000000e+00,3.590087890625000000e-01,1.943359375000000000e-01,-9.047851562500000000e-01,1.212768554687500000e-01
-9.000000000000000000e+00,7.000000000000000000e+00,0.000000000000000000e+00,2.000000000000000000e+00,2.000000000000000000e+00,4.000000000000000000e+00,-1.000000000000000000e+00,0.000000000000000000e+00,3.592529296875000000e-01,1.947021484375000000e-01,-9.046020507812500000e-01,1.213378906250000000e-01
-4.000000000000000000e+00,-1.000000000000000000e+00,3.000000000000000000e+00,4.000000000000000000e+00,-7.000000000000000000e+00,-3.000000000000000000e+00,-2.000000000000000000e+00,0.000000000000000000e+00,3.592529296875000000e-01,1.947021484375000000e-01,-9.046020507812500000e-01,1.213378906250000000e-01
1.400000000000000000e+01,2.000000000000000000e+00,7.000000000000000000e+00,-2.000000000000000000e+00,-2.000000000000000000e+00,2.000000000000000000e+00,1.000000000000000000e+00,0.000000000000000000e+00,3.592529296875000000e-01,1.947021484375000000e-01,-9.046020507812500000e-01,1.213378906250000000e-01
-1.500000000000000000e+01,0.000000000000000000e+00,-1.600000000000000000e+01,3.000000000000000000e+00,1.000000000000000000e+01,-1.000000000000000000e+00,1.000000000000000000e+00,-2.000000000000000000e+00,3.592529296875000000e-01,1.947021484375000000e-01,-9.046020507812500000e-01,1.213378906250000000e-01
8.000000000000000000e+00,-7.000000000000000000e+00,2.000000000000000000e+00,-1.000000000000000000e+00,-2.000000000000000000e+00,-1.000000000000000000e+00,-1.000000000000000000e+00,0.000000000000000000e+00,3.595581054687500000e-01,1.945190429687500000e-01,-9.045410156250000000e-01,1.213989257812500000e-01
-5.000000000000000000e+00,-7.000000000000000000e+00,-5.000000000000000000e+00,3.000000000000000000e+00,2.000000000000000000e+00,0.000000000000000000e+00,2.000000000000000000e+00,0.000000000000000000e+00,3.595581054687500000e-01,1.945190429687500000e-01,-9.045410156250000000e-01,1.213989257812500000e-01
2.000000000000000000e+00,-2.000000000000000000e+00,-9.000000000000000000e+00,-2.000000000000000000e+00,1.000000000000000000e+00,-1.000000000000000000e+00,-3.000000000000000000e+00,-2.000000000000000000e+00,3.599853515625000000e-01,1.943359375000000000e-01,-9.043579101562500000e-01,1.217651367187500000e-01
9.000000000000000000e+00,-2.000000000000000000e+00,1.100000000000000000e+01,-7.000000000000000000e+00,-6.000000000000000000e+00,-5.000000000000000000e+00,-4.000000000000000000e+00,-1.000000000000000000e+00,3.599853515625000000e-01,1.943359375000000000e-01,-9.043579101562500000e-01,1.217651367187500000e-01
-7.000000000000000000e+00,-1.000000000000000000e+00,-9.000000000000000000e+00,1.100000000000000000e+01,7.000000000000000000e+00,5.000000000000000000e+00,1.000000000000000000e+00,2.000000000000000000e+00,3.599853515625000000e-01,1.943359375000000000e-01,-9.043579101562500000e-01,1.217651367187500000e-01
4.000000000000000000e+00,-7.000000000000000000e+00,2.900000000000000000e+01,3.000000000000000000e+00,-4.000000000000000000e+00,-4.000000000000000000e+00,-2.000000000000000000e+00,1.000000000000000000e+00,3.599853515625000000e-01,1.943359375000000000e-01,-9.043579101562500000e-01,1.217651367187500000e-01
1.000000000000000000e+00,-1.000000000000000000e+00,-4.000000000000000000e+00,-4.000000000000000000e+00,5.000000000000000000e+00,3.000000000000000000e+00,2.000000000000000000e+00,0.000000000000000000e+00,3.599853515625000000e-01,1.943359375000000000e-01,-9.043579101562500000e-01,1.217651367187500000e-01
-7.000000000000000000e+00,0.000000000000000000e+00,-1.000000000000000000e+00,0.000000000000000000e+00,-2.000000000000000000e+00,-3.000000000000000000e+00,-3.000000000000000000e+00,-3.000000000000000000e+00,3.599853515625000000e-01,1.943359375000000000e-01,-9.043579101562500000e-01,1.217651367187500000e-01
4.000000000000000000e+00,-4.000000000000000000e+00,4.000000000000000000e+00,-5.000000000000000000e+00,-7.000000000000000000e+00,-3.000000000000000000e+00,0.000000000000000000e+00,1.000000000000000000e+00,3.599853515625000000e-01,1.943359375000000000e-01,-9.043579101562500000e-01,1.217651367187500000e-01
0.000000000000000000e+00,1.000000000000000000e+00,-1.500000000000000000e+01,2.000000000000000000e+00,5.000000000000000000e+00,4.000000000000000000e+00,0.000000000000000000e+00,-1.000000000000000000e+00,3.599853515625000000e-01,1.943359375000000000e-01,-9.043579101562500000e-01,1.217651367187500000e-01
0.000000000000000000e+00,-1.000000000000000000e+00,-3.000000000000000000e+00,-2.000000000000000000e+00,1.000000000000000000e+00,-2.000000000000000000e+00,-1.000000000000000000e+00,-1.000000000000000000e+00,3.599853515625000000e-01,1.945800781250000000e-01,-9.042358398437500000e-01,1.220703125000000000e-01
-6.000000000000000000e+00,4.000000000000000000e+00,6.000000000000000000e+00,5.000000000000000000e+00,0.000000000000000000e+00,1.000000000000000000e+00,0.000000000000000000e+00,-2.000000000000000000e+00,3.599853515625000000e-01,1.945800781250000000e-01,-9.042358398437500000e-01,1.220703125000000000e-01
8.000000000000000000e+00,4.000000000000000000e+00,-7.000000000000000000e+00,-8.000000000000000000e+00,-2.000000000000000000e+00,-1.000000000000000000e+00,0.000000000000000000e+00,1.000000000000000000e+00,3.599853515625000000e-01,1.945800781250000000e-01,-9.042358398437500000e-01,1.220703125000000000e-01
-8.000000000000000000e+00,6.000000000000000000e+00,2.000000000000000000e+00,2.000000000000000000e+00,-3.000000000000000000e+00,-5.000000000000000000e+00,-1.000000000000000000e+01,-3.000000000000000000e+00,3.599853515625000000e-01,1.945800781250000000e-01,-9.042358398437500000e-01,1.220703125000000000e-01
-3.000000000000000000e+00,-1.600000000000000000e+01,5.000000000000000000e+00,0.000000000000000000e+00,-6.000000000000000000e+00,0.000000000000000000e+00,5.000000000000000000e+00,0.000000000000000000e+00,3.599853515625000000e-01,1.946411132812500000e-01,-9.041748046875000000e-01,1.223754882812500000e-01
4.000000000000000000e+00,-1.000000000000000000e+00,-1.500000000000000000e+01,-1.000000000000000000e+00,4.000000000000000000e+00,1.000000000000000000e+00,1.000000000000000000e+00,-1.000000000000000000e+00,3.599853515625000000e-01,1.946411132812500000e-01,-9.041748046875000000e-01,1.223754882812500000e-01
2.000000000000000000e+00,5.000000000000000000e+00,6.000000000000000000e+00,2.000000000000000000e+00,-3.000000000000000000e+00,-4.000000000000000000e+00,0.000000000000000000e+00,-2.000000000000000000e+00,3.599853515625000000e-01,1.946411132812500000e-01,-9.041748046875000000e-01,1.223754882812500000e-01
3.000000000000000000e+00,-3.000000000000000000e+00,-2.300000000000000000e+01,-6.000000000000000000e+00,0.000000000000000000e+00,1.000000000000000000e+00,1.000000000000000000e+00,0.000000000000000000e+00,3.599853515625000000e-01,1.946411132812500000e-01,-9.041748046875000000e-01,1.223754882812500000e-01
-6.000000000000000000e+00,1.100000000000000000e+01,6.000000000000000000e+00,-3.000000000000000000e+00,-6.000000000000000000e+00,-3.000000000000000000e+00,-3.000000000000000000e+00,-3.000000000000000000e+00,3.599853515625000000e-01,1.944580078125000000e-01,-9.041748046875000000e-01,1.228027343750000000e-01
-4.000000000000000000e+00,-1.100000000000000000e+01,5.000000000000000000e+00,1.000000000000000000e+00,5.000000000000000000e+00,1.000000000000000000e+00,1.000000000000000000e+00,2.000000000000000000e+00,3.599853515625000000e-01,1.944580078125000000e-01,-9.041748046875000000e-01,1.228027343750000000e-01
-2.000000000000000000e+00,-9.000000000000000000e+00,-1.200000000000000000e+01,-1.000000000000000000e+00,-1.000000000000000000e+00,-4.000000000000000000e+00,-6.000000000000000000e+00,-4.000000000000000000e+00,3.599853515625000000e-01,1.944580078125000000e-01,-9.041748046875000000e-01,1.228027343750000000e-01
7.000000000000000000e+00,2.000000000000000000e+00,3.000000000000000000e+00,-4.000000000000000000e+00,1.000000000000000000e+00,-2.000000000000000000e+00,-1.000000000000000000e+00,0.000000000000000000e+00,3.599853515625000000e-01,1.944580078125000000e-01,-9.041748046875000000e-01,1.228027343750000000e-01
2.000000000000000000e+00,0.000000000000000000e+00,-1.000000000000000000e+01,3.000000000000000000e+00,-1.000000000000000000e+00,-4.000000000000000000e+00,-3.000000000000000000e+00,0.000000000000000000e+00,3.599243164062500000e-01,1.943359375000000000e-01,-9.041748046875000000e-01,1.231689453125000000e-01
-1.400000000000000000e+01,-3.000000000000000000e+00,-1.000000000000000000e+00,0.000000000000000000e+00,-5.000000000000000000e+00,-2.000000000000000000e+00,0.000000000000000000e+00,-2.000000000000000000e+00,3.599243164062500000e-01,1.943359375000000000e-01,-9.041748046875000000e-01,1.231689453125000000e-01
-3.000000000000000000e+00,-3.000000000000000000e+00,-3.000000000000000000e+00,-1.000000000000000000e+00,-4.000000000000000000e+00,-1.000000000000000000e+00,-3.000000000000000000e+00,-2.000000000000000000e+00,3.599243164062500000e-01,1.943359375000000000e-01,-9.041748046875000000e-01,1.231689453125000000e-01
2.000000000000000000e+00,-3.000000000000000000e+00,-1.000000000000000000e+01,-5.000000000000000000e+00,-1.000000000000000000e+00,-2.000000000000000000e+00,0.000000000000000000e+00,-3.000000000000000000e+00,3.599243164062500000e-01,1.943359375000000000e-01,-9.041748046875000000e-01,1.231689453125000000e-01
3.000000000000000000e+00,3.000000000000000000e+00,1.000000000000000000e+00,2.000000000000000000e+00,0.000000000000000000e+00,-3.000000000000000000e+00,-1.000000000000000000e+00,3.000000000000000000e+00,3.597412109375000000e-01,1.943969726562500000e-01,-9.041748046875000000e-01,1.235961914062500000e-01
0.000000000000000000e+00,3.000000000000000000e+00,5.000000000000000000e+00,-3.000000000000000000e+00,-3.000000000000000000e+00,1.000000000000000000e+00,-3.000000000000000000e+00,-1.000000000000000000e+00,3.597412109375000000e-01,1.943969726562500000e-01,-9.041748046875000000e-01,1.235961914062500000e-01
7.000000000000000000e+00,8.000000000000000000e+00,1.000000000000000000e+00,9.000000000000000000e+00,-2.000000000000000000e+00,-2.000000000000000000e+00,-3.000000000000000000e+00,-1.000000000000000000e+00,3.597412109375000000e-01,1.943969726562500000e-01,-9.041748046875000000e-01,1.235961914062500000e-01
-1.500000000000000000e+01,1.000000000000000000e+00,-2.000000000000000000e+00,-6.000000000000000000e+00,3.000000000000000000e+00,3.000000000000000000e+00,0.000000000000000000e+00,-2.000000000000000000e+00,3.597412109375000000e-01,1.943969726562500000e-01,-9.041748046875000000e-01,1.235961914062500000e-01
-6.000000000000000000e+00,-2.300000000000000000e+01,2.000000000000000000e+00,-3.000000000000000000e+00,-1.000000000000000000e+00,-2.000000000000000000e+00,-3.000000000000000000e+00,-6.000000000000000000e+00,3.596801757812500000e-01,1.942138671875000000e-01,-9.041748046875000000e-01,1.239624023437500000e-01
2.000000000000000000e+00,-1.000000000000000000e+00,-1.000000000000000000e+01,-6.000000000000000000e+00,-3.000000000000000000e+00,-1.000000000000000000e+00,-1.000000000000000000e+00,0.000000000000000000e+00,3.596801757812500000e-01,1.942138671875000000e-01,-9.041748046875000000e-01,1.239624023437500000e-01
-7.000000000000000000e+00,-5.000000000000000000e+00,2.000000000000000000e+00,-5.000000000000000000e+00,0.000000000000000000e+00,2.000000000000000000e+00,-2.000000000000000000e+00,-3.000000000000000000e+00,3.596801757812500000e-01,1.942138671875000000e-01,-9.041748046875000000e-01,1.239624023437500000e-01
1.000000000000000000e+00,1.000000000000000000e+00,-1.000000000000000000e+00,4.000000000000000000e+00,-3.000000000000000000e+00,0.000000000000000000e+00,1.000000000000000000e+00,-2.000000000000000000e+00,3.596801757812500000e-01,1.942138671875000000e-01,-9.041748046875000000e-01,1.239624023437500000e-01
-4.000000000000000000e+00,1.000000000000000000e+01,-4.000000000000000000e+00,-4.000000000000000000e+00,-2.000000000000000000e+00,0.000000000000000000e+00,0.000000000000000000e+00,2.000000000000000000e+00,3.596191406250000000e-01,1.942138671875000000e-01,-9.041748046875000000e-01,1.243896484375000000e-01
9.000000000000000000e+00,7.000000000000000000e+00,7.000000000000000000e+00,0.000000000000000000e+00,-4.000000000000000000e+00,-2.000000000000000000e+00,-1.000000000000000000e+00,2.000000000000000000e+00,3.596191406250000000e-01,1.942138671875000000e-01,-9.041748046875000000e-01,1.243896484375000000e-01
-8.000000000000000000e+00,-3.000000000000000000e+00,-9.000000000000000000e+00,-1.000000000000000000e+01,4.000000000000000000e+00,-2.000000000000000000e+00,-1.000000000000000000e+00,-2.000000000000000000e+00,3.596191406250000000e-01,1.942138671875000000e-01,-9.041748046875000000e-01,1.243896484375000000e-01
-8.000000000000000000e+00,0.000000000000000000e+00,7.000000000000000000e+00,6.000000000000000000e+00,-2.000000000000000000e+00,-2.000000000000000000e+00,1.000000000000000000e+00,0.000000000000000000e+00,3.596191406250000000e-01,1.942138671875000000e-01,-9.041748046875000000e-01,1.243896484375000000e-01
1.000000000000000000e+01,-1.400000000000000000e+01,5.000000000000000000e+00,5.000000000000000000e+00,9.000000000000000000e+00,5.000000000000000000e+00,-1.000000000000000000e+00,-2.000000000000000000e+00,3.591918945312500000e-01,1.944580078125000000e-01,-9.042358398437500000e-01,1.248168945312500000e-01
-6.000000000000000000e+00,-1.200000000000000000e+01,-1.200000000000000000e+01,-3.000000000000000000e+00,-2.000000000000000000e+00,-3.000000000000000000e+00,-1.000000000000000000e+00,-1.000000000000000000e+00,3.591918945312500000e-01,1.944580078125000000e-01,-9.042358398437500000e-01,1.248168945312500000e-01
1.000000000000000000e+00,6.000000000000000000e+00,1.100000000000000000e+01,-5.000000000000000000e+00,-5.000000000000000000e+00,-2.000000000000000000e+00,-4.000000000000000000e+00,0.000000000000000000e+00,3.591918945312500000e-01,1.944580078125000000e-01,-9.042358398437500000e-01,1.248168945312500000e-01
3.000000000000000000e+00,2.000000000000000000e+00,4.000000000000000000e+00,-7.000000000000000000e+00,-6.000000000000000000e+00,-3.000000000000000000e+00,1.000000000000000000e+00,0.000000000000000000e+00,3.591918945312500000e-01,1.944580078125000000e-01,-9.042358398437500000e-01,1.248168945312500000e-01
-8.000000000000000000e+00,9.000000000000000000e+00,-2.000000000000000000e+00,4.000000000000000000e+00,1.000000000000000000e+00,3.000000000000000000e+00,-1.000000000000000000e+00,1.000000000000000000e+00,3.585815429687500000e-01,1.948852539062500000e-01,-9.042968750000000000e-01,1.251831054687500000e-01
7.000000000000000000e+00,-4.000000000000000000e+00,0.000000000000000000e+00,-3.000000000000000000e+00,-2.000000000000000000e+00,-2.000000000000000000e+00,-2.000000000000000000e+00,0.000000000000000000e+00,3.585815429687500000e-01,1.948852539062500000e-01,-9.042968750000000000e-01,1.251831054687500000e-01
-3.000000000000000000e+00,-7.000000000000000000e+00,-5.000000000000000000e+00,-4.000000000000000000e+00,2.000000000000000000e+00,2.000000000000000000e+00,0.000000000000000000e+00,-2.000000000000000000e+00,3.585815429687500000e-01,1.948852539062500000e-01,-9.042968750000000000e-01,1.251831054687500000e-01
0.000000000000000000e+00,-1.000000000000000000e+00,-4.000000000000000000e+00,0.000000000000000000e+00,-5.000000000000000000e+00,-1.000000000000000000e+00,-3.000000000000000000e+00,-3.000000000000000000e+00,3.585815429687500000e-01,1.948852539062500000e-01,-9.042968750000000000e-01,1.251831054687500000e-01
1.000000000000000000e+01,1.100000000000000000e+01,-1.000000000000000000e+00,7.000000000000000000e+00,-3.000000000000000000e+00,-1.000000000000000000e+00,0.000000000000000000e+00,-1.000000000000000000e+00,3.580322265625000000e-01,1.951904296875000000e-01,-9.044189453125000000e-01,1.254882812500000000e-01
-2.900000000000000000e+01,-2.500000000000000000e+01,-8.000000000000000000e+00,-8.000000000000000000e+00,-4.000000000000000000e+00,2.000000000000000000e+00,-2.000000000000000000e+00,-4.000000000000000000e+00,3.580322265625000000e-01,1.951904296875000000e-01,-9.044189453125000000e-01,1.254882812500000000e-01
0.000000000000000000e+00,0.000000000000000000e+00,-7.000000000000000000e+00,0.000000000000000000e+00,6.000000000000000000e+00,2.000000000000000000e+00,-1.000000000000000000e+00,0.000000000000000000e+00,3.580322265625000000e-01,1.951904296875000000e-01,-9.044189453125000000e-01,1.254882812500000000e-01
5.000000000000000000e+00,-4.000000000000000000e+00,3.000000000000000000e+00,-7.000000000000000000e+00,2.000000000000000000e+00,-1.000000000000000000e+00,-2.000000000000000000e+00,1.000000000000000000e+00,3.580322265625000000e-01,1.951904296875000000e-01,-9.044189453125000000e-01,1.254882812500000000e-01
-1.300000000000000000e+01,2.000000000000000000e+00,1.300000000000000000e+01,0.000000000000000000e+00,-2.000000000000000000e+00,-1.000000000000000000e+00,-4.000000000000000000e+00,-2.000000000000000000e+00,3.573608398437500000e-01,1.954345703125000000e-01,-9.046020507812500000e-01,1.258544921875000000e-01
9.000000000000000000e+00,5.000000000000000000e+00,-4.000000000000000000e+00,-2.000000000000000000e+00,-3.000000000000000000e+00,-3.000000000000000000e+00,-4.000000000000000000e+00,-1.000000000000000000e+00,3.573608398437500000e-01,1.954345703125000000e-01,-9.046020507812500000e-01,1.258544921875000000e-01
-8.000000000000000000e+00,-8.000000000000000000e+00,5.000000000000000000e+00,2.000000000000000000e+00,-5.000000000000000000e+00,-3.000000000000000000e+00,2.000000000000000000e+00,1.000000000000000000e+00,3.573608398437500000e-01,1.954345703125000000e-01,-9.046020507812500000e-01,1.258544921875000000e-01
0.000000000000000000e+00,0.000000000000000000e+00,-1.000000000000000000e+00,4.000000000000000000e+00,2.000000000000000000e+00,2.000000000000000000e+00,1.000000000000000000e+00,0.000000000000000000e+00,3.573608398437500000e-01,1.954345703125000000e-01,-9.046020507812500000e-01,1.258544921875000000e-01
6.000000000000000000e+00,1.500000000000000000e+01,9.000000000000000000e+00,-6.000000000000000000e+00,-6.000000000000000000e+00,-4.000000000000000000e+00,0.000000000000000000e+00,-2.000000000000000000e+00,3.565673828125000000e-01,1.961059570312500000e-01,-9.047241210937500000e-01,1.262207031250000000e-01
-5.000000000000000000e+00,-9.000000000000000000e+00,-1.500000000000000000e+01,-3.000000000000000000e+00,-4.000000000000000000e+00,-2.000000000000000000e+00,2.000000000000000000e+00,3.000000000000000000e+00,3.565673828125000000e-01,1.961059570312500000e-01,-9.047241210937500000e-01,1.262207031250000000e-01
-1.000000000000000000e+01,7.000000000000000000e+00,8.000000000000000000e+00,4.000000000000000000e+00,5.000000000000000000e+00,5.000000000000000000e+00,1.000000000000000000e+00,-5.000000000000000000e+00,3.565673828125000000e-01,1.961059570312500000e-01,-9.047241210937500000e-01,1.262207031250000000e-01
5.000000000000000000e+00,0.000000000000000000e+00,3.000000000000000000e+00,1.000000000000000000e+01,9.000000000000000000e+00,1.000000000000000000e+00,-2.000000000000000000e+00,-2.000000000000000000e+00,3.565673828125000000e-01,1.961059570312500000e-01,-9.047241210937500000e-01,1.262207031250000000e-01
-1.300000000000000000e+01,-3.100000000000000000e+01,-1.900000000000000000e+01,-1.000000000000000000e+01,-6.000000000000000000e+00,-2.000000000000000000e+00,-3.000000000000000000e+00,-3.000000000000000000e+00,3.555908203125000000e-01,1.964721679687500000e-01,-9.050292968750000000e-01,1.263427734375000000e-01
5.000000000000000000e+00,1.200000000000000000e+01,1.000000000000000000e+01,0.000000000000000000e+00,0.000000000000000000e+00,0.000000000000000000e+00,-2.000000000000000000e+00,1.000000000000000000e+00,3.555908203125000000e-01,1.964721679687500000e-01,-9.050292968750000000e-01,1.263427734375000000e-01
1.500000000000000000e+01,1.200000000000000000e+01,-1.100000000000000000e+01,-4.000000000000000000e+00,-6.000000000000000000e+00,-2.000000000000000000e+00,0.000000000000000000e+00,1.000000000000000000e+00,3.555908203125000000e-01,1.964721679687500000e-01,-9.050292968750000000e-01,1.263427734375000000e-01
-7.000000000000000000e+00,8.000000000000000000e+00,-3.000000000000000000e+00,6.000000000000000000e+00,-1.100000000000000000e+01,-3.000000000000000000e+00,1.000000000000000000e+00,0.000000000000000000e+00,3.555908203125000000e-01,1.964721679687500000e-01,-9.050292968750000000e-01,1.263427734375000000e-01
1.000000000000000000e+00,-2.000000000000000000e+00,4.000000000000000000e+00,-1.100000000000000000e+01,8.000000000000000000e+00,4.000000000000000000e+00,-1.000000000000000000e+00,-4.000000000000000000e+00,3.545532226562500000e-01,1.969604492187500000e-01,-9.052734375000000000e-01,1.264038085937500000e-01
1.200000000000000000e+01,7.000000000000000000e+00,0.000000000000000000e+00,7.000000000000000000e+00,2.000000000000000000e+00,0.000000000000000000e+00,1.000000000000000000e+00,1.000000000000000000e+00,3.545532226562500000e-01,1.969604492187500000e-01,-9.052734375000000000e-01,1.264038085937500000e-01
-5.000000000000000000e+00,-9.000000000000000000e+00,5.000000000000000000e+00,-1.000000000000000000e+00,2.000000000000000000e+00,-2.000000000000000000e+00,-1.000000000000000000e+00,-1.000000000000000000e+00,3.545532226562500000e-01,1.969604492187500000e-01,-9.052734375000000000e-01,1.264038085937500000e-01
-1.000000000000000000e+00,-7.000000000000000000e+00,-3.000000000000000000e+00,-3.000000000000000000e+00,-3.000000000000000000e+00,1.000000000000000000e+00,0.000000000000000000e+00,-2.000000000000000000e+00,3.545532226562500000e-01,1.969604492187500000e-01,-9.052734375000000000e-01,1.264038085937500000e-01
-4.000000000000000000e+00,-1.000000000000000000e+00,-1.100000000000000000e+01,-1.000000000000000000e+00,-6.000000000000000000e+00,-5.000000000000000000e+00,-4.000000000000000000e+00,-1.000000000000000000e+00,3.536376953125000000e-01,1.973266601562500000e-01,-9.055786132812500000e-01,1.264648437500000000e-01
5.000000000000000000e+00,5.000000000000000000e+00,5.000000000000000000e+00,7.000000000000000000e+00,3.000000000000000000e+00,4.000000000000000000e+00,3.000000000000000000e+00,-2.000000000000000000e+00,3.536376953125000000e-01,1.973266601562500000e-01,-9.055786132812500000e-01,1.264648437500000000e-01
1.000000000000000000e+00,7.000000000000000000e+00,-7.000000000000000000e+00,-4.000000000000000000e+00,-4.000000000000000000e+00,-3.000000000000000000e+00,-3.000000000000000000e+00,0.000000000000000000e+00,3.536376953125000000e-01,1.973266601562500000e-01,-9.055786132812500000e-01,1.264648437500000000e-01
-7.000000000000000000e+00,-1.100000000000000000e+01,-1.500000000000000000e+01,0.000000000000000000e+00,5.000000000000000000e+00,0.000000000000000000e+00,0.000000000000000000e+00,-1.000000000000000000e+00,3.536376953125000000e-01,1.973266601562500000e-01,-9.055786132812500000e-01,1.264648437500000000e-01
3.700000000000000000e+01,1.500000000000000000e+01,2.000000000000000000e+01,7.000000000000000000e+00,1.000000000000000000e+00,0.000000000000000000e+00,3.000000000000000000e+00,4.000000000000000000e+00,3.527221679687500000e-01,1.976928710937500000e-01,-9.058227539062500000e-01,1.265258789062500000e-01
-6.100000000000000000e+01,-1.400000000000000000e+01,-9.000000000000000000e+00,-5.000000000000000000e+00,-2.000000000000000000e+00,-1.000000000000000000e+00,-2.000000000000000000e+00,-4.000000000000000000e+00,3.527221679687500000e-01,1.976928710937500000e-01,-9.058227539062500000e-01,1.265258789062500000e-01
1.000000000000000000e+00,-1.800000000000000000e+01,-1.900000000000000000e+01,-2.000000000000000000e+00,-1.000000000000000000e+00,-3.000000000000000000e+00,-2.000000000000000000e+00,-1.000000000000000000e+00,3.527221679687500000e-01,1.976928710937500000e-01,-9.058227539062500000e-01,1.265258789062500000e-01
1.000000000000000000e+00,0.000000000000000000e+00,6.000000000000000000e+00,-7.000000000000000000e+00,-4.000000000000000000e+00,-3.000000000000000000e+00,-3.000000000000000000e+00,-1.000000000000000000e+00,3.527221679687500000e-01,1.976928710937500000e-01,-9.058227539062500000e-01,1.265258789062500000e-01
1.000000000000000000e+00,3.000000000000000000e+00,-1.500000000000000000e+01,0.000000000000000000e+00,2.000000000000000000e+00,0.000000000000000000e+00,-1.000000000000000000e+00,1.000000000000000000e+00,3.519287109375000000e-01,1.983642578125000000e-01,-9.059448242187500000e-01,1.266479492187500000e-01
1.300000000000000000e+01,8.000000000000000000e+00,6.000000000000000000e+00,4.000000000000000000e+00,3.000000000000000000e+00,1.000000000000000000e+00,2.000000000000000000e+00,-1.000000000000000000e+00,3.519287109375000000e-01,1.983642578125000000e-01,-9.059448242187500000e-01,1.266479492187500000e-01
2.000000000000000000e+00,8.000000000000000000e+00,4.000000000000000000e+00,1.000000000000000000e+00,-2.000000000000000000e+00,1.000000000000000000e+00,1.000000000000000000e+00,2.000000000000000000e+00,3.519287109375000000e-01,1.983642578125000000e-01,-9.059448242187500000e-01,1.266479492187500000e-01
-1.000000000000000000e+01,-1.500000000000000000e+01,2.000000000000000000e+00,-5.000000000000000000e+00,-2.000000000000000000e+00,-5.000000000000000000e+00,-2.000000000000000000e+00,-4.000000000000000000e+00,3.519287109375000000e-01,1.983642578125000000e-01,-9.059448242187500000e-01,1.266479492187500000e-01
-8.000000000000000000e+00,-4.000000000000000000e+00,-1.000000000000000000e+01,-2.000000000000000000e+00,-4.000000000000000000e+00,-1.000000000000000000e+00,-1.000000000000000000e+00,-1.000000000000000000e+00,3.512573242187500000e-01,1.986694335937500000e-01,-9.061889648437500000e-01,1.264648437500000000e-01
9.000000000000000000e+00,7.000000000000000000e+00,5.000000000000000000e+00,-1.000000000000000000e+00,-7.000000000000000000e+00,-2.000000000000000000e+00,-1.000000000000000000e+00,-1.000000000000000000e+00,3.512573242187500000e-01,1.986694335937500000e-01,-9.061889648437500000e-01,1.264648437500000000e-01
-1.200000000000000000e+01,-9.000000000000000000e+00,-3.000000000000000000e+00,6.000000000000000000e+00,8.000000000000000000e+00,0.000000000000000000e+00,0.000000000000000000e+00,-2.000000000000000000e+00,3.512573242187500000e-01,1.986694335937500000e-01,-9.061889648437500000e-01,1.264648437500000000e-01
1.000000000000000000e+01,1.600000000000000000e+01,1.600000000000000000e+01,-8.000000000000000000e+00,-2.000000000000000000e+00,1.000000000000000000e+00,2.000000000000000000e+00,2.000000000000000000e+00,3.512573242187500000e-01,1.986694335937500000e-01,-9.061889648437500000e-01,1.264648437500000000e-01
-3.000000000000000000e+00,-1.200000000000000000e+01,-6.000000000000000000e+00,5.000000000000000000e+00,-3.000000000000000000e+00,1.000000000000000000e+00,1.000000000000000000e+00,1.000000000000000000e+00,3.508300781250000000e-01,1.986083984375000000e-01,-9.063720703125000000e-01,1.265258789062500000e-01
-5.000000000000000000e+00,-6.000000000000000000e+00,-1.300000000000000000e+01,-5.000000000000000000e+00,7.000000000000000000e+00,-2.000000000000000000e+00,-5.000000000000000000e+00,-4.000000000000000000e+00,3.508300781250000000e-01,1.986083984375000000e-01,-9.063720703125000000e-01,1.265258789062500000e-01
7.000000000000000000e+00,6.000000000000000000e+00,1.500000000000000000e+01,0.000000000000000000e+00,-3.000000000000000000e+00,0.000000000000000000e+00,2.000000000000000000e+00,1.000000000000000000e+00,3.508300781250000000e-01,1.986083984375000000e-01,-9.063720703125000000e-01,1.265258789062500000e-01
-1.500000000000000000e+01,2.000000000000000000e+00,-4.000000000000000000e+00,-7.000000000000000000e+00,-6.000000000000000000e+00,-2.000000000000000000e+00,-2.000000000000000000e+00,-2.000000000000000000e+00,3.508300781250000000e-01,1.986083984375000000e-01,-9.063720703125000000e-01,1.265258789062500000e-01
8.000000000000000000e+00,-4.000000000000000000e+00,-1.000000000000000000e+00,-1.000000000000000000e+00,-5.000000000000000000e+00,0.000000000000000000e+00,0.000000000000000000e+00,-1.000000000000000000e+00,3.504028320312500000e-01,1.987915039062500000e-01,-9.064331054687500000e-01,1.267089843750000000e-01
-1.800000000000000000e+01,-4.000000000000000000e+00,-2.000000000000000000e+00,1.000000000000000000e+00,2.000000000000000000e+00,-2.000000000000000000e+00,-1.000000000000000000e+00,-3.000000000000000000e+00,3.504028320312500000e-01,1.987915039062500000e-01,-9.064331054687500000e-01,1.267089843750000000e-01
1.400000000000000000e+01,1.100000000000000000e+01,8.000000000000000000e+00,2.000000000000000000e+00,-2.000000000000000000e+00,0.000000000000000000e+00,-1.000000000000000000e+00,1.000000000000000000e+00,3.504028320312500000e-01,1.987915039062500000e-01,-9.064331054687500000e-01,1.267089843750000000e-01
-1.400000000000000000e+01,-7.000000000000000000e+00,-4.000000000000000000e+00,-7.000000000000000000e+00,0.000000000000000000e+00,0.000000000000000000e+00,0.000000000000000000e+00,-1.000000000000000000e+00,3.504028320312500000e-01,1.987915039062500000e-01,-9.064331054687500000e-01,1.267089843750000000e-01
-3.000000000000000000e+00,1.000000000000000000e+00,-7.000000000000000000e+00,4.000000000000000000e+00,-2.000000000000000000e+00,-2.000000000000000000e+00,-2.000000000000000000e+00,-2.000000000000000000e+00,3.500976562500000000e-01,1.991577148437500000e-01,-9.064941406250000000e-01,1.268310546875000000e-01
1.600000000000000000e+01,4.000000000000000000e+00,0.000000000000000000e+00,0.000000000000000000e+00,0.000000000000000000e+00,-2.000000000000000000e+00,-4.000000000000000000e+00,0.000000000000000000e+00,3.500976562500000000e-01,1.991577148437500000e-01,-9.064941406250000000e-01,1.268310546875000000e-01
-4.000000000000000000e+00,2.000000000000000000e+00,8.000000000000000000e+00,-4.000000000000000000e+00,-3.000000000000000000e+00,-3.000000000000000000e+00,-2.000000000000000000e+00,-3.000000000000000000e+00,3.500976562500000000e-01,1.991577148437500000e-01,-9.064941406250000000e-01,1.268310546875000000e-01
1.000000000000000000e+00,-4.000000000000000000e+00,-4.000000000000000000e+00,1.000000000000000000e+00,-2.000000000000000000e+00,1.000000000000000000e+00,0.000000000000000000e+00,-1.000000000000000000e+00,3.500976562500000000e-01,1.991577148437500000e-01,-9.064941406250000000e-01,1.268310546875000000e-01
-6.000000000000000000e+00,-6.000000000000000000e+00,1.000000000000000000e+01,-6.000000000000000000e+00,-3.000000000000000000e+00,-4.000000000000000000e+00,-1.000000000000000000e+00,-1.000000000000000000e+00,3.500366210937500000e-01,1.990966796875000000e-01,-9.064941406250000000e-01,1.268310546875000000e-01
8.000000000000000000e+00,2.000000000000000000e+00,2.000000000000000000e+00,2.000000000000000000e+00,2.000000000000000000e+00,1.000000000000000000e+00,1.000000000000000000e+00,0.000000000000000000e+00,3.500366210937500000e-01,1.990966796875000000e-01,-9.064941406250000000e-01,1.268310546875000000e-01
-5.000000000000000000e+00,-1.000000000000000000e+01,-1.900000000000000000e+01,-1.100000000000000000e+01,-5.000000000000000000e+00,-3.000000000000000000e+00,-3.000000000000000000e+00,-3.000000000000000000e+00,3.500366210937500000e-01,1.990966796875000000e-01,-9.064941406250000000e-01,1.268310546875000000e-01
1.000000000000000000e+00,1.100000000000000000e+01,2.000000000000000000e+00,3.000000000000000000e+00,2.000000000000000000e+00,0.000000000000000000e+00,-4.000000000000000000e+00,-2.000000000000000000e+00,3.500366210937500000e-01,1.990966796875000000e-01,-9.064941406250000000e-01,1.268310546875000000e-01
0.000000000000000000e+00,9.000000000000000000e+00,-1.400000000000000000e+01,-2.000000000000000000e+00,-2.000000000000000000e+00,-1.000000000000000000e+00,-2.000000000000000000e+00,-1.000000000000000000e+00,3.499755859375000000e-01,1.989746093750000000e-01,-9.065551757812500000e-01,1.271362304687500000e-01
3.000000000000000000e+00,-1.000000000000000000e+01,9.000000000000000000e+00,3.000000000000000000e+00,1.000000000000000000e+00,-3.000000000000000000e+00,-2.000000000000000000e+00,-4.000000000000000000e+00,3.499755859375000000e-01,1.989746093750000000e-01,-9.065551757812500000e-01,1.271362304687500000e-01
0.000000000000000000e+00,-8.000000000000000000e+00,-8.000000000000000000e+00,-1.000000000000000000e+01,-5.000000000000000000e+00,-2.000000000000000000e+00,-2.000000000000000000e+00,-1.000000000000000000e+00,3.499755859375000000e-01,1.989746093750000000e-01,-9.065551757812500000e-01,1.271362304687500000e-01
-1.000000000000000000e+00,-8.000000000000000000e+00,5.000000000000000000e+00,7.000000000000000000e+00,1.000000000000000000e+00,-3.000000000000000000e+00,2.000000000000000000e+00,1.000000000000000000e+00,3.499755859375000000e-01,1.989746093750000000e-01,-9.065551757812500000e-01,1.271362304687500000e-01
-7.000000000000000000e+00,2.000000000000000000e+00,-1.200000000000000000e+01,-2.000000000000000000e+00,0.000000000000000000e+00,0.000000000000000000e+00,-1.000000000000000000e+00,-1.000000000000000000e+00,3.498535156250000000e-01,1.991577148437500000e-01,-9.064941406250000000e-01,1.274414062500000000e-01
7.000000000000000000e+00,4.000000000000000000e+00,-7.000000000000000000e+00,-6.000000000000000000e+00,-4.000000000000000000e+00,-1.000000000000000000e+00,-1.000000000000000000e+00,-1.000000000000000000e+00,3.498535156250000000e-01,1.991577148437500000e-01,-9.064941406250000000e-01,1.274414062500000000e-01
-3.000000000000000000e+00,6.000000000000000000e+00,0.000000000000000000e+00,-4.000000000000000000e+00,-8.000000000000000000e+00,-2.000000000000000000e+00,0.000000000000000000e+00,-2.000000000000000000e+00,3.498535156250000000e-01,1.991577148437500000e-01,-9.064941406250000000e-01,1.274414062500000000e-01
4.000000000000000000e+00,-4.000000000000000000e+00,-4.000000000000000000e+00,1.000000000000000000e+01,1.000000000000000000e+01,1.000000000000000000e+00,-1.000000000000000000e+00,1.000000000000000000e+00,3.498535156250000000e-01,1.991577148437500000e-01,-9.064941406250000000e-01,1.274414062500000000e-01
5.000000000000000000e+00,1.500000000000000000e+01,1.400000000000000000e+01,7.000000000000000000e+00,3.000000000000000000e+00,2.000000000000000000e+00,-1.000000000000000000e+00,-1.000000000000000000e+00,3.496093750000000000e-01,1.994018554687500000e-01,-9.064941406250000000e-01,1.276245117187500000e-01
7.000000000000000000e+00,-1.000000000000000000e+01,-6.000000000000000000e+00,-1.300000000000000000e+01,0.000000000000000000e+00,-3.000000000000000000e+00,-1.000000000000000000e+00,-1.000000000000000000e+00,3.496093750000000000e-01,1.994018554687500000e-01,-9.064941406250000000e-01,1.276245117187500000e-01
-5.000000000000000000e+00,-6.000000000000000000e+00,-7.000000000000000000e+00,-2.000000000000000000e+00,-4.000000000000000000e+00,-1.000000000000000000e+00,-1.000000000000000000e+00,-3.000000000000000000e+00,3.496093750000000000e-01,1.994018554687500000e-01,-9.064941406250000000e-01,1.276245117187500000e-01
4.000000000000000000e+00,7.000000000000000000e+00,2.000000000000000000e+00,-4.000000000000000000e+00,-4.000000000000000000e+00,1.000000000000000000e+00,-1.000000000000000000e+00,0.000000000000000000e+00,3.496093750000000000e-01,1.994018554687500000e-01,-9.064941406250000000e-01,1.276245117187500000e-01
-1.200000000000000000e+01,-1.800000000000000000e+01,-5.000000000000000000e+00,-2.000000000000000000e+00,-6.000000000000000000e+00,-2.000000000000000000e+00,-2.000000000000000000e+00,-2.000000000000000000e+00,3.495483398437500000e-01,1.993408203125000000e-01,-9.065551757812500000e-01,1.275024414062500000e-01
1.200000000000000000e+01,5.000000000000000000e+00,3.000000000000000000e+00,4.000000000000000000e+00,-1.000000000000000000e+00,2.000000000000000000e+00,0.000000000000000000e+00,2.000000000000000000e+00,3.495483398437500000e-01,1.993408203125000000e-01,-9.065551757812500000e-01,1.275024414062500000e-01
-1.800000000000000000e+01,7.000000000000000000e+00,7.000000000000000000e+00,3.000000000000000000e+00,4.000000000000000000e+00,1.000000000000000000e+00,-2.000000000000000000e+00,-2.000000000000000000e+00,3.495483398437500000e-01,1.993408203125000000e-01,-9.065551757812500000e-01,1.275024414062500000e-01
5.000000000000000000e+00,-6.000000000000000000e+00,0.000000000000000000e+00,-1.000000000000000000e+00,-2.000000000000000000e+00,0.000000000000000000e+00,-1.000000000000000000e+00,1.000000000000000000e+00,3.495483398437500000e-01,1.993408203125000000e-01,-9.065551757812500000e-01,1.275024414062500000e-01
3.000000000000000000e+00,5.000000000000000000e+00,-4.000000000000000000e+00,-2.000000000000000000e+00,-2.000000000000000000e+00,-4.000000000000000000e+00,-1.000000000000000000e+00,-3.000000000000000000e+00,3.495483398437500000e-01,1.993408203125000000e-01,-9.065551757812500000e-01,1.275024414062500000e-01
-1.300000000000000000e+01,-1.000000000000000000e+01,3.000000000000000000e+00,-5.000000000000000000e+00,-7.000000000000000000e+00,-3.000000000000000000e+00,0.000000000000000000e+00,0.000000000000000000e+00,3.495483398437500000e-01,1.993408203125000000e-01,-9.065551757812500000e-01,1.275024414062500000e-01
1.200000000000000000e+01,3.000000000000000000e+00,4.000000000000000000e+00,6.000000000000000000e+00,2.000000000000000000e+00,0.000000000000000000e+00,0.000000000000000000e+00,1.000000000000000000e+00,3.495483398437500000e-01,1.993408203125000000e-01,-9.065551757812500000e-01,1.275024414062500000e-01
-1.900000000000000000e+01,-9.000000000000000000e+00,-1.000000000000000000e+01,-6.000000000000000000e+00,1.000000000000000000e+00,0.000000000000000000e+00,-2.000000000000000000e+00,-2.000000000000000000e+00,3.495483398437500000e-01,1.993408203125000000e-01,-9.065551757812500000e-01,1.275024414062500000e-01
-1.000000000000000000e+01,-6.000000000000000000e+00,7.000000000000000000e+00,2.000000000000000000e+00,1.000000000000000000e+00,-1.000000000000000000e+00,-2.000000000000000000e+00,0.000000000000000000e+00,3.494262695312500000e-01,1.992187500000000000e-01,-9.065551757812500000e-01,1.278076171875000000e-01
-1.000000000000000000e+00,5.000000000000000000e+00,2.400000000000000000e+01,1.000000000000000000e+00,1.000000000000000000e+00,-2.000000000000000000e+00,-1.000000000000000000e+00,-1.000000000000000000e+00,3.494262695312500000e-01,1.992187500000000000e-01,-9.065551757812500000e-01,1.278076171875000000e-01
1.500000000000000000e+01,1.000000000000000000e+00,-1.200000000000000000e+01,1.000000000000000000e+00,3.000000000000000000e+00,-1.000000000000000000e+00,-1.000000000000000000e+00,0.000000000000000000e+00,3.494262695312500000e-01,1.992187500000000000e-01,-9.065551757812500000e-01,1.278076171875000000e-01
-1.200000000000000000e+01,-2.000000000000000000e+00,5.000000000000000000e+00,-6.000000000000000000e+00,-7.000000000000000000e+00,0.000000000000000000e+00,-3.000000000000000000e+00,-3.000000000000000000e+00,3.494262695312500000e-01,1.992187500000000000e-01,-9.065551757812500000e-01,1.278076171875000000e-01
-1.100000000000000000e+01,2.000000000000000000e+00,-3.000000000000000000e+00,-7.000000000000000000e+00,0.000000000000000000e+00,-2.000000000000000000e+00,0.000000000000000000e+00,-3.000000000000000000e+00,3.492431640625000000e-01,1.992797851562500000e-01,-9.066162109375000000e-01,1.281738281250000000e-01
-1.000000000000000000e+00,6.000000000000000000e+00,6.000000000000000000e+00,1.100000000000000000e+01,-1.000000000000000000e+00,3.000000000000000000e+00,2.000000000000000000e+00,1.000000000000000000e+00,3.492431640625000000e-01,1.992797851562500000e-01,-9.066162109375000000e-01,1.281738281250000000e-01
5.000000000000000000e+00,-1.200000000000000000e+01,-1.000000000000000000e+00,6.000000000000000000e+00,3.000000000000000000e+00,-4.000000000000000000e+00,-2.000000000000000000e+00,1.000000000000000000e+00,3.492431640625000000e-01,1.992797851562500000e-01,-9.066162109375000000e-01,1.281738281250000000e-01
1.300000000000000000e+01,1.100000000000000000e+01,3.000000000000000000e+00,7.000000000000000000e+00,0.000000000000000000e+00,-2.000000000000000000e+00,-3.000000000000000000e+00,-2.000000000000000000e+00,3.492431640625000000e-01,1.992797851562500000e-01,-9.066162109375000000e-01,1.281738281250000000e-01
-9.000000000000000000e+00,-1.700000000000000000e+01,2.000000000000000000e+00,-1.300000000000000000e+01,-1.000000000000000000e+00,1.000000000000000000e+00,-1.000000000000000000e+00,-3.000000000000000000e+00,3.489990234375000000e-01,1.993408203125000000e-01,-9.066162109375000000e-01,1.286010742187500000e-01
-5.000000000000000000e+00,1.000000000000000000e+00,-1.500000000000000000e+01,-2.000000000000000000e+00,-4.000000000000000000e+00,-2.000000000000000000e+00,-2.000000000000000000e+00,-2.000000000000000000e+00,3.489990234375000000e-01,1.993408203125000000e-01,-9.066162109375000000e-01,1.286010742187500000e-01
-2.000000000000000000e+00,-3.000000000000000000e+00,0.000000000000000000e+00,0.000000000000000000e+00,-5.000000000000000000e+00,-3.000000000000000000e+00,-3.000000000000000000e+00,0.000000000000000000e+00,3.489990234375000000e-01,1.993408203125000000e-01,-9.066162109375000000e-01,1.286010742187500000e-01
1.000000000000000000e+00,-1.000000000000000000e+00,-6.000000000000000000e+00,0.000000000000000000e+00,3.000000000000000000e+00,4.000000000000000000e+00,1.000000000000000000e+00,1.000000000000000000e+00,3.489990234375000000e-01,1.993408203125000000e-01,-9.066162109375000000e-01,1.286010742187500000e-01
1.000000000000000000e+00,6.000000000000000000e+00,-9.000000000000000000e+00,-4.000000000000000000e+00,-1.000000000000000000e+00,-4.000000000000000000e+00,-3.000000000000000000e+00,-3.000000000000000000e+00,3.488769531250000000e-01,1.992187500000000000e-01,-9.066162109375000000e-01,1.288452148437500000e-01
6.000000000000000000e+00,-2.000000000000000000e+00,-6.000000000000000000e+00,-1.000000000000000000e+00,-2.000000000000000000e+00,0.000000000000000000e+00,0.000000000000000000e+00,-1.000000000000000000e+00,3.488769531250000000e-01,1.992187500000000000e-01,-9.066162109375000000e-01,1.288452148437500000e-01
3.000000000000000000e+00,-1.000000000000000000e+00,1.000000000000000000e+00,-1.000000000000000000e+00,-3.000000000000000000e+00,0.000000000000000000e+00,2.000000000000000000e+00,-1.000000000000000000e+00,3.488769531250000000e-01,1.992187500000000000e-01,-9.066162109375000000e-01,1.288452148437500000e-01
-3.000000000000000000e+00,-1.300000000000000000e+01,-1.200000000000000000e+01,1.000000000000000000e+00,-5.000000000000000000e+00,-5.000000000000000000e+00,-1.000000000000000000e+00,-1.000000000000000000e+00,3.488769531250000000e-01,1.992187500000000000e-01,-9.066162109375000000e-01,1.288452148437500000e-01
2.000000000000000000e+00,2.000000000000000000e+00,1.800000000000000000e+01,-1.000000000000000000e+00,2.000000000000000000e+00,1.000000000000000000e+00,0.000000000000000000e+00,-1.000000000000000000e+00,3.488769531250000000e-01,1.987304687500000000e-01,-9.067382812500000000e-01,1.289062500000000000e-01
-8.000000000000000000e+00,0.000000000000000000e+00,-2.200000000000000000e+01,-7.000000000000000000e+00,0.000000000000000000e+00,-2.000000000000000000e+00,-3.000000000000000000e+00,-4.000000000000000000e+00,3.488769531250000000e-01,1.987304687500000000e-01,-9.067382812500000000e-01,1.289062500000000000e-01
-2.000000000000000000e+00,1.000000000000000000e+00,1.100000000000000000e+01,0.000000000000000000e+00,1.000000000000000000e+00,2.000000000000000000e+00,0.000000000000000000e+00,-1.000000000000000000e+00,3.488769531250000000e-01,1.987304687500000000e-01,-9.067382812500000000e-01,1.289062500000000000e-01
7.000000000000000000e+00,4.000000000000000000e+00,0.000000000000000000e+00,1.000000000000000000e+00,0.000000000000000000e+00,-1.000000000000000000e+00,-1.000000000000000000e+00,0.000000000000000000e+00,3.488769531250000000e-01,1.987304687500000000e-01,-9.067382812500000000e-01,1.289062500000000000e-01
3.000000000000000000e+00,4.000000000000000000e+00,-5.000000000000000000e+00,-3.000000000000000000e+00,-4.000000000000000000e+00,-2.000000000000000000e+00,0.000000000000000000e+00,1.000000000000000000e+00,3.488769531250000000e-01,1.982421875000000000e-01,-9.067993164062500000e-01,1.290893554687500000e-01
6.000000000000000000e+00,1.000000000000000000e+00,4.000000000000000000e+00,4.000000000000000000e+00,1.000000000000000000e+00,0.000000000000000000e+00,-1.000000000000000000e+00,0.000000000000000000e+00,3.488769531250000000e-01,1.982421875000000000e-01,-9.067993164062500000e-01,1.290893554687500000e-01
-2.000000000000000000e+01,-2.000000000000000000e+00,-3.000000000000000000e+00,0.000000000000000000e+00,0.000000000000000000e+00,1.000000000000000000e+00,6.000000000000000000e+00,-1.000000000000000000e+00,3.488769531250000000e-01,1.982421875000000000e-01,-9.067993164062500000e-01,1.290893554687500000e-01
-1.000000000000000000e+01,0.000000000000000000e+00,-4.000000000000000000e+00,1.000000000000000000e+00,0.000000000000000000e+00,0.000000000000000000e+00,0.000000000000000000e+00,-2.000000000000000000e+00,3.488769531250000000e-01,1.982421875000000000e-01,-9.067993164062500000e-01,1.290893554687500000e-01
1.000000000000000000e+00,2.000000000000000000e+00,5.000000000000000000e+00,2.000000000000000000e+00,-3.000000000000000000e+00,0.000000000000000000e+00,-1.000000000000000000e+00,2.000000000000000000e+00,3.488159179687500000e-01,1.982421875000000000e-01,-9.067993164062500000e-01,1.293334960937500000e-01
6.000000000000000000e+00,4.000000000000000000e+00,1.000000000000000000e+01,-2.000000000000000000e+00,3.000000000000000000e+00,-2.000000000000000000e+00,-3.000000000000000000e+00,-1.000000000000000000e+00,3.488159179687500000e-01,1.982421875000000000e-01,-9.067993164062500000e-01,1.293334960937500000e-01
-8.000000000000000000e+00,-6.000000000000000000e+00,2.000000000000000000e+00,4.000000000000000000e+00,1.000000000000000000e+00,1.000000000000000000e+00,-2.000000000000000000e+00,-2.000000000000000000e+00,3.488159179687500000e-01,1.982421875000000000e-01,-9.067993164062500000e-01,1.293334960937500000e-01
1.000000000000000000e+00,-9.000000000000000000e+00,-2.000000000000000000e+01,-2.000000000000000000e+00,-3.000000000000000000e+00,-5.000000000000000000e+00,-3.000000000000000000e+00,-1.000000000000000000e+00,3.488159179687500000e-01,1.982421875000000000e-01,-9.067993164062500000e-01,1.293334960937500000e-01
1.000000000000000000e+01,-1.000000000000000000e+00,9.000000000000000000e+00,-2.000000000000000000e+00,-1.000000000000000000e+00,-1.000000000000000000e+00,4.000000000000000000e+00,2.000000000000000000e+00,3.486938476562500000e-01,1.986694335937500000e-01,-9.067382812500000000e-01,1.295776367187500000e-01
-7.000000000000000000e+00,2.000000000000000000e+00,-3.300000000000000000e+01,1.000000000000000000e+00,0.000000000000000000e+00,-2.000000000000000000e+00,0.000000000000000000e+00,0.000000000000000000e+00,3.486938476562500000e-01,1.986694335937500000e-01,-9.067382812500000000e-01,1.295776367187500000e-01
-5.000000000000000000e+00,0.000000000000000000e+00,4.000000000000000000e+00,-4.000000000000000000e+00,-4.000000000000000000e+00,-2.000000000000000000e+00,-5.000000000000000000e+00,-3.000000000000000000e+00,3.486938476562500000e-01,1.986694335937500000e-01,-9.067382812500000000e-01,1.295776367187500000e-01
1.100000000000000000e+01,1.100000000000000000e+01,3.000000000000000000e+00,6.000000000000000000e+00,2.000000000000000000e+00,0.000000000000000000e+00,0.000000000000000000e+00,-2.000000000000000000e+00,3.486938476562500000e-01,1.986694335937500000e-01,-9.067382812500000000e-01,1.295776367187500000e-01
-1.900000000000000000e+01,-1.600000000000000000e+01,-5.000000000000000000e+00,3.000000000000000000e+00,-1.000000000000000000e+00,-3.000000000000000000e+00,-3.000000000000000000e+00,-2.000000000000000000e+00,3.486328125000000000e-01,1.990966796875000000e-01,-9.066772460937500000e-01,1.293945312500000000e-01
-2.000000000000000000e+00,-1.000000000000000000e+00,-2.000000000000000000e+00,-1.300000000000000000e+01,-1.000000000000000000e+00,-1.000000000000000000e+00,0.000000000000000000e+00,-3.000000000000000000e+00,3.486328125000000000e-01,1.990966796875000000e-01,-9.066772460937500000e-01,1.293945312500000000e-01
5.000000000000000000e+00,-2.000000000000000000e+00,4.000000000000000000e+00,-5.000000000000000000e+00,2.000000000000000000e+00,-1.000000000000000000e+00,-1.000000000000000000e+00,-1.000000000000000000e+00,3.486328125000000000e-01,1.990966796875000000e-01,-9.066772460937500000e-01,1.293945312500000000e-01
2.000000000000000000e+00,5.000000000000000000e+00,-6.000000000000000000e+00,-4.000000000000000000e+00,-4.000000000000000000e+00,0.000000000000000000e+00,-3.000000000000000000e+00,-2.000000000000000000e+00,3.486328125000000000e-01,1.990966796875000000e-01,-9.066772460937500000e-01,1.293945312500000000e-01
0.000000000000000000e+00,-2.000000000000000000e+00,-1.000000000000000000e+00,4.000000000000000000e+00,1.000000000000000000e+00,-1.000000000000000000e+00,-2.000000000000000000e+00,-1.000000000000000000e+00,3.486938476562500000e-01,1.993408203125000000e-01,-9.066772460937500000e-01,1.291503906250000000e-01
1.000000000000000000e+00,-3.000000000000000000e+00,1.100000000000000000e+01,4.000000000000000000e+00,-1.000000000000000000e+00,2.000000000000000000e+00,3.000000000000000000e+00,1.000000000000000000e+00,3.486938476562500000e-01,1.993408203125000000e-01,-9.066772460937500000e-01,1.291503906250000000e-01
0.000000000000000000e+00,-3.000000000000000000e+00,-4.000000000000000000e+00,-1.000000000000000000e+00,1.000000000000000000e+00,1.000000000000000000e+00,-1.000000000000000000e+00,-2.000000000000000000e+00,3.486938476562500000e-01,1.993408203125000000e-01,-9.066772460937500000e-01,1.291503906250000000e-01
-1.000000000000000000e+00,-4.000000000000000000e+00,8.000000000000000000e+00,-4.000000000000000000e+00,-3.000000000000000000e+00,-2.000000000000000000e+00,-1.000000000000000000e+00,0.000000000000000000e+00,3.486938476562500000e-01,1.993408203125000000e-01,-9.066772460937500000e-01,1.291503906250000000e-01
-5.000000000000000000e+00,8.000000000000000000e+00,1.000000000000000000e+00,-3.000000000000000000e+00,-1.000000000000000000e+00,-2.000000000000000000e+00,-1.000000000000000000e+00,0.000000000000000000e+00,3.486938476562500000e-01,1.996459960937500000e-01,-9.065551757812500000e-01,1.290893554687500000e-01
-3.000000000000000000e+00,-8.000000000000000000e+00,-1.000000000000000000e+01,3.000000000000000000e+00,-3.000000000000000000e+00,-1.000000000000000000e+00,0.000000000000000000e+00,-1.000000000000000000e+00,3.486938476562500000e-01,1.996459960937500000e-01,-9.065551757812500000e-01,1.290893554687500000e-01
0.000000000000000000e+00,-1.000000000000000000e+00,1.500000000000000000e+01,-3.000000000000000000e+00,1.000000000000000000e+00,-1.000000000000000000e+00,0.000000000000000000e+00,-3.000000000000000000e+00,3.486938476562500000e-01,1.996459960937500000e-01,-9.065551757812500000e-01,1.290893554687500000e-01
1.000000000000000000e+00,-4.000000000000000000e+00,-2.000000000000000000e+01,-5.000000000000000000e+00,2.000000000000000000e+00,0.000000000000000000e+00,-3.000000000000000000e+00,-3.000000000000000000e+00,3.486938476562500000e-01,1.996459960937500000e-01,-9.065551757812500000e-01,1.290893554687500000e-01
1.100000000000000000e+01,4.000000000000000000e+00,-4.000000000000000000e+00,-1.000000000000000000e+00,-2.000000000000000000e+00,-1.000000000000000000e+00,1.000000000000000000e+00,1.000000000000000000e+00,3.485717773437500000e-01,2.003173828125000000e-01,-9.064941406250000000e-01,1.290283203125000000e-01
-3.100000000000000000e+01,0.000000000000000000e+00,0.000000000000000000e+00,-3.000000000000000000e+00,-5.000000000000000000e+00,-2.000000000000000000e+00,-2.000000000000000000e+00,-2.000000000000000000e+00,3.485717773437500000e-01,2.003173828125000000e-01,-9.064941406250000000e-01,1.290283203125000000e-01
7.000000000000000000e+00,-2.000000000000000000e+00,-1.000000000000000000e+00,8.000000000000000000e+00,0.000000000000000000e+00,1.000000000000000000e+00,1.000000000000000000e+00,1.000000000000000000e+00,3.485717773437500000e-01,2.003173828125000000e-01,-9.064941406250000000e-01,1.290283203125000000e-01
-7.000000000000000000e+00,0.000000000000000000e+00,5.000000000000000000e+00,-3.000000000000000000e+00,-1.000000000000000000e+00,-1.000000000000000000e+00,-1.000000000000000000e+00,1.000000000000000000e+00,3.485717773437500000e-01,2.003173828125000000e-01,-9.064941406250000000e-01,1.290283203125000000e-01
-6.000000000000000000e+00,-7.000000000000000000e+00,-1.400000000000000000e+01,-1.300000000000000000e+01,-1.500000000000000000e+01,-5.000000000000000000e+00,-3.000000000000000000e+00,-5.000000000000000000e+00,3.486328125000000000e-01,2.008056640625000000e-01,-9.063720703125000000e-01,1.289672851562500000e-01
6.000000000000000000e+00,-4.000000000000000000e+00,1.000000000000000000e+00,1.600000000000000000e+01,1.800000000000000000e+01,2.000000000000000000e+00,1.000000000000000000e+00,3.000000000000000000e+00,3.486328125000000000e-01,2.008056640625000000e-01,-9.063720703125000000e-01,1.289672851562500000e-01
-1.000000000000000000e+00,3.000000000000000000e+00,-4.000000000000000000e+00,-4.000000000000000000e+00,-9.000000000000000000e+00,-5.000000000000000000e+00,-3.000000000000000000e+00,-1.000000000000000000e+00,3.486328125000000000e-01,2.008056640625000000e-01,-9.063720703125000000e-01,1.289672851562500000e-01
2.000000000000000000e+00,-4.000000000000000000e+00,1.000000000000000000e+01,-1.200000000000000000e+01,1.000000000000000000e+00,-1.000000000000000000e+00,-1.000000000000000000e+00,-1.000000000000000000e+00,3.486328125000000000e-01,2.008056640625000000e-01,-9.063720703125000000e-01,1.289672851562500000e-01
-2.000000000000000000e+00,6.000000000000000000e+00,0.000000000000000000e+00,8.000000000000000000e+00,0.000000000000000000e+00,-1.000000000000000000e+00,0.000000000000000000e+00,1.000000000000000000e+00,3.487548828125000000e-01,2.014160156250000000e-01,-9.061889648437500000e-01,1.289672851562500000e-01
4.000000000000000000e+00,4.000000000000000000e+00,1.000000000000000000e+01,-2.000000000000000000e+00,-5.000000000000000000e+00,0.000000000000000000e+00,-1.000000000000000000e+00,-1.000000000000000000e+00,3.487548828125000000e-01,2.014160156250000000e-01,-9.061889648437500000e-01,1.289672851562500000e-01
-3.000000000000000000e+00,-8.000000000000000000e+00,-1.500000000000000000e+01,-6.000000000000000000e+00,4.000000000000000000e+00,1.000000000000000000e+00,-2.000000000000000000e+00,-1.000000000000000000e+00,3.487548828125000000e-01,2.014160156250000000e-01,-9.061889648437500000e-01,1.289672851562500000e-01
-1.000000000000000000e+00,1.000000000000000000e+00,3.000000000000000000e+00,1.100000000000000000e+01,2.000000000000000000e+00,-3.000000000000000000e+00,-1.000000000000000000e+00,-1.000000000000000000e+00,3.487548828125000000e-01,2.014160156250000000e-01,-9.061889648437500000e-01,1.289672851562500000e-01
0.000000000000000000e+00,5.000000000000000000e+00,-5.000000000000000000e+00,-1.700000000000000000e+01,-3.000000000000000000e+00,-1.000000000000000000e+00,-2.000000000000000000e+00,-2.000000000000000000e+00,3.490600585937500000e-01,2.019042968750000000e-01,-9.059448242187500000e-01,1.290893554687500000e-01
1.000000000000000000e+00,-1.600000000000000000e+01,-1.000000000000000000e+00,-4.000000000000000000e+00,-4.000000000000000000e+00,-2.000000000000000000e+00,-2.000000000000000000e+00,0.000000000000000000e+00,3.490600585937500000e-01,2.019042968750000000e-01,-9.059448242187500000e-01,1.290893554687500000e-01
-2.000000000000000000e+00,8.000000000000000000e+00,6.000000000000000000e+00,5.000000000000000000e+00,3.000000000000000000e+00,-1.000000000000000000e+00,2.000000000000000000e+00,0.000000000000000000e+00,3.490600585937500000e-01,2.019042968750000000e-01,-9.059448242187500000e-01,1.290893554687500000e-01
2.000000000000000000e+00,-6.000000000000000000e+00,-6.000000000000000000e+00,-5.000000000000000000e+00,-8.000000000000000000e+00,-2.000000000000000000e+00,-1.000000000000000000e+00,0.000000000000000000e+00,3.490600585937500000e-01,2.019042968750000000e-01,-9.059448242187500000e-01,1.290893554687500000e-01
3.000000000000000000e+00,-9.000000000000000000e+00,8.000000000000000000e+00,8.000000000000000000e+00,2.000000000000000000e+00,0.000000000000000000e+00,-3.000000000000000000e+00,-3.000000000000000000e+00,3.493041992187500000e-01,2.023315429687500000e-01,-9.057617187500000000e-01,1.291503906250000000e-01
7.000000000000000000e+00,7.000000000000000000e+00,-9.000000000000000000e+00,-8.000000000000000000e+00,-3.000000000000000000e+00,-2.000000000000000000e+00,-4.000000000000000000e+00,-3.000000000000000000e+00,3.493041992187500000e-01,2.023315429687500000e-01,-9.057617187500000000e-01,1.291503906250000000e-01
5.000000000000000000e+00,-8.000000000000000000e+00,-6.000000000000000000e+00,-4.000000000000000000e+00,-6.000000000000000000e+00,0.000000000000000000e+00,-3.000000000000000000e+00,1.000000000000000000e+00,3.493041992187500000e-01,2.023315429687500000e-01,-9.057617187500000000e-01,1.291503906250000000e-01
2.000000000000000000e+00,1.000000000000000000e+01,1.500000000000000000e+01,4.000000000000000000e+00,-1.000000000000000000e+00,0.000000000000000000e+00,0.000000000000000000e+00,-1.000000000000000000e+00,3.493041992187500000e-01,2.023315429687500000e-01,-9.057617187500000000e-01,1.291503906250000000e-01
-9.000000000000000000e+00,5.000000000000000000e+00,-2.000000000000000000e+00,0.000000000000000000e+00,2.000000000000000000e+00,0.000000000000000000e+00,-2.000000000000000000e+00,0.000000000000000000e+00,3.496093750000000000e-01,2.025756835937500000e-01,-9.055786132812500000e-01,1.292724609375000000e-01
0.000000000000000000e+00,-1.600000000000000000e+01,8.000000000000000000e+00,3.000000000000000000e+00,1.000000000000000000e+00,2.000000000000000000e+00,3.000000000000000000e+00,-2.000000000000000000e+00,3.496093750000000000e-01,2.025756835937500000e-01,-9.055786132812500000e-01,1.292724609375000000e-01
-1.000000000000000000e+00,-1.000000000000000000e+00,-1.000000000000000000e+01,-1.100000000000000000e+01,1.000000000000000000e+00,-1.000000000000000000e+00,-5.000000000000000000e+00,-2.000000000000000000e+00,3.496093750000000000e-01,2.025756835937500000e-01,-9.055786132812500000e-01,1.292724609375000000e-01
0.000000000000000000e+00,-2.000000000000000000e+00,1.000000000000000000e+00,-2.000000000000000000e+00,1.000000000000000000e+00,-2.000000000000000000e+00,0.000000000000000000e+00,0.000000000000000000e+00,3.496093750000000000e-01,2.025756835937500000e-01,-9.055786132812500000e-01,1.292724609375000000e-01
1.700000000000000000e+01,1.000000000000000000e+00,-5.000000000000000000e+00,7.000000000000000000e+00,0.000000000000000000e+00,-4.000000000000000000e+00,-5.000000000000000000e+00,-1.000000000000000000e+00,3.497924804687500000e-01,2.026977539062500000e-01,-9.053955078125000000e-01,1.295166015625000000e-01
-1.400000000000000000e+01,6.000000000000000000e+00,3.000000000000000000e+00,-2.000000000000000000e+00,-1.000000000000000000e+00,0.000000000000000000e+00,-3.000000000000000000e+00,-2.000000000000000000e+00,3.497924804687500000e-01,2.026977539062500000e-01,-9.053955078125000000e-01,1.295166015625000000e-01
-2.000000000000000000e+00,6.000000000000000000e+00,2.000000000000000000e+00,7.000000000000000000e+00,0.000000000000000000e+00,-2.000000000000000000e+00,0.000000000000000000e+00,-2.000000000000000000e+00,3.497924804687500000e-01,2.026977539062500000e-01,-9.053955078125000000e-01,1.295166015625000000e-01
0.000000000000000000e+00,-6.000000000000000000e+00,-9.000000000000000000e+00,-7.000000000000000000e+00,1.000000000000000000e+00,1.000000000000000000e+00,-2.000000000000000000e+00,-2.000000000000000000e+00,3.497924804687500000e-01,2.026977539062500000e-01,-9.053955078125000000e-01,1.295166015625000000e-01
-1.700000000000000000e+01,-7.000000000000000000e+00,0.000000000000000000e+00,6.000000000000000000e+00,-1.000000000000000000e+00,-2.000000000000000000e+00,1.000000000000000000e+00,-1.000000000000000000e+00,3.499755859375000000e-01,2.030029296875000000e-01,-9.052124023437500000e-01,1.298828125000000000e-01
6.000000000000000000e+00,8.000000000000000000e+00,0.000000000000000000e+00,-3.000000000000000000e+00,-7.000000000000000000e+00,-5.000000000000000000e+00,-2.000000000000000000e+00,0.000000000000000000e+00,3.499755859375000000e-01,2.030029296875000000e-01,-9.052124023437500000e-01,1.298828125000000000e-01
-1.000000000000000000e+01,-1.400000000000000000e+01,6.000000000000000000e+00,2.000000000000000000e+00,6.000000000000000000e+00,4.000000000000000000e+00,1.000000000000000000e+00,2.000000000000000000e+00,3.499755859375000000e-01,2.030029296875000000e-01,-9.052124023437500000e-01,1.298828125000000000e-01
2.000000000000000000e+00,8.000000000000000000e+00,-3.000000000000000000e+00,-1.000000000000000000e+00,-1.000000000000000000e+00,3.000000000000000000e+00,-1.000000000000000000e+00,-1.000000000000000000e+00,3.499755859375000000e-01,2.030029296875000000e-01,-9.052124023437500000e-01,1.298828125000000000e-01
1.700000000000000000e+01,4.000000000000000000e+00,-4.000000000000000000e+00,-6.000000000000000000e+00,-1.000000000000000000e+00,2.000000000000000000e+00,0.000000000000000000e+00,0.000000000000000000e+00,3.497924804687500000e-01,2.031250000000000000e-01,-9.052124023437500000e-01,1.301269531250000000e-01
2.000000000000000000e+00,0.000000000000000000e+00,-6.000000000000000000e+00,-5.000000000000000000e+00,-3.000000000000000000e+00,-2.000000000000000000e+00,-1.000000000000000000e+00,-4.000000000000000000e+00,3.497924804687500000e-01,2.031250000000000000e-01,-9.052124023437500000e-01,1.301269531250000000e-01
-5.000000000000000000e+00,-1.000000000000000000e+01,4.000000000000000000e+00,-3.000000000000000000e+00,-8.000000000000000000e+00,-3.000000000000000000e+00,-2.000000000000000000e+00,-1.000000000000000000e+00,3.497924804687500000e-01,2.031250000000000000e-01,-9.052124023437500000e-01,1.301269531250000000e-01
1.000000000000000000e+00,1.000000000000000000e+00,5.000000000000000000e+00,0.000000000000000000e+00,-3.000000000000000000e+00,-3.000000000000000000e+00,0.000000000000000000e+00,0.000000000000000000e+00,3.497924804687500000e-01,2.031250000000000000e-01,-9.052124023437500000e-01,1.301269531250000000e-01
-6.000000000000000000e+00,-2.000000000000000000e+00,7.000000000000000000e+00,2.000000000000000000e+00,3.000000000000000000e+00,-1.000000000000000000e+00,-1.000000000000000000e+00,-1.000000000000000000e+00,3.495483398437500000e-01,2.029418945312500000e-01,-9.053344726562500000e-01,1.302490234375000000e-01
1.200000000000000000e+01,1.100000000000000000e+01,-1.600000000000000000e+01,-6.000000000000000000e+00,0.000000000000000000e+00,0.000000000000000000e+00,0.000000000000000000e+00,2.000000000000000000e+00,3.495483398437500000e-01,2.029418945312500000e-01,-9.053344726562500000e-01,1.302490234375000000e-01
-7.000000000000000000e+00,0.000000000000000000e+00,5.000000000000000000e+00,-3.000000000000000000e+00,-6.000000000000000000e+00,-4.000000000000000000e+00,-2.000000000000000000e+00,-4.000000000000000000e+00,3.495483398437500000e-01,2.029418945312500000e-01,-9.053344726562500000e-01,1.302490234375000000e-01
-4.000000000000000000e+00,0.000000000000000000e+00,-5.000000000000000000e+00,-2.000000000000000000e+00,-3.000000000000000000e+00,-1.000000000000000000e+00,-1.000000000000000000e+00,-3.000000000000000000e+00,3.495483398437500000e-01,2.029418945312500000e-01,-9.053344726562500000e-01,1.302490234375000000e-01
-2.000000000000000000e+00,3.000000000000000000e+00,5.000000000000000000e+00,-1.000000000000000000e+00,0.000000000000000000e+00,0.000000000000000000e+00,2.000000000000000000e+00,0.000000000000000000e+00,3.493041992187500000e-01,2.025146484375000000e-01,-9.055175781250000000e-01,1.304321289062500000e-01
5.000000000000000000e+00,-1.700000000000000000e+01,0.000000000000000000e+00,1.000000000000000000e+00,-2.000000000000000000e+00,-1.000000000000000000e+00,-2.000000000000000000e+00,-1.000000000000000000e+00,3.493041992187500000e-01,2.025146484375000000e-01,-9.055175781250000000e-01,1.304321289062500000e-01
-1.100000000000000000e+01,6.000000000000000000e+00,-1.200000000000000000e+01,-2.000000000000000000e+00,-3.000000000000000000e+00,-2.000000000000000000e+00,0.000000000000000000e+00,0.000000000000000000e+00,3.493041992187500000e-01,2.025146484375000000e-01,-9.055175781250000000e-01,1.304321289062500000e-01
-1.600000000000000000e+01,-9.000000000000000000e+00,-7.000000000000000000e+00,0.000000000000000000e+00,-2.000000000000000000e+00,-2.000000000000000000e+00,0.000000000000000000e+00,-2.000000000000000000e+00,3.493041992187500000e-01,2.025146484375000000e-01,-9.055175781250000000e-01,1.304321289062500000e-01
3.000000000000000000e+00,3.000000000000000000e+00,-1.000000000000000000e+00,-3.000000000000000000e+00,4.000000000000000000e+00,-3.000000000000000000e+00,-2.000000000000000000e+00,-2.000000000000000000e+00,3.489379882812500000e-01,2.021484375000000000e-01,-9.057006835937500000e-01,1.307983398437500000e-01
-6.000000000000000000e+00,-6.000000000000000000e+00,-1.000000000000000000e+00,3.000000000000000000e+00,-1.000000000000000000e+00,2.000000000000000000e+00,-1.000000000000000000e+00,-1.000000000000000000e+00,3.489379882812500000e-01,2.021484375000000000e-01,-9.057006835937500000e-01,1.307983398437500000e-01
8.000000000000000000e+00,4.000000000000000000e+00,-1.000000000000000000e+00,1.000000000000000000e+00,3.000000000000000000e+00,-1.000000000000000000e+00,-1.000000000000000000e+00,-1.000000000000000000e+00,3.489379882812500000e-01,2.021484375000000000e-01,-9.057006835937500000e-01,1.307983398437500000e-01
2.000000000000000000e+00,-6.000000000000000000e+00,2.000000000000000000e+00,-7.000000000000000000e+00,-4.000000000000000000e+00,-2.000000000000000000e+00,-5.000000000000000000e+00,-2.000000000000000000e+00,3.489379882812500000e-01,2.021484375000000000e-01,-9.057006835937500000e-01,1.307983398437500000e-01
-1.000000000000000000e+00,-1.000000000000000000e+00,-1.600000000000000000e+01,4.000000000000000000e+00,-2.000000000000000000e+00,-2.000000000000000000e+00,-2.000000000000000000e+00,-3.000000000000000000e+00,3.485107421875000000e-01,2.019653320312500000e-01,-9.058227539062500000e-01,1.313476562500000000e-01
-1.300000000000000000e+01,-5.000000000000000000e+00,1.800000000000000000e+01,5.000000000000000000e+00,2.000000000000000000e+00,-2.000000000000000000e+00,-2.000000000000000000e+00,-3.000000000000000000e+00,3.485107421875000000e-01,2.019653320312500000e-01,-9.058227539062500000e-01,1.313476562500000000e-01
1.600000000000000000e+01,-2.000000000000000000e+00,4.000000000000000000e+00,-5.000000000000000000e+00,-1.000000000000000000e+00,2.000000000000000000e+00,0.000000000000000000e+00,0.000000000000000000e+00,3.485107421875000000e-01,2.019653320312500000e-01,-9.058227539062500000e-01,1.313476562500000000e-01
-1.700000000000000000e+01,-9.000000000000000000e+00,-2.500000000000000000e+01,3.000000000000000000e+00,3.000000000000000000e+00,-2.000000000000000000e+00,0.000000000000000000e+00,-2.000000000000000000e+00,3.485107421875000000e-01,2.019653320312500000e-01,-9.058227539062500000e-01,1.313476562500000000e-01
2.000000000000000000e+00,-4.000000000000000000e+00,1.600000000000000000e+01,-7.000000000000000000e+00,-4.000000000000000000e+00,-1.000000000000000000e+00,-2.000000000000000000e+00,-1.000000000000000000e+00,3.479003906250000000e-01,2.018432617187500000e-01,-9.060668945312500000e-01,1.317138671875000000e-01
6.000000000000000000e+00,5.000000000000000000e+00,-3.000000000000000000e+00,-3.000000000000000000e+00,-7.000000000000000000e+00,-4.000000000000000000e+00,-6.000000000000000000e+00,1.000000000000000000e+00,3.479003906250000000e-01,2.018432617187500000e-01,-9.060668945312500000e-01,1.317138671875000000e-01
-2.000000000000000000e+00,6.000000000000000000e+00,6.000000000000000000e+00,7.000000000000000000e+00,2.000000000000000000e+00,1.000000000000000000e+00,3.000000000000000000e+00,0.000000000000000000e+00,3.479003906250000000e-01,2.018432617187500000e-01,-9.060668945312500000e-01,1.317138671875000000e-01
1.600000000000000000e+01,4.000000000000000000e+00,5.000000000000000000e+00,-1.000000000000000000e+00,0.000000000000000000e+00,2.000000000000000000e+00,2.000000000000000000e+00,-2.000000000000000000e+00,3.479003906250000000e-01,2.018432617187500000e-01,-9.060668945312500000e-01,1.317138671875000000e-01
-2.000000000000000000e+01,-2.100000000000000000e+01,3.000000000000000000e+00,-1.000000000000000000e+00,5.000000000000000000e+00,2.000000000000000000e+00,1.000000000000000000e+00,1.000000000000000000e+00,3.474731445312500000e-01,2.016601562500000000e-01,-9.061889648437500000e-01,1.318969726562500000e-01
2.000000000000000000e+00,6.000000000000000000e+00,-6.000000000000000000e+00,2.000000000000000000e+00,1.000000000000000000e+00,-2.000000000000000000e+00,1.000000000000000000e+00,0.000000000000000000e+00,3.474731445312500000e-01,2.016601562500000000e-01,-9.061889648437500000e-01,1.318969726562500000e-01
-5.000000000000000000e+00,0.000000000000000000e+00,-6.000000000000000000e+00,-3.000000000000000000e+00,-1.000000000000000000e+00,-3.000000000000000000e+00,0.000000000000000000e+00,-2.000000000000000000e+00,3.474731445312500000e-01,2.016601562500000000e-01,-9.061889648437500000e-01,1.318969726562500000e-01
6.000000000000000000e+00,7.000000000000000000e+00,-1.000000000000000000e+00,-2.000000000000000000e+00,-3.000000000000000000e+00,-3.000000000000000000e+00,-1.000000000000000000e+00,4.000000000000000000e+00,3.474731445312500000e-01,2.016601562500000000e-01,-9.061889648437500000e-01,1.318969726562500000e-01
1.000000000000000000e+00,0.000000000000000000e+00,3.000000000000000000e+00,1.000000000000000000e+00,-1.000000000000000000e+00,-1.000000000000000000e+00,-1.000000000000000000e+00,0.000000000000000000e+00,3.471069335937500000e-01,2.014770507812500000e-01,-9.063720703125000000e-01,1.320190429687500000e-01
1.000000000000000000e+00,8.000000000000000000e+00,3.000000000000000000e+00,-3.000000000000000000e+00,4.000000000000000000e+00,1.000000000000000000e+00,1.000000000000000000e+00,2.000000000000000000e+00,3.471069335937500000e-01,2.014770507812500000e-01,-9.063720703125000000e-01,1.320190429687500000e-01
-8.000000000000000000e+00,-1.300000000000000000e+01,-4.000000000000000000e+00,-1.000000000000000000e+00,-1.000000000000000000e+00,-2.000000000000000000e+00,0.000000000000000000e+00,0.000000000000000000e+00,3.471069335937500000e-01,2.014770507812500000e-01,-9.063720703125000000e-01,1.320190429687500000e-01
3.000000000000000000e+00,1.100000000000000000e+01,6.000000000000000000e+00,1.000000000000000000e+00,-1.000000000000000000e+00,2.000000000000000000e+00,-2.000000000000000000e+00,-3.000000000000000000e+00,3.471069335937500000e-01,2.014770507812500000e-01,-9.063720703125000000e-01,1.320190429687500000e-01
3.000000000000000000e+00,-3.000000000000000000e+00,-1.000000000000000000e+00,0.000000000000000000e+00,1.000000000000000000e+00,1.000000000000000000e+00,-1.000000000000000000e+00,-2.000000000000000000e+00,3.469238281250000000e-01,2.011718750000000000e-01,-9.064941406250000000e-01,1.321411132812500000e-01
-3.000000000000000000e+00,4.000000000000000000e+00,-7.000000000000000000e+00,-5.000000000000000000e+00,-4.000000000000000000e+00,-4.000000000000000000e+00,0.000000000000000000e+00,-2.000000000000000000e+00,3.469238281250000000e-01,2.011718750000000000e-01,-9.064941406250000000e-01,1.321411132812500000e-01
-4.000000000000000000e+00,-8.000000000000000000e+00,1.300000000000000000e+01,-2.000000000000000000e+00,-9.000000000000000000e+00,-3.000000000000000000e+00,-3.000000000000000000e+00,-2.000000000000000000e+00,3.469238281250000000e-01,2.011718750000000000e-01,-9.064941406250000000e-01,1.321411132812500000e-01
3.000000000000000000e+00,-2.000000000000000000e+00,3.000000000000000000e+00,0.000000000000000000e+00,0.000000000000000000e+00,0.000000000000000000e+00,0.000000000000000000e+00,0.000000000000000000e+00,3.469238281250000000e-01,2.011718750000000000e-01,-9.064941406250000000e-01,1.321411132812500000e-01
-1.000000000000000000e+01,-3.000000000000000000e+00,-5.000000000000000000e+00,-4.000000000000000000e+00,-4.000000000000000000e+00,-7.000000000000000000e+00,-2.000000000000000000e+00,-2.000000000000000000e+00,3.466186523437500000e-01,2.011108398437500000e-01,-9.065551757812500000e-01,1.325683593750000000e-01
1.400000000000000000e+01,3.000000000000000000e+00,3.000000000000000000e+00,2.000000000000000000e+00,3.000000000000000000e+00,2.000000000000000000e+00,1.000000000000000000e+00,0.000000000000000000e+00,3.466186523437500000e-01,2.011108398437500000e-01,-9.065551757812500000e-01,1.325683593750000000e-01
-6.000000000000000000e+00,9.000000000000000000e+00,-8.000000000000000000e+00,-8.000000000000000000e+00,8.000000000000000000e+00,8.000000000000000000e+00,1.000000000000000000e+00,1.000000000000000000e+00,3.466186523437500000e-01,2.011108398437500000e-01,-9.065551757812500000e-01,1.325683593750000000e-01
-9.000000000000000000e+00,-2.100000000000000000e+01,-1.000000000000000000e+00,1.000000000000000000e+00,-5.000000000000000000e+00,-5.000000000000000000e+00,-2.000000000000000000e+00,-2.000000000000000000e+00,3.466186523437500000e-01,2.011108398437500000e-01,-9.065551757812500000e-01,1.325683593750000000e-01
1.000000000000000000e+00,3.000000000000000000e+00,-4.000000000000000000e+00,-3.000000000000000000e+00,4.000000000000000000e+00,0.000000000000000000e+00,-3.000000000000000000e+00,-3.000000000000000000e+00,3.460693359375000000e-01,2.015991210937500000e-01,-9.065551757812500000e-01,1.330566406250000000e-01
0.000000000000000000e+00,-2.000000000000000000e+00,1.000000000000000000e+00,-7.000000000000000000e+00,-1.000000000000000000e+01,-2.000000000000000000e+00,6.000000000000000000e+00,1.000000000000000000e+00,3.460693359375000000e-01,2.015991210937500000e-01,-9.065551757812500000e-01,1.330566406250000000e-01
0.000000000000000000e+00,3.000000000000000000e+00,-2.000000000000000000e+00,-1.000000000000000000e+00,-7.000000000000000000e+00,-6.000000000000000000e+00,-4.000000000000000000e+00,-2.000000000000000000e+00,3.460693359375000000e-01,2.015991210937500000e-01,-9.065551757812500000e-01,1.330566406250000000e-01
-2.000000000000000000e+00,1.000000000000000000e+00,2.000000000000000000e+00,-5.000000000000000000e+00,-8.000000000000000000e+00,-1.000000000000000000e+00,-3.000000000000000000e+00,1.000000000000000000e+00,3.460693359375000000e-01,2.015991210937500000e-01,-9.065551757812500000e-01,1.330566406250000000e-01
4.000000000000000000e+00,6.000000000000000000e+00,-6.000000000000000000e+00,5.000000000000000000e+00,1.100000000000000000e+01,4.000000000000000000e+00,1.000000000000000000e+00,2.000000000000000000e+00,3.456420898437500000e-01,2.024536132812500000e-01,-9.064941406250000000e-01,1.335449218750000000e-01
-8.000000000000000000e+00,-6.000000000000000000e+00,1.000000000000000000e+01,1.100000000000000000e+01,8.000000000000000000e+00,5.000000000000000000e+00,-2.000000000000000000e+00,0.000000000000000000e+00,3.456420898437500000e-01,2.024536132812500000e-01,-9.064941406250000000e-01,1.335449218750000000e-01
1.000000000000000000e+00,5.000000000000000000e+00,1.000000000000000000e+00,-3.000000000000000000e+00,-3.000000000000000000e+00,-4.000000000000000000e+00,-4.000000000000000000e+00,-1.000000000000000000e+00,3.456420898437500000e-01,2.024536132812500000e-01,-9.064941406250000000e-01,1.335449218750000000e-01
-1.000000000000000000e+00,4.000000000000000000e+00,-1.000000000000000000e+00,-3.000000000000000000e+00,-2.000000000000000000e+00,-1.000000000000000000e+00,-2.000000000000000000e+00,-1.000000000000000000e+00,3.456420898437500000e-01,2.024536132812500000e-01,-9.064941406250000000e-01,1.335449218750000000e-01
0.000000000000000000e+00,1.000000000000000000e+00,-7.000000000000000000e+00,-3.000000000000000000e+00,-1.000000000000000000e+01,0.000000000000000000e+00,1.000000000000000000e+00,1.000000000000000000e+00,3.453369140625000000e-01,2.032470703125000000e-01,-9.063720703125000000e-01,1.337280273437500000e-01
-6.000000000000000000e+00,-9.000000000000000000e+00,-1.000000000000000000e+00,-3.000000000000000000e+00,-3.000000000000000000e+00,-5.000000000000000000e+00,-4.000000000000000000e+00,-2.000000000000000000e+00,3.453369140625000000e-01,2.032470703125000000e-01,-9.063720703125000000e-01,1.337280273437500000e-01
