2.500000000000000000e+01,-5.000000000000000000e+00,3.000000000000000000e+00,-1.000000000000000000e+00,2.000000000000000000e+00,-5.000000000000000000e+00,-1.300000000000000000e+01,-2.000000000000000000e+00,-4.323730468750000000e-01,2.650146484375000000e-01,6.753540039062500000e-01,5.353393554687500000e-01
-4.000000000000000000e+00,7.000000000000000000e+00,1.000000000000000000e+00,-5.000000000000000000e+00,-5.000000000000000000e+00,1.700000000000000000e+01,4.000000000000000000e+00,5.000000000000000000e+00,-4.323730468750000000e-01,2.650146484375000000e-01,6.753540039062500000e-01,5.353393554687500000e-01
-3.800000000000000000e+01,-8.000000000000000000e+00,-8.000000000000000000e+00,1.000000000000000000e+00,-2.000000000000000000e+00,-7.000000000000000000e+00,9.000000000000000000e+00,-1.500000000000000000e+01,-4.321899414062500000e-01,2.667236328125000000e-01,6.741333007812500000e-01,5.361938476562500000e-01
1.900000000000000000e+01,9.000000000000000000e+00,2.000000000000000000e+00,0.000000000000000000e+00,-1.000000000000000000e+00,-4.000000000000000000e+00,-1.900000000000000000e+01,4.000000000000000000e+00,-4.321899414062500000e-01,2.667236328125000000e-01,6.741333007812500000e-01,5.361938476562500000e-01
9.000000000000000000e+00,-9.000000000000000000e+00,0.000000000000000000e+00,-5.000000000000000000e+00,-1.000000000000000000e+00,-1.000000000000000000e+00,9.000000000000000000e+00,7.000000000000000000e+00,-4.320068359375000000e-01,2.700805664062500000e-01,6.722412109375000000e-01,5.370483398437500000e-01
-1.400000000000000000e+01,-6.000000000000000000e+00,-3.000000000000000000e+00,4.000000000000000000e+00,5.000000000000000000e+00,2.000000000000000000e+00,-7.000000000000000000e+00,-8.000000000000000000e+00,-4.320068359375000000e-01,2.700805664062500000e-01,6.722412109375000000e-01,5.370483398437500000e-01
-2.000000000000000000e+00,3.000000000000000000e+00,-4.000000000000000000e+00,-5.000000000000000000e+00,-2.000000000000000000e+00,-1.000000000000000000e+00,5.000000000000000000e+00,-1.000000000000000000e+00,-4.320068359375000000e-01,2.700805664062500000e-01,6.722412109375000000e-01,5.370483398437500000e-01
-3.000000000000000000e+00,2.000000000000000000e+00,2.000000000000000000e+00,3.000000000000000000e+00,-1.000000000000000000e+00,0.000000000000000000e+00,-4.000000000000000000e+00,1.000000000000000000e+00,-4.320068359375000000e-01,2.700805664062500000e-01,6.722412109375000000e-01,5.370483398437500000e-01
-3.000000000000000000e+00,-2.000000000000000000e+00,-6.000000000000000000e+00,-1.000000000000000000e+00,-4.000000000000000000e+00,3.000000000000000000e+00,6.000000000000000000e+00,-2.000000000000000000e+00,-4.320068359375000000e-01,2.700805664062500000e-01,6.722412109375000000e-01,5.370483398437500000e-01
-2.000000000000000000e+00,8.000000000000000000e+00,-3.000000000000000000e+00,-1.000000000000000000e+01,-1.700000000000000000e+01,-9.000000000000000000e+00,-2.000000000000000000e+00,-8.000000000000000000e+00,-4.320068359375000000e-01,2.700805664062500000e-01,6.722412109375000000e-01,5.370483398437500000e-01
-1.700000000000000000e+01,-9.000000000000000000e+00,-2.000000000000000000e+00,1.400000000000000000e+01,1.300000000000000000e+01,2.000000000000000000e+00,-7.000000000000000000e+00,-4.000000000000000000e+00,-4.320068359375000000e-01,2.700805664062500000e-01,6.722412109375000000e-01,5.370483398437500000e-01
3.000000000000000000e+01,-3.000000000000000000e+00,-5.000000000000000000e+00,-1.000000000000000000e+01,-6.000000000000000000e+00,1.000000000000000000e+00,1.500000000000000000e+01,1.700000000000000000e+01,-4.320068359375000000e-01,2.700805664062500000e-01,6.722412109375000000e-01,5.370483398437500000e-01
-1.800000000000000000e+01,3.000000000000000000e+00,4.000000000000000000e+00,4.000000000000000000e+00,-1.000000000000000000e+00,-2.000000000000000000e+00,-3.100000000000000000e+01,-2.300000000000000000e+01,-4.318847656250000000e-01,2.712402343750000000e-01,6.718750000000000000e-01,5.371093750000000000e-01
5.000000000000000000e+00,-4.000000000000000000e+00,2.000000000000000000e+00,-2.000000000000000000e+00,-4.000000000000000000e+00,0.000000000000000000e+00,1.000000000000000000e+01,8.000000000000000000e+00,-4.318847656250000000e-01,2.712402343750000000e-01,6.718750000000000000e-01,5.371093750000000000e-01
-1.000000000000000000e+01,-4.000000000000000000e+00,-4.000000000000000000e+00,-5.000000000000000000e+00,-6.000000000000000000e+00,-2.000000000000000000e+00,-3.000000000000000000e+00,-5.000000000000000000e+00,-4.318847656250000000e-01,2.712402343750000000e-01,6.718750000000000000e-01,5.371093750000000000e-01
-1.500000000000000000e+01,-5.000000000000000000e+00,-9.000000000000000000e+00,1.000000000000000000e+01,9.000000000000000000e+00,-3.000000000000000000e+00,8.000000000000000000e+00,-1.200000000000000000e+01,-4.318847656250000000e-01,2.712402343750000000e-01,6.718750000000000000e-01,5.371093750000000000e-01
0.000000000000000000e+00,3.000000000000000000e+00,-3.000000000000000000e+00,2.000000000000000000e+00,1.000000000000000000e+00,-5.000000000000000000e+00,-1.400000000000000000e+01,-5.000000000000000000e+00,-4.323120117187500000e-01,2.710571289062500000e-01,6.718139648437500000e-01,5.369262695312500000e-01
1.300000000000000000e+01,4.000000000000000000e+00,6.000000000000000000e+00,0.000000000000000000e+00,2.000000000000000000e+00,2.000000000000000000e+01,1.300000000000000000e+01,8.000000000000000000e+00,-4.323120117187500000e-01,2.710571289062500000e-01,6.718139648437500000e-01,5.369262695312500000e-01
3.000000000000000000e+00,-9.000000000000000000e+00,-1.300000000000000000e+01,-5.000000000000000000e+00,-3.000000000000000000e+00,-1.000000000000000000e+00,6.000000000000000000e+00,7.000000000000000000e+00,-4.323120117187500000e-01,2.710571289062500000e-01,6.718139648437500000e-01,5.369262695312500000e-01
5.000000000000000000e+00,7.000000000000000000e+00,1.000000000000000000e+00,7.000000000000000000e+00,0.000000000000000000e+00,-4.000000000000000000e+00,-1.000000000000000000e+01,-3.000000000000000000e+00,-4.323120117187500000e-01,2.710571289062500000e-01,6.718139648437500000e-01,5.369262695312500000e-01
-1.300000000000000000e+01,-7.000000000000000000e+00,0.000000000000000000e+00,-5.000000000000000000e+00,-5.000000000000000000e+00,-1.000000000000000000e+00,1.000000000000000000e+01,-8.000000000000000000e+00,-4.327392578125000000e-01,2.702636718750000000e-01,6.715087890625000000e-01,5.373535156250000000e-01
-2.300000000000000000e+01,5.000000000000000000e+00,-2.000000000000000000e+00,3.000000000000000000e+00,1.000000000000000000e+00,-1.300000000000000000e+01,-1.600000000000000000e+01,-1.000000000000000000e+00,-4.327392578125000000e-01,2.702636718750000000e-01,6.715087890625000000e-01,5.373535156250000000e-01
1.900000000000000000e+01,9.000000000000000000e+00,-7.000000000000000000e+00,5.000000000000000000e+00,3.000000000000000000e+00,4.000000000000000000e+00,2.000000000000000000e+00,-2.000000000000000000e+00,-4.327392578125000000e-01,2.702636718750000000e-01,6.715087890625000000e-01,5.373535156250000000e-01
-1.000000000000000000e+00,-5.000000000000000000e+00,3.000000000000000000e+00,-1.100000000000000000e+01,-1.500000000000000000e+01,0.000000000000000000e+00,0.000000000000000000e+00,1.200000000000000000e+01,-4.327392578125000000e-01,2.702636718750000000e-01,6.715087890625000000e-01,5.373535156250000000e-01
7.000000000000000000e+00,-4.000000000000000000e+00,-2.000000000000000000e+00,0.000000000000000000e+00,-1.000000000000000000e+00,1.000000000000000000e+00,1.100000000000000000e+01,9.000000000000000000e+00,-4.323120117187500000e-01,2.703247070312500000e-01,6.710205078125000000e-01,5.382080078125000000e-01
-2.200000000000000000e+01,-5.000000000000000000e+00,1.000000000000000000e+00,-5.000000000000000000e+00,-2.000000000000000000e+00,-7.000000000000000000e+00,-8.000000000000000000e+00,-2.000000000000000000e+00,-4.323120117187500000e-01,2.703247070312500000e-01,6.710205078125000000e-01,5.382080078125000000e-01
-2.900000000000000000e+01,9.000000000000000000e+00,2.000000000000000000e+00,-3.000000000000000000e+00,-1.000000000000000000e+00,-2.000000000000000000e+00,-2.000000000000000000e+00,-9.000000000000000000e+00,-4.323120117187500000e-01,2.703247070312500000e-01,6.710205078125000000e-01,5.382080078125000000e-01
-8.000000000000000000e+00,5.000000000000000000e+00,-2.000000000000000000e+00,3.000000000000000000e+00,5.000000000000000000e+00,-4.000000000000000000e+00,-4.000000000000000000e+00,-9.000000000000000000e+00,-4.323120117187500000e-01,2.703247070312500000e-01,6.710205078125000000e-01,5.382080078125000000e-01
3.500000000000000000e+01,0.000000000000000000e+00,7.000000000000000000e+00,1.300000000000000000e+01,1.100000000000000000e+01,6.000000000000000000e+00,5.000000000000000000e+00,1.200000000000000000e+01,-4.320678710937500000e-01,2.707519531250000000e-01,6.704101562500000000e-01,5.390014648437500000e-01
-5.000000000000000000e+00,-1.100000000000000000e+01,-2.000000000000000000e+00,-5.000000000000000000e+00,1.000000000000000000e+00,-3.000000000000000000e+00,7.000000000000000000e+00,7.000000000000000000e+00,-4.320678710937500000e-01,2.707519531250000000e-01,6.704101562500000000e-01,5.390014648437500000e-01
-2.400000000000000000e+01,-3.000000000000000000e+00,-2.000000000000000000e+00,-6.000000000000000000e+00,-7.000000000000000000e+00,-3.000000000000000000e+00,-1.000000000000000000e+01,-1.300000000000000000e+01,-4.320678710937500000e-01,2.707519531250000000e-01,6.704101562500000000e-01,5.390014648437500000e-01
-1.000000000000000000e+01,-3.000000000000000000e+00,3.000000000000000000e+00,-6.000000000000000000e+00,-5.000000000000000000e+00,2.000000000000000000e+00,2.000000000000000000e+00,-5.000000000000000000e+00,-4.320678710937500000e-01,2.707519531250000000e-01,6.704101562500000000e-01,5.390014648437500000e-01
-2.800000000000000000e+01,1.100000000000000000e+01,-5.000000000000000000e+00,-1.000000000000000000e+00,0.000000000000000000e+00,-3.000000000000000000e+00,-2.000000000000000000e+00,-4.000000000000000000e+00,-4.322509765625000000e-01,2.709350585937500000e-01,6.698608398437500000e-01,5.394897460937500000e-01
6.800000000000000000e+01,-8.000000000000000000e+00,1.000000000000000000e+00,-1.200000000000000000e+01,-5.000000000000000000e+00,3.000000000000000000e+00,-3.000000000000000000e+00,2.900000000000000000e+01,-4.322509765625000000e-01,2.709350585937500000e-01,6.698608398437500000e-01,5.394897460937500000e-01
4.000000000000000000e+00,-6.000000000000000000e+00,-1.000000000000000000e+00,7.000000000000000000e+00,2.000000000000000000e+00,-3.000000000000000000e+00,-1.200000000000000000e+01,-2.000000000000000000e+01,-4.322509765625000000e-01,2.709350585937500000e-01,6.698608398437500000e-01,5.394897460937500000e-01
5.000000000000000000e+00,2.000000000000000000e+00,2.000000000000000000e+00,0.000000000000000000e+00,4.000000000000000000e+00,-3.000000000000000000e+00,-2.000000000000000000e+00,5.000000000000000000e+00,-4.322509765625000000e-01,2.709350585937500000e-01,6.698608398437500000e-01,5.394897460937500000e-01
5.000000000000000000e+00,1.000000000000000000e+00,-3.000000000000000000e+00,8.000000000000000000e+00,-4.000000000000000000e+00,3.000000000000000000e+00,1.700000000000000000e+01,2.300000000000000000e+01,-4.323730468750000000e-01,2.705688476562500000e-01,6.692504882812500000e-01,5.402221679687500000e-01
-2.100000000000000000e+01,-1.200000000000000000e+01,-6.000000000000000000e+00,-3.000000000000000000e+00,2.000000000000000000e+00,-1.000000000000000000e+00,-6.000000000000000000e+00,-2.200000000000000000e+01,-4.323730468750000000e-01,2.705688476562500000e-01,6.692504882812500000e-01,5.402221679687500000e-01
4.000000000000000000e+00,-1.000000000000000000e+01,8.000000000000000000e+00,-1.200000000000000000e+01,-1.100000000000000000e+01,-6.000000000000000000e+00,5.000000000000000000e+00,1.300000000000000000e+01,-4.323730468750000000e-01,2.705688476562500000e-01,6.692504882812500000e-01,5.402221679687500000e-01
7.000000000000000000e+00,0.000000000000000000e+00,-4.000000000000000000e+00,-5.000000000000000000e+00,-7.000000000000000000e+00,-7.000000000000000000e+00,1.000000000000000000e+00,-1.200000000000000000e+01,-4.323730468750000000e-01,2.705688476562500000e-01,6.692504882812500000e-01,5.402221679687500000e-01
-6.000000000000000000e+00,5.000000000000000000e+00,3.000000000000000000e+00,-7.000000000000000000e+00,-6.000000000000000000e+00,-5.000000000000000000e+00,-2.000000000000000000e+01,1.500000000000000000e+01,-4.326782226562500000e-01,2.703247070312500000e-01,6.686401367187500000e-01,5.408935546875000000e-01
-3.000000000000000000e+00,-7.000000000000000000e+00,-7.000000000000000000e+00,3.000000000000000000e+00,1.500000000000000000e+01,4.000000000000000000e+00,-4.000000000000000000e+00,-1.800000000000000000e+01,-4.326782226562500000e-01,2.703247070312500000e-01,6.686401367187500000e-01,5.408935546875000000e-01
9.000000000000000000e+00,-2.000000000000000000e+00,7.000000000000000000e+00,-7.000000000000000000e+00,-7.000000000000000000e+00,-3.000000000000000000e+00,1.000000000000000000e+00,1.000000000000000000e+01,-4.326782226562500000e-01,2.703247070312500000e-01,6.686401367187500000e-01,5.408935546875000000e-01
-3.200000000000000000e+01,-1.100000000000000000e+01,-6.000000000000000000e+00,-1.000000000000000000e+00,-1.000000000000000000e+00,-2.000000000000000000e+00,-9.000000000000000000e+00,-1.400000000000000000e+01,-4.326782226562500000e-01,2.703247070312500000e-01,6.686401367187500000e-01,5.408935546875000000e-01
-1.000000000000000000e+01,0.000000000000000000e+00,-2.000000000000000000e+00,-7.000000000000000000e+00,-4.000000000000000000e+00,-1.000000000000000000e+00,2.000000000000000000e+00,-5.000000000000000000e+00,-4.328613281250000000e-01,2.705078125000000000e-01,6.683349609375000000e-01,5.410766601562500000e-01
8.000000000000000000e+00,9.000000000000000000e+00,6.000000000000000000e+00,5.000000000000000000e+00,1.000000000000000000e+00,-3.000000000000000000e+00,3.000000000000000000e+00,4.000000000000000000e+00,-4.328613281250000000e-01,2.705078125000000000e-01,6.683349609375000000e-01,5.410766601562500000e-01
7.000000000000000000e+00,0.000000000000000000e+00,3.000000000000000000e+00,4.000000000000000000e+00,5.000000000000000000e+00,2.000000000000000000e+00,-3.000000000000000000e+00,-1.000000000000000000e+00,-4.328613281250000000e-01,2.705078125000000000e-01,6.683349609375000000e-01,5.410766601562500000e-01
5.000000000000000000e+00,-3.000000000000000000e+00,-6.000000000000000000e+00,-1.000000000000000000e+00,0.000000000000000000e+00,0.000000000000000000e+00,3.000000000000000000e+00,7.000000000000000000e+00,-4.328613281250000000e-01,2.705078125000000000e-01,6.683349609375000000e-01,5.410766601562500000e-01
4.000000000000000000e+00,-1.000000000000000000e+00,-1.000000000000000000e+00,1.000000000000000000e+00,-2.000000000000000000e+00,0.000000000000000000e+00,0.000000000000000000e+00,-8.000000000000000000e+00,-4.328613281250000000e-01,2.705078125000000000e-01,6.682739257812500000e-01,5.410766601562500000e-01
-2.000000000000000000e+00,4.000000000000000000e+00,-3.000000000000000000e+00,-3.000000000000000000e+00,-7.000000000000000000e+00,-2.000000000000000000e+00,-1.000000000000000000e+00,-3.000000000000000000e+00,-4.328613281250000000e-01,2.705078125000000000e-01,6.682739257812500000e-01,5.410766601562500000e-01
1.900000000000000000e+01,0.000000000000000000e+00,1.000000000000000000e+00,4.000000000000000000e+00,-1.000000000000000000e+00,0.000000000000000000e+00,6.000000000000000000e+00,9.000000000000000000e+00,-4.328613281250000000e-01,2.705078125000000000e-01,6.682739257812500000e-01,5.410766601562500000e-01
-9.000000000000000000e+00,-2.000000000000000000e+00,-3.000000000000000000e+00,1.200000000000000000e+01,1.200000000000000000e+01,2.000000000000000000e+00,0.000000000000000000e+00,-2.000000000000000000e+00,-4.328613281250000000e-01,2.705078125000000000e-01,6.682739257812500000e-01,5.410766601562500000e-01
-9.000000000000000000e+00,-4.000000000000000000e+00,-9.000000000000000000e+00,-2.000000000000000000e+00,0.000000000000000000e+00,-1.300000000000000000e+01,-6.000000000000000000e+00,-1.000000000000000000e+01,-4.331054687500000000e-01,2.705688476562500000e-01,6.677856445312500000e-01,5.415039062500000000e-01
-2.200000000000000000e+01,2.000000000000000000e+00,-2.000000000000000000e+00,-4.000000000000000000e+00,-2.000000000000000000e+00,7.000000000000000000e+00,2.200000000000000000e+01,1.000000000000000000e+00,-4.331054687500000000e-01,2.705688476562500000e-01,6.677856445312500000e-01,5.415039062500000000e-01
1.300000000000000000e+01,-5.000000000000000000e+00,-4.000000000000000000e+00,2.000000000000000000e+00,1.000000000000000000e+00,-9.000000000000000000e+00,-1.200000000000000000e+01,9.000000000000000000e+00,-4.331054687500000000e-01,2.705688476562500000e-01,6.677856445312500000e-01,5.415039062500000000e-01
4.000000000000000000e+00,2.000000000000000000e+00,4.000000000000000000e+00,-1.200000000000000000e+01,-5.000000000000000000e+00,-1.000000000000000000e+01,-2.000000000000000000e+01,2.000000000000000000e+00,-4.331054687500000000e-01,2.705688476562500000e-01,6.677856445312500000e-01,5.415039062500000000e-01
-1.900000000000000000e+01,-6.000000000000000000e+00,4.000000000000000000e+00,-3.000000000000000000e+00,-4.000000000000000000e+00,-8.000000000000000000e+00,-1.200000000000000000e+01,-1.700000000000000000e+01,-4.333496093750000000e-01,2.705688476562500000e-01,6.672363281250000000e-01,5.419311523437500000e-01
1.000000000000000000e+01,4.000000000000000000e+00,-7.000000000000000000e+00,1.000000000000000000e+01,6.000000000000000000e+00,1.900000000000000000e+01,2.100000000000000000e+01,5.000000000000000000e+00,-4.333496093750000000e-01,2.705688476562500000e-01,6.672363281250000000e-01,5.419311523437500000e-01
-8.000000000000000000e+00,1.000000000000000000e+00,3.000000000000000000e+00,-5.000000000000000000e+00,-2.000000000000000000e+00,0.000000000000000000e+00,4.000000000000000000e+00,1.000000000000000000e+00,-4.333496093750000000e-01,2.705688476562500000e-01,6.672363281250000000e-01,5.419311523437500000e-01
8.000000000000000000e+00,-8.000000000000000000e+00,-5.000000000000000000e+00,-2.000000000000000000e+00,1.000000000000000000e+00,-4.000000000000000000e+00,-3.000000000000000000e+00,1.100000000000000000e+01,-4.333496093750000000e-01,2.705688476562500000e-01,6.672363281250000000e-01,5.419311523437500000e-01
1.400000000000000000e+01,3.000000000000000000e+00,2.000000000000000000e+00,1.000000000000000000e+00,-4.000000000000000000e+00,0.000000000000000000e+00,1.000000000000000000e+01,7.000000000000000000e+00,-4.340820312500000000e-01,2.699584960937500000e-01,6.665039062500000000e-01,5.426025390625000000e-01
-2.200000000000000000e+01,0.000000000000000000e+00,2.000000000000000000e+00,-1.000000000000000000e+01,-1.100000000000000000e+01,-1.200000000000000000e+01,-2.000000000000000000e+01,-1.400000000000000000e+01,-4.340820312500000000e-01,2.699584960937500000e-01,6.665039062500000000e-01,5.426025390625000000e-01
1.300000000000000000e+01,-5.000000000000000000e+00,-7.000000000000000000e+00,-1.000000000000000000e+00,2.000000000000000000e+00,3.000000000000000000e+00,-2.000000000000000000e+00,3.000000000000000000e+00,-4.340820312500000000e-01,2.699584960937500000e-01,6.665039062500000000e-01,5.426025390625000000e-01
-2.600000000000000000e+01,5.000000000000000000e+00,5.000000000000000000e+00,4.000000000000000000e+00,3.000000000000000000e+00,3.000000000000000000e+00,0.000000000000000000e+00,-1.000000000000000000e+01,-4.340820312500000000e-01,2.699584960937500000e-01,6.665039062500000000e-01,5.426025390625000000e-01
3.400000000000000000e+01,-3.000000000000000000e+00,4.000000000000000000e+00,-1.000000000000000000e+00,6.000000000000000000e+00,5.000000000000000000e+00,8.000000000000000000e+00,1.000000000000000000e+01,-4.342651367187500000e-01,2.703247070312500000e-01,6.654052734375000000e-01,5.435791015625000000e-01
2.600000000000000000e+01,6.000000000000000000e+00,-5.000000000000000000e+00,1.000000000000000000e+01,4.000000000000000000e+00,-5.000000000000000000e+00,-4.000000000000000000e+00,6.000000000000000000e+00,-4.342651367187500000e-01,2.703247070312500000e-01,6.654052734375000000e-01,5.435791015625000000e-01
-7.000000000000000000e+00,4.000000000000000000e+00,-1.000000000000000000e+00,-6.000000000000000000e+00,1.000000000000000000e+00,3.000000000000000000e+00,3.000000000000000000e+00,-8.000000000000000000e+00,-4.342651367187500000e-01,2.703247070312500000e-01,6.654052734375000000e-01,5.435791015625000000e-01
-9.000000000000000000e+00,2.000000000000000000e+00,0.000000000000000000e+00,5.000000000000000000e+00,-4.000000000000000000e+00,2.000000000000000000e+00,7.000000000000000000e+00,-3.000000000000000000e+00,-4.342651367187500000e-01,2.703247070312500000e-01,6.654052734375000000e-01,5.435791015625000000e-01
4.000000000000000000e+00,0.000000000000000000e+00,-2.000000000000000000e+00,-1.000000000000000000e+01,-8.000000000000000000e+00,1.000000000000000000e+00,-1.800000000000000000e+01,-6.000000000000000000e+00,-4.343261718750000000e-01,2.709960937500000000e-01,6.644897460937500000e-01,5.443725585937500000e-01
0.000000000000000000e+00,-1.000000000000000000e+01,5.000000000000000000e+00,-9.000000000000000000e+00,4.000000000000000000e+00,-7.000000000000000000e+00,-1.000000000000000000e+00,5.000000000000000000e+00,-4.343261718750000000e-01,2.709960937500000000e-01,6.644897460937500000e-01,5.443725585937500000e-01
-1.200000000000000000e+01,0.000000000000000000e+00,-2.000000000000000000e+00,1.900000000000000000e+01,7.000000000000000000e+00,-4.000000000000000000e+00,1.000000000000000000e+00,-7.000000000000000000e+00,-4.343261718750000000e-01,2.709960937500000000e-01,6.644897460937500000e-01,5.443725585937500000e-01
1.500000000000000000e+01,1.000000000000000000e+00,-8.000000000000000000e+00,2.000000000000000000e+00,-6.000000000000000000e+00,8.000000000000000000e+00,-2.000000000000000000e+00,-2.000000000000000000e+00,-4.343261718750000000e-01,2.709960937500000000e-01,6.644897460937500000e-01,5.443725585937500000e-01
-1.000000000000000000e+00,0.000000000000000000e+00,-7.000000000000000000e+00,-8.000000000000000000e+00,-2.000000000000000000e+00,-2.000000000000000000e+00,2.000000000000000000e+00,0.000000000000000000e+00,-4.341430664062500000e-01,2.709960937500000000e-01,6.640625000000000000e-01,5.450439453125000000e-01
6.000000000000000000e+00,-3.000000000000000000e+00,1.000000000000000000e+01,4.000000000000000000e+00,0.000000000000000000e+00,-3.000000000000000000e+00,5.000000000000000000e+00,0.000000000000000000e+00,-4.341430664062500000e-01,2.709960937500000000e-01,6.640625000000000000e-01,5.450439453125000000e-01
-1.300000000000000000e+01,-5.000000000000000000e+00,-2.000000000000000000e+00,-1.400000000000000000e+01,-1.000000000000000000e+01,-2.000000000000000000e+00,-6.000000000000000000e+00,2.000000000000000000e+00,-4.341430664062500000e-01,2.709960937500000000e-01,6.640625000000000000e-01,5.450439453125000000e-01
-2.000000000000000000e+00,5.000000000000000000e+00,-3.000000000000000000e+00,-1.000000000000000000e+00,4.000000000000000000e+00,2.000000000000000000e+00,5.000000000000000000e+00,-5.000000000000000000e+00,-4.341430664062500000e-01,2.709960937500000000e-01,6.640625000000000000e-01,5.450439453125000000e-01
-1.500000000000000000e+01,4.000000000000000000e+00,-1.000000000000000000e+00,7.000000000000000000e+00,4.000000000000000000e+00,2.000000000000000000e+00,1.900000000000000000e+01,1.200000000000000000e+01,-4.346313476562500000e-01,2.697143554687500000e-01,6.638793945312500000e-01,5.454711914062500000e-01
1.200000000000000000e+01,0.000000000000000000e+00,-4.000000000000000000e+00,0.000000000000000000e+00,-4.000000000000000000e+00,-1.000000000000000000e+00,-2.200000000000000000e+01,-5.000000000000000000e+00,-4.346313476562500000e-01,2.697143554687500000e-01,6.638793945312500000e-01,5.454711914062500000e-01
-1.400000000000000000e+01,7.000000000000000000e+00,-2.000000000000000000e+00,6.000000000000000000e+00,-2.000000000000000000e+00,-1.000000000000000000e+00,1.000000000000000000e+00,-6.000000000000000000e+00,-4.346313476562500000e-01,2.697143554687500000e-01,6.638793945312500000e-01,5.454711914062500000e-01
2.300000000000000000e+01,5.000000000000000000e+00,-1.000000000000000000e+00,-9.000000000000000000e+00,-1.000000000000000000e+00,1.000000000000000000e+00,-1.500000000000000000e+01,5.000000000000000000e+00,-4.346313476562500000e-01,2.697143554687500000e-01,6.638793945312500000e-01,5.454711914062500000e-01
-1.900000000000000000e+01,-8.000000000000000000e+00,1.000000000000000000e+00,-4.000000000000000000e+00,0.000000000000000000e+00,-6.000000000000000000e+00,-1.200000000000000000e+01,-1.600000000000000000e+01,-4.350585937500000000e-01,2.682495117187500000e-01,6.636962890625000000e-01,5.460815429687500000e-01
-1.500000000000000000e+01,4.000000000000000000e+00,-5.000000000000000000e+00,-6.000000000000000000e+00,-7.000000000000000000e+00,-2.000000000000000000e+00,5.000000000000000000e+00,0.000000000000000000e+00,-4.350585937500000000e-01,2.682495117187500000e-01,6.636962890625000000e-01,5.460815429687500000e-01
1.200000000000000000e+01,8.000000000000000000e+00,1.100000000000000000e+01,8.000000000000000000e+00,1.000000000000000000e+01,4.000000000000000000e+00,0.000000000000000000e+00,2.000000000000000000e+00,-4.350585937500000000e-01,2.682495117187500000e-01,6.636962890625000000e-01,5.460815429687500000e-01
2.200000000000000000e+01,1.000000000000000000e+00,-2.000000000000000000e+00,-5.000000000000000000e+00,-1.000000000000000000e+00,0.000000000000000000e+00,1.200000000000000000e+01,1.500000000000000000e+01,-4.350585937500000000e-01,2.682495117187500000e-01,6.636962890625000000e-01,5.460815429687500000e-01
-1.800000000000000000e+01,-8.000000000000000000e+00,-2.000000000000000000e+00,3.000000000000000000e+00,1.000000000000000000e+00,0.000000000000000000e+00,-1.100000000000000000e+01,-8.000000000000000000e+00,-4.351196289062500000e-01,2.677612304687500000e-01,6.634521484375000000e-01,5.466308593750000000e-01
-1.200000000000000000e+01,-5.000000000000000000e+00,-4.000000000000000000e+00,-4.000000000000000000e+00,-2.000000000000000000e+00,-1.000000000000000000e+00,3.000000000000000000e+00,1.000000000000000000e+00,-4.351196289062500000e-01,2.677612304687500000e-01,6.634521484375000000e-01,5.466308593750000000e-01
6.000000000000000000e+00,-6.000000000000000000e+00,-1.000000000000000000e+00,-5.000000000000000000e+00,-4.000000000000000000e+00,-3.000000000000000000e+00,-6.000000000000000000e+00,-1.200000000000000000e+01,-4.351196289062500000e-01,2.677612304687500000e-01,6.634521484375000000e-01,5.466308593750000000e-01
-2.100000000000000000e+01,-7.000000000000000000e+00,-4.000000000000000000e+00,2.000000000000000000e+00,-9.000000000000000000e+00,-6.000000000000000000e+00,-1.000000000000000000e+00,-1.100000000000000000e+01,-4.351196289062500000e-01,2.677612304687500000e-01,6.634521484375000000e-01,5.466308593750000000e-01
3.000000000000000000e+00,3.000000000000000000e+00,-1.000000000000000000e+00,1.900000000000000000e+01,1.600000000000000000e+01,7.000000000000000000e+00,8.000000000000000000e+00,7.000000000000000000e+00,-4.352416992187500000e-01,2.675781250000000000e-01,6.630859375000000000e-01,5.470581054687500000e-01
3.000000000000000000e+01,2.000000000000000000e+00,-2.000000000000000000e+00,1.200000000000000000e+01,9.000000000000000000e+00,1.000000000000000000e+00,-2.000000000000000000e+00,3.000000000000000000e+00,-4.352416992187500000e-01,2.675781250000000000e-01,6.630859375000000000e-01,5.470581054687500000e-01
-1.700000000000000000e+01,-8.000000000000000000e+00,-1.000000000000000000e+01,-5.000000000000000000e+00,-6.000000000000000000e+00,-4.000000000000000000e+00,1.400000000000000000e+01,1.000000000000000000e+00,-4.352416992187500000e-01,2.675781250000000000e-01,6.630859375000000000e-01,5.470581054687500000e-01
1.100000000000000000e+01,8.000000000000000000e+00,4.000000000000000000e+00,-8.000000000000000000e+00,1.000000000000000000e+00,-1.300000000000000000e+01,-3.600000000000000000e+01,1.000000000000000000e+00,-4.352416992187500000e-01,2.675781250000000000e-01,6.630859375000000000e-01,5.470581054687500000e-01
1.800000000000000000e+01,1.000000000000000000e+00,-5.000000000000000000e+00,0.000000000000000000e+00,-2.000000000000000000e+00,1.900000000000000000e+01,-7.000000000000000000e+00,-2.000000000000000000e+00,-4.349365234375000000e-01,2.675781250000000000e-01,6.629028320312500000e-01,5.474853515625000000e-01
-1.700000000000000000e+01,-1.000000000000000000e+00,0.000000000000000000e+00,0.000000000000000000e+00,-6.000000000000000000e+00,-1.100000000000000000e+01,-1.000000000000000000e+01,-7.000000000000000000e+00,-4.349365234375000000e-01,2.675781250000000000e-01,6.629028320312500000e-01,5.474853515625000000e-01
3.000000000000000000e+00,7.000000000000000000e+00,-6.000000000000000000e+00,8.000000000000000000e+00,4.000000000000000000e+00,-1.000000000000000000e+01,-1.300000000000000000e+01,4.000000000000000000e+00,-4.349365234375000000e-01,2.675781250000000000e-01,6.629028320312500000e-01,5.474853515625000000e-01
-1.000000000000000000e+00,-6.000000000000000000e+00,-4.000000000000000000e+00,-1.000000000000000000e+00,1.000000000000000000e+00,2.600000000000000000e+01,3.300000000000000000e+01,6.000000000000000000e+00,-4.349365234375000000e-01,2.675781250000000000e-01,6.629028320312500000e-01,5.474853515625000000e-01
-5.000000000000000000e+00,-1.000000000000000000e+00,-3.000000000000000000e+00,5.000000000000000000e+00,2.000000000000000000e+00,-6.000000000000000000e+00,-8.000000000000000000e+00,-1.500000000000000000e+01,-4.353027343750000000e-01,2.665405273437500000e-01,6.629638671875000000e-01,5.476684570312500000e-01
-8.000000000000000000e+00,1.100000000000000000e+01,4.000000000000000000e+00,-5.000000000000000000e+00,-2.000000000000000000e+00,-5.000000000000000000e+00,5.000000000000000000e+00,9.000000000000000000e+00,-4.353027343750000000e-01,2.665405273437500000e-01,6.629638671875000000e-01,5.476684570312500000e-01
-8.000000000000000000e+00,-7.000000000000000000e+00,1.000000000000000000e+00,-8.000000000000000000e+00,-4.000000000000000000e+00,3.000000000000000000e+00,-6.000000000000000000e+00,-1.000000000000000000e+00,-4.353027343750000000e-01,2.665405273437500000e-01,6.629638671875000000e-01,5.476684570312500000e-01
9.000000000000000000e+00,-6.000000000000000000e+00,-7.000000000000000000e+00,-1.500000000000000000e+01,-1.200000000000000000e+01,-9.000000000000000000e+00,-5.000000000000000000e+00,-1.600000000000000000e+01,-4.353027343750000000e-01,2.665405273437500000e-01,6.629638671875000000e-01,5.476684570312500000e-01
2.000000000000000000e+00,3.000000000000000000e+00,7.000000000000000000e+00,2.400000000000000000e+01,2.300000000000000000e+01,4.000000000000000000e+00,-3.000000000000000000e+00,-4.000000000000000000e+00,-4.356689453125000000e-01,2.653808593750000000e-01,6.629028320312500000e-01,5.479736328125000000e-01
0.000000000000000000e+00,-2.000000000000000000e+00,-5.000000000000000000e+00,-6.000000000000000000e+00,-1.000000000000000000e+01,-3.000000000000000000e+00,6.000000000000000000e+00,-4.000000000000000000e+00,-4.356689453125000000e-01,2.653808593750000000e-01,6.629028320312500000e-01,5.479736328125000000e-01
7.000000000000000000e+00,-6.000000000000000000e+00,0.000000000000000000e+00,-3.000000000000000000e+00,-1.000000000000000000e+00,-1.000000000000000000e+00,-4.000000000000000000e+00,1.500000000000000000e+01,-4.356689453125000000e-01,2.653808593750000000e-01,6.629028320312500000e-01,5.479736328125000000e-01
1.900000000000000000e+01,4.000000000000000000e+00,1.000000000000000000e+00,-6.000000000000000000e+00,-4.000000000000000000e+00,0.000000000000000000e+00,0.000000000000000000e+00,2.000000000000000000e+00,-4.356689453125000000e-01,2.653808593750000000e-01,6.629028320312500000e-01,5.479736328125000000e-01
-1.500000000000000000e+01,-4.000000000000000000e+00,0.000000000000000000e+00,-1.700000000000000000e+01,-1.400000000000000000e+01,-5.000000000000000000e+00,4.000000000000000000e+00,-8.000000000000000000e+00,-4.355468750000000000e-01,2.652587890625000000e-01,6.624755859375000000e-01,5.485839843750000000e-01
-1.000000000000000000e+00,0.000000000000000000e+00,-3.000000000000000000e+00,3.000000000000000000e+01,2.200000000000000000e+01,6.000000000000000000e+00,-6.000000000000000000e+00,-1.100000000000000000e+01,-4.355468750000000000e-01,2.652587890625000000e-01,6.624755859375000000e-01,5.485839843750000000e-01
-1.800000000000000000e+01,-2.000000000000000000e+00,-1.000000000000000000e+00,-1.700000000000000000e+01,-1.100000000000000000e+01,0.000000000000000000e+00,-2.000000000000000000e+00,-1.000000000000000000e+01,-4.355468750000000000e-01,2.652587890625000000e-01,6.624755859375000000e-01,5.485839843750000000e-01
-6.000000000000000000e+00,-3.000000000000000000e+00,6.000000000000000000e+00,8.000000000000000000e+00,6.000000000000000000e+00,-1.000000000000000000e+00,0.000000000000000000e+00,2.000000000000000000e+00,-4.355468750000000000e-01,2.652587890625000000e-01,6.624755859375000000e-01,5.485839843750000000e-01
1.200000000000000000e+01,0.000000000000000000e+00,-4.000000000000000000e+00,-1.100000000000000000e+01,-8.000000000000000000e+00,-7.000000000000000000e+00,0.000000000000000000e+00,7.000000000000000000e+00,-4.354248046875000000e-01,2.653198242187500000e-01,6.620483398437500000e-01,5.491943359375000000e-01
-6.000000000000000000e+00,3.000000000000000000e+00,-1.000000000000000000e+00,-6.000000000000000000e+00,-3.000000000000000000e+00,-2.000000000000000000e+00,-4.000000000000000000e+00,-8.000000000000000000e+00,-4.354248046875000000e-01,2.653198242187500000e-01,6.620483398437500000e-01,5.491943359375000000e-01
5.000000000000000000e+00,0.000000000000000000e+00,-8.000000000000000000e+00,-5.000000000000000000e+00,-6.000000000000000000e+00,0.000000000000000000e+00,3.000000000000000000e+00,1.000000000000000000e+00,-4.354248046875000000e-01,2.653198242187500000e-01,6.620483398437500000e-01,5.491943359375000000e-01
-1.600000000000000000e+01,-3.000000000000000000e+00,-4.000000000000000000e+00,1.400000000000000000e+01,6.000000000000000000e+00,3.000000000000000000e+00,-1.000000000000000000e+00,-4.000000000000000000e+00,-4.354248046875000000e-01,2.653198242187500000e-01,6.620483398437500000e-01,5.491943359375000000e-01
7.000000000000000000e+00,1.000000000000000000e+00,-1.200000000000000000e+01,-1.000000000000000000e+00,-3.000000000000000000e+00,-5.000000000000000000e+00,7.000000000000000000e+00,4.000000000000000000e+00,-4.352416992187500000e-01,2.649536132812500000e-01,6.620483398437500000e-01,5.495605468750000000e-01
-4.000000000000000000e+00,-6.000000000000000000e+00,-2.000000000000000000e+00,-1.100000000000000000e+01,-6.000000000000000000e+00,-2.000000000000000000e+00,-7.000000000000000000e+00,1.000000000000000000e+00,-4.352416992187500000e-01,2.649536132812500000e-01,6.620483398437500000e-01,5.495605468750000000e-01
8.000000000000000000e+00,2.000000000000000000e+00,1.000000000000000000e+00,4.000000000000000000e+00,3.000000000000000000e+00,-4.000000000000000000e+00,4.000000000000000000e+00,1.000000000000000000e+00,-4.352416992187500000e-01,2.649536132812500000e-01,6.620483398437500000e-01,5.495605468750000000e-01
9.000000000000000000e+00,-4.000000000000000000e+00,2.000000000000000000e+00,-7.000000000000000000e+00,-5.000000000000000000e+00,-1.000000000000000000e+01,5.000000000000000000e+00,-1.000000000000000000e+01,-4.352416992187500000e-01,2.649536132812500000e-01,6.620483398437500000e-01,5.495605468750000000e-01
6.000000000000000000e+00,1.000000000000000000e+00,-1.000000000000000000e+00,-5.000000000000000000e+00,-3.000000000000000000e+00,-6.000000000000000000e+00,-5.000000000000000000e+00,-5.000000000000000000e+00,-4.354248046875000000e-01,2.640991210937500000e-01,6.622314453125000000e-01,5.495605468750000000e-01
2.000000000000000000e+01,5.000000000000000000e+00,2.000000000000000000e+00,-1.000000000000000000e+00,0.000000000000000000e+00,8.000000000000000000e+00,1.700000000000000000e+01,4.000000000000000000e+00,-4.354248046875000000e-01,2.640991210937500000e-01,6.622314453125000000e-01,5.495605468750000000e-01
0.000000000000000000e+00,-2.000000000000000000e+00,-1.000000000000000000e+00,-5.000000000000000000e+00,-3.000000000000000000e+00,3.000000000000000000e+00,1.000000000000000000e+01,2.000000000000000000e+00,-4.354248046875000000e-01,2.640991210937500000e-01,6.622314453125000000e-01,5.495605468750000000e-01
-2.000000000000000000e+00,2.000000000000000000e+00,7.000000000000000000e+00,-3.000000000000000000e+00,-7.000000000000000000e+00,-4.000000000000000000e+00,-5.000000000000000000e+00,-6.000000000000000000e+00,-4.354248046875000000e-01,2.640991210937500000e-01,6.622314453125000000e-01,5.495605468750000000e-01
-7.000000000000000000e+00,1.000000000000000000e+00,3.000000000000000000e+00,8.000000000000000000e+00,1.100000000000000000e+01,3.000000000000000000e+00,2.000000000000000000e+00,-4.000000000000000000e+00,-4.355468750000000000e-01,2.634887695312500000e-01,6.622924804687500000e-01,5.497436523437500000e-01
-3.000000000000000000e+00,-6.000000000000000000e+00,-7.000000000000000000e+00,-3.000000000000000000e+00,-4.000000000000000000e+00,-6.000000000000000000e+00,-9.000000000000000000e+00,-7.000000000000000000e+00,-4.355468750000000000e-01,2.634887695312500000e-01,6.622924804687500000e-01,5.497436523437500000e-01
8.000000000000000000e+00,6.000000000000000000e+00,2.000000000000000000e+00,0.000000000000000000e+00,-3.000000000000000000e+00,0.000000000000000000e+00,1.000000000000000000e+00,-1.700000000000000000e+01,-4.355468750000000000e-01,2.634887695312500000e-01,6.622924804687500000e-01,5.497436523437500000e-01
1.000000000000000000e+00,-4.000000000000000000e+00,2.000000000000000000e+00,-2.000000000000000000e+00,4.000000000000000000e+00,4.000000000000000000e+00,1.000000000000000000e+01,6.000000000000000000e+01,-4.355468750000000000e-01,2.634887695312500000e-01,6.622924804687500000e-01,5.497436523437500000e-01
-3.000000000000000000e+00,-2.000000000000000000e+00,1.000000000000000000e+00,-8.000000000000000000e+00,-4.000000000000000000e+00,0.000000000000000000e+00,1.000000000000000000e+00,-6.000000000000000000e+00,-4.354248046875000000e-01,2.634277343750000000e-01,6.622314453125000000e-01,5.499267578125000000e-01
-8.000000000000000000e+00,0.000000000000000000e+00,-7.000000000000000000e+00,5.000000000000000000e+00,-6.000000000000000000e+00,0.000000000000000000e+00,0.000000000000000000e+00,4.000000000000000000e+00,-4.354248046875000000e-01,2.634277343750000000e-01,6.622314453125000000e-01,5.499267578125000000e-01
-1.200000000000000000e+01,1.000000000000000000e+00,3.000000000000000000e+00,5.000000000000000000e+00,6.000000000000000000e+00,3.000000000000000000e+00,-6.000000000000000000e+00,-1.100000000000000000e+01,-4.354248046875000000e-01,2.634277343750000000e-01,6.622314453125000000e-01,5.499267578125000000e-01
-5.000000000000000000e+00,-3.000000000000000000e+00,-1.000000000000000000e+01,-5.000000000000000000e+00,-2.000000000000000000e+00,-5.000000000000000000e+00,-1.000000000000000000e+01,-1.500000000000000000e+01,-4.354248046875000000e-01,2.634277343750000000e-01,6.622314453125000000e-01,5.499267578125000000e-01
2.000000000000000000e+00,1.000000000000000000e+00,-2.000000000000000000e+00,-7.000000000000000000e+00,-4.000000000000000000e+00,-1.000000000000000000e+00,0.000000000000000000e+00,8.000000000000000000e+00,-4.350585937500000000e-01,2.639160156250000000e-01,6.625366210937500000e-01,5.495605468750000000e-01
0.000000000000000000e+00,-2.000000000000000000e+00,-2.000000000000000000e+00,-1.000000000000000000e+01,-5.000000000000000000e+00,-5.000000000000000000e+00,-1.000000000000000000e+00,2.000000000000000000e+00,-4.350585937500000000e-01,2.639160156250000000e-01,6.625366210937500000e-01,5.495605468750000000e-01
4.000000000000000000e+00,-4.000000000000000000e+00,-3.000000000000000000e+00,2.000000000000000000e+00,0.000000000000000000e+00,-2.000000000000000000e+00,-2.000000000000000000e+00,1.000000000000000000e+00,-4.350585937500000000e-01,2.639160156250000000e-01,6.625366210937500000e-01,5.495605468750000000e-01
-1.200000000000000000e+01,1.000000000000000000e+00,1.000000000000000000e+00,1.000000000000000000e+00,-8.000000000000000000e+00,1.000000000000000000e+00,-5.000000000000000000e+00,-1.000000000000000000e+01,-4.350585937500000000e-01,2.639160156250000000e-01,6.625366210937500000e-01,5.495605468750000000e-01
-1.500000000000000000e+01,-2.000000000000000000e+00,3.000000000000000000e+00,-1.000000000000000000e+01,-8.000000000000000000e+00,-2.000000000000000000e+00,8.000000000000000000e+00,4.000000000000000000e+00,-4.360351562500000000e-01,2.630004882812500000e-01,6.627197265625000000e-01,5.490112304687500000e-01
1.300000000000000000e+01,1.000000000000000000e+00,-2.000000000000000000e+00,2.000000000000000000e+00,1.000000000000000000e+01,2.000000000000000000e+00,0.000000000000000000e+00,-5.000000000000000000e+00,-4.360351562500000000e-01,2.630004882812500000e-01,6.627197265625000000e-01,5.490112304687500000e-01
1.500000000000000000e+01,-1.000000000000000000e+00,-1.000000000000000000e+00,-2.000000000000000000e+00,-6.000000000000000000e+00,-5.000000000000000000e+00,-3.000000000000000000e+00,1.400000000000000000e+01,-4.360351562500000000e-01,2.630004882812500000e-01,6.627197265625000000e-01,5.490112304687500000e-01
-3.100000000000000000e+01,-2.000000000000000000e+00,0.000000000000000000e+00,0.000000000000000000e+00,3.000000000000000000e+00,-1.000000000000000000e+00,1.000000000000000000e+00,-1.300000000000000000e+01,-4.360351562500000000e-01,2.630004882812500000e-01,6.627197265625000000e-01,5.490112304687500000e-01
2.300000000000000000e+01,-2.000000000000000000e+00,3.000000000000000000e+00,-2.000000000000000000e+00,-1.000000000000000000e+00,1.000000000000000000e+00,-1.000000000000000000e+00,7.000000000000000000e+00,-4.364624023437500000e-01,2.623901367187500000e-01,6.624755859375000000e-01,5.493164062500000000e-01
1.000000000000000000e+00,6.000000000000000000e+00,8.000000000000000000e+00,-6.000000000000000000e+00,-1.000000000000000000e+01,-5.000000000000000000e+00,-2.000000000000000000e+00,5.000000000000000000e+00,-4.364624023437500000e-01,2.623901367187500000e-01,6.624755859375000000e-01,5.493164062500000000e-01
-4.000000000000000000e+00,3.000000000000000000e+00,-3.000000000000000000e+00,8.000000000000000000e+00,5.000000000000000000e+00,-5.000000000000000000e+00,-1.700000000000000000e+01,-5.000000000000000000e+00,-4.364624023437500000e-01,2.623901367187500000e-01,6.624755859375000000e-01,5.493164062500000000e-01
-1.700000000000000000e+01,-6.000000000000000000e+00,4.000000000000000000e+00,9.000000000000000000e+00,3.000000000000000000e+00,9.000000000000000000e+00,2.200000000000000000e+01,-9.000000000000000000e+00,-4.364624023437500000e-01,2.623901367187500000e-01,6.624755859375000000e-01,5.493164062500000000e-01
-9.000000000000000000e+00,-1.000000000000000000e+00,-2.000000000000000000e+00,-4.000000000000000000e+00,-2.000000000000000000e+00,8.000000000000000000e+00,-4.000000000000000000e+00,-3.000000000000000000e+00,-4.360351562500000000e-01,2.630004882812500000e-01,6.621093750000000000e-01,5.497436523437500000e-01
0.000000000000000000e+00,-6.000000000000000000e+00,1.000000000000000000e+00,-4.000000000000000000e+00,-4.000000000000000000e+00,-5.000000000000000000e+00,3.000000000000000000e+00,-2.000000000000000000e+00,-4.360351562500000000e-01,2.630004882812500000e-01,6.621093750000000000e-01,5.497436523437500000e-01
1.000000000000000000e+00,-4.000000000000000000e+00,5.000000000000000000e+00,-7.000000000000000000e+00,2.000000000000000000e+00,4.000000000000000000e+00,9.000000000000000000e+00,1.100000000000000000e+01,-4.360351562500000000e-01,2.630004882812500000e-01,6.621093750000000000e-01,5.497436523437500000e-01
-3.000000000000000000e+00,-3.000000000000000000e+00,-4.000000000000000000e+00,5.000000000000000000e+00,-1.000000000000000000e+00,-5.000000000000000000e+00,-1.400000000000000000e+01,-7.000000000000000000e+00,-4.360351562500000000e-01,2.630004882812500000e-01,6.621093750000000000e-01,5.497436523437500000e-01
-1.000000000000000000e+00,-3.000000000000000000e+00,-1.000000000000000000e+00,-5.000000000000000000e+00,-7.000000000000000000e+00,-7.000000000000000000e+00,-9.000000000000000000e+00,-6.000000000000000000e+00,-4.357299804687500000e-01,2.633666992187500000e-01,6.620483398437500000e-01,5.499267578125000000e-01
-1.100000000000000000e+01,0.000000000000000000e+00,1.000000000000000000e+00,3.000000000000000000e+00,0.000000000000000000e+00,4.000000000000000000e+00,-5.000000000000000000e+00,-5.000000000000000000e+00,-4.357299804687500000e-01,2.633666992187500000e-01,6.620483398437500000e-01,5.499267578125000000e-01
-9.000000000000000000e+00,-2.000000000000000000e+00,-1.000000000000000000e+00,6.000000000000000000e+00,5.000000000000000000e+00,3.000000000000000000e+00,-2.000000000000000000e+00,-4.000000000000000000e+00,-4.357299804687500000e-01,2.633666992187500000e-01,6.620483398437500000e-01,5.499267578125000000e-01
1.000000000000000000e+00,1.000000000000000000e+00,2.000000000000000000e+00,-1.700000000000000000e+01,-7.000000000000000000e+00,-5.000000000000000000e+00,8.000000000000000000e+00,-5.000000000000000000e+00,-4.357299804687500000e-01,2.633666992187500000e-01,6.620483398437500000e-01,5.499267578125000000e-01
1.300000000000000000e+01,-6.000000000000000000e+00,-2.000000000000000000e+00,5.000000000000000000e+00,0.000000000000000000e+00,0.000000000000000000e+00,3.000000000000000000e+00,3.000000000000000000e+00,-4.354858398437500000e-01,2.634277343750000000e-01,6.621093750000000000e-01,5.499877929687500000e-01
-8.000000000000000000e+00,-3.000000000000000000e+00,1.000000000000000000e+00,-1.200000000000000000e+01,-5.000000000000000000e+00,-1.000000000000000000e+00,-2.000000000000000000e+00,1.200000000000000000e+01,-4.354858398437500000e-01,2.634277343750000000e-01,6.621093750000000000e-01,5.499877929687500000e-01
1.000000000000000000e+00,6.000000000000000000e+00,1.000000000000000000e+00,-1.000000000000000000e+00,-5.000000000000000000e+00,-1.000000000000000000e+00,-9.000000000000000000e+00,-1.600000000000000000e+01,-4.354858398437500000e-01,2.634277343750000000e-01,6.621093750000000000e-01,5.499877929687500000e-01
4.000000000000000000e+00,2.000000000000000000e+00,-6.000000000000000000e+00,0.000000000000000000e+00,-4.000000000000000000e+00,-4.000000000000000000e+00,-5.000000000000000000e+00,0.000000000000000000e+00,-4.354858398437500000e-01,2.634277343750000000e-01,6.621093750000000000e-01,5.499877929687500000e-01
-9.000000000000000000e+00,2.000000000000000000e+00,-1.000000000000000000e+00,-1.000000000000000000e+00,-3.000000000000000000e+00,-1.000000000000000000e+00,-6.000000000000000000e+00,-4.000000000000000000e+00,-4.350585937500000000e-01,2.634887695312500000e-01,6.622314453125000000e-01,5.501708984375000000e-01
-1.000000000000000000e+00,-5.000000000000000000e+00,-7.000000000000000000e+00,1.000000000000000000e+01,3.000000000000000000e+00,1.000000000000000000e+00,-3.000000000000000000e+00,-7.000000000000000000e+00,-4.350585937500000000e-01,2.634887695312500000e-01,6.622314453125000000e-01,5.501708984375000000e-01
-3.000000000000000000e+00,-4.000000000000000000e+00,4.000000000000000000e+00,-1.300000000000000000e+01,-9.000000000000000000e+00,-2.000000000000000000e+00,6.000000000000000000e+00,4.000000000000000000e+00,-4.350585937500000000e-01,2.634887695312500000e-01,6.622314453125000000e-01,5.501708984375000000e-01
2.000000000000000000e+00,-2.000000000000000000e+00,-7.000000000000000000e+00,-5.000000000000000000e+00,7.000000000000000000e+00,2.000000000000000000e+00,-2.000000000000000000e+00,6.000000000000000000e+00,-4.350585937500000000e-01,2.634887695312500000e-01,6.622314453125000000e-01,5.501708984375000000e-01
1.500000000000000000e+01,2.000000000000000000e+00,1.000000000000000000e+00,-1.000000000000000000e+00,1.000000000000000000e+00,-5.000000000000000000e+00,-7.000000000000000000e+00,-2.000000000000000000e+00,-4.348754882812500000e-01,2.630615234375000000e-01,6.624755859375000000e-01,5.502319335937500000e-01
-1.700000000000000000e+01,0.000000000000000000e+00,5.000000000000000000e+00,1.000000000000000000e+01,6.000000000000000000e+00,0.000000000000000000e+00,-6.000000000000000000e+00,-7.000000000000000000e+00,-4.348754882812500000e-01,2.630615234375000000e-01,6.624755859375000000e-01,5.502319335937500000e-01
-3.000000000000000000e+00,3.000000000000000000e+00,-5.000000000000000000e+00,-1.000000000000000000e+00,0.000000000000000000e+00,0.000000000000000000e+00,-6.000000000000000000e+00,-8.000000000000000000e+00,-4.348754882812500000e-01,2.630615234375000000e-01,6.624755859375000000e-01,5.502319335937500000e-01
-7.000000000000000000e+00,2.000000000000000000e+00,6.000000000000000000e+00,6.000000000000000000e+00,3.000000000000000000e+00,-1.000000000000000000e+00,1.300000000000000000e+01,1.300000000000000000e+01,-4.348754882812500000e-01,2.630615234375000000e-01,6.624755859375000000e-01,5.502319335937500000e-01
7.000000000000000000e+00,-1.000000000000000000e+00,-5.000000000000000000e+00,-5.000000000000000000e+00,2.000000000000000000e+00,2.000000000000000000e+00,-1.200000000000000000e+01,1.000000000000000000e+00,-4.351196289062500000e-01,2.622680664062500000e-01,6.625366210937500000e-01,5.503540039062500000e-01
2.000000000000000000e+00,0.000000000000000000e+00,-1.000000000000000000e+00,1.000000000000000000e+00,0.000000000000000000e+00,3.000000000000000000e+00,0.000000000000000000e+00,-6.000000000000000000e+00,-4.351196289062500000e-01,2.622680664062500000e-01,6.625366210937500000e-01,5.503540039062500000e-01
-3.000000000000000000e+00,0.000000000000000000e+00,-1.000000000000000000e+00,3.000000000000000000e+00,0.000000000000000000e+00,-5.000000000000000000e+00,-3.000000000000000000e+00,-5.000000000000000000e+00,-4.351196289062500000e-01,2.622680664062500000e-01,6.625366210937500000e-01,5.503540039062500000e-01
-1.000000000000000000e+00,2.000000000000000000e+00,-5.000000000000000000e+00,1.000000000000000000e+00,-2.000000000000000000e+00,-2.000000000000000000e+00,9.000000000000000000e+00,-7.000000000000000000e+00,-4.351196289062500000e-01,2.622680664062500000e-01,6.625366210937500000e-01,5.503540039062500000e-01
1.500000000000000000e+01,5.000000000000000000e+00,-4.000000000000000000e+00,0.000000000000000000e+00,-2.000000000000000000e+00,2.000000000000000000e+00,1.000000000000000000e+01,1.200000000000000000e+01,-4.353027343750000000e-01,2.616577148437500000e-01,6.622924804687500000e-01,5.508422851562500000e-01
-1.500000000000000000e+01,-4.000000000000000000e+00,-4.000000000000000000e+00,3.000000000000000000e+00,2.000000000000000000e+00,9.000000000000000000e+00,-7.000000000000000000e+00,-2.000000000000000000e+00,-4.353027343750000000e-01,2.616577148437500000e-01,6.622924804687500000e-01,5.508422851562500000e-01
3.000000000000000000e+00,-5.000000000000000000e+00,-3.000000000000000000e+00,-6.000000000000000000e+00,-2.000000000000000000e+00,2.000000000000000000e+00,0.000000000000000000e+00,-5.000000000000000000e+00,-4.353027343750000000e-01,2.616577148437500000e-01,6.622924804687500000e-01,5.508422851562500000e-01
1.300000000000000000e+01,-3.000000000000000000e+00,-3.000000000000000000e+00,7.000000000000000000e+00,5.000000000000000000e+00,-2.000000000000000000e+00,-7.000000000000000000e+00,-3.000000000000000000e+00,-4.353027343750000000e-01,2.616577148437500000e-01,6.622924804687500000e-01,5.508422851562500000e-01
-1.500000000000000000e+01,-5.000000000000000000e+00,-3.000000000000000000e+00,-8.000000000000000000e+00,-6.000000000000000000e+00,-3.000000000000000000e+00,3.000000000000000000e+00,-2.000000000000000000e+00,-4.352416992187500000e-01,2.615966796875000000e-01,6.620483398437500000e-01,5.511474609375000000e-01
-6.000000000000000000e+00,2.000000000000000000e+00,1.000000000000000000e+00,1.200000000000000000e+01,7.000000000000000000e+00,3.000000000000000000e+00,5.000000000000000000e+00,-2.000000000000000000e+00,-4.352416992187500000e-01,2.615966796875000000e-01,6.620483398437500000e-01,5.511474609375000000e-01
9.000000000000000000e+00,-1.000000000000000000e+00,-7.000000000000000000e+00,-3.000000000000000000e+00,-2.000000000000000000e+00,-6.000000000000000000e+00,2.000000000000000000e+00,5.000000000000000000e+00,-4.352416992187500000e-01,2.615966796875000000e-01,6.620483398437500000e-01,5.511474609375000000e-01
-6.000000000000000000e+00,0.000000000000000000e+00,2.000000000000000000e+00,-7.000000000000000000e+00,-1.000000000000000000e+00,0.000000000000000000e+00,-1.300000000000000000e+01,-5.000000000000000000e+00,-4.352416992187500000e-01,2.615966796875000000e-01,6.620483398437500000e-01,5.511474609375000000e-01
-1.000000000000000000e+01,4.000000000000000000e+00,4.000000000000000000e+00,-1.000000000000000000e+00,-6.000000000000000000e+00,-4.000000000000000000e+00,0.000000000000000000e+00,-8.000000000000000000e+00,-4.353637695312500000e-01,2.616577148437500000e-01,6.617431640625000000e-01,5.513916015625000000e-01
1.700000000000000000e+01,4.000000000000000000e+00,0.000000000000000000e+00,1.000000000000000000e+01,5.000000000000000000e+00,-2.000000000000000000e+00,-1.000000000000000000e+00,9.000000000000000000e+00,-4.353637695312500000e-01,2.616577148437500000e-01,6.617431640625000000e-01,5.513916015625000000e-01
1.900000000000000000e+01,9.000000000000000000e+00,1.000000000000000000e+00,-8.000000000000000000e+00,-3.000000000000000000e+00,1.000000000000000000e+00,2.000000000000000000e+00,5.000000000000000000e+00,-4.353637695312500000e-01,2.616577148437500000e-01,6.617431640625000000e-01,5.513916015625000000e-01
1.100000000000000000e+01,0.000000000000000000e+00,1.000000000000000000e+00,-6.000000000000000000e+00,-5.000000000000000000e+00,-1.000000000000000000e+00,2.000000000000000000e+00,1.200000000000000000e+01,-4.353637695312500000e-01,2.616577148437500000e-01,6.617431640625000000e-01,5.513916015625000000e-01
-2.300000000000000000e+01,-8.000000000000000000e+00,-4.000000000000000000e+00,9.000000000000000000e+00,5.000000000000000000e+00,1.000000000000000000e+00,2.000000000000000000e+00,-1.200000000000000000e+01,-4.353637695312500000e-01,2.621459960937500000e-01,6.614990234375000000e-01,5.514526367187500000e-01
-2.000000000000000000e+01,-7.000000000000000000e+00,-3.000000000000000000e+00,-1.000000000000000000e+01,-8.000000000000000000e+00,-6.000000000000000000e+00,-1.500000000000000000e+01,-1.500000000000000000e+01,-4.353637695312500000e-01,2.621459960937500000e-01,6.614990234375000000e-01,5.514526367187500000e-01
1.000000000000000000e+00,0.000000000000000000e+00,-2.000000000000000000e+00,1.000000000000000000e+00,3.000000000000000000e+00,1.000000000000000000e+00,4.000000000000000000e+00,7.000000000000000000e+00,-4.353637695312500000e-01,2.621459960937500000e-01,6.614990234375000000e-01,5.514526367187500000e-01
-5.000000000000000000e+00,-1.000000000000000000e+00,1.000000000000000000e+00,-3.000000000000000000e+00,-4.000000000000000000e+00,0.000000000000000000e+00,-1.200000000000000000e+01,-1.300000000000000000e+01,-4.353637695312500000e-01,2.621459960937500000e-01,6.614990234375000000e-01,5.514526367187500000e-01
1.600000000000000000e+01,-1.000000000000000000e+00,1.000000000000000000e+00,-6.000000000000000000e+00,-5.000000000000000000e+00,-6.000000000000000000e+00,3.000000000000000000e+00,9.000000000000000000e+00,-4.356689453125000000e-01,2.619628906250000000e-01,6.614379882812500000e-01,5.513916015625000000e-01
4.000000000000000000e+00,-7.000000000000000000e+00,-4.000000000000000000e+00,-5.000000000000000000e+00,-4.000000000000000000e+00,-5.000000000000000000e+00,1.000000000000000000e+00,3.000000000000000000e+00,-4.356689453125000000e-01,2.619628906250000000e-01,6.614379882812500000e-01,5.513916015625000000e-01
-9.000000000000000000e+00,-2.000000000000000000e+00,-7.000000000000000000e+00,6.000000000000000000e+00,0.000000000000000000e+00,5.000000000000000000e+00,0.000000000000000000e+00,0.000000000000000000e+00,-4.356689453125000000e-01,2.619628906250000000e-01,6.614379882812500000e-01,5.513916015625000000e-01
5.000000000000000000e+00,2.000000000000000000e+00,-1.000000000000000000e+00,-2.000000000000000000e+00,0.000000000000000000e+00,-6.000000000000000000e+00,-1.400000000000000000e+01,-5.000000000000000000e+00,-4.356689453125000000e-01,2.619628906250000000e-01,6.614379882812500000e-01,5.513916015625000000e-01
-1.000000000000000000e+01,-2.000000000000000000e+00,-4.000000000000000000e+00,0.000000000000000000e+00,-2.000000000000000000e+00,-1.000000000000000000e+00,5.000000000000000000e+00,-1.000000000000000000e+00,-4.360961914062500000e-01,2.612304687500000000e-01,6.614990234375000000e-01,5.513305664062500000e-01
4.000000000000000000e+00,0.000000000000000000e+00,0.000000000000000000e+00,-6.000000000000000000e+00,1.000000000000000000e+00,-2.000000000000000000e+00,-1.000000000000000000e+00,-3.000000000000000000e+00,-4.360961914062500000e-01,2.612304687500000000e-01,6.614990234375000000e-01,5.513305664062500000e-01
-1.300000000000000000e+01,-6.000000000000000000e+00,-3.000000000000000000e+00,-3.000000000000000000e+00,-4.000000000000000000e+00,-1.000000000000000000e+00,5.000000000000000000e+00,1.100000000000000000e+01,-4.360961914062500000e-01,2.612304687500000000e-01,6.614990234375000000e-01,5.513305664062500000e-01
6.000000000000000000e+00,4.000000000000000000e+00,2.000000000000000000e+00,1.000000000000000000e+00,1.000000000000000000e+00,3.000000000000000000e+00,4.000000000000000000e+00,-3.000000000000000000e+00,-4.360961914062500000e-01,2.612304687500000000e-01,6.614990234375000000e-01,5.513305664062500000e-01
1.100000000000000000e+01,-5.000000000000000000e+00,-3.000000000000000000e+00,1.000000000000000000e+00,2.000000000000000000e+00,-5.000000000000000000e+00,-7.000000000000000000e+00,4.000000000000000000e+00,-4.360961914062500000e-01,2.608642578125000000e-01,6.614990234375000000e-01,5.514526367187500000e-01
-6.000000000000000000e+00,4.000000000000000000e+00,2.000000000000000000e+00,-3.000000000000000000e+00,-8.000000000000000000e+00,-3.000000000000000000e+00,2.000000000000000000e+00,-3.000000000000000000e+00,-4.360961914062500000e-01,2.608642578125000000e-01,6.614990234375000000e-01,5.514526367187500000e-01
0.000000000000000000e+00,-2.000000000000000000e+00,-4.000000000000000000e+00,0.000000000000000000e+00,0.000000000000000000e+00,-3.000000000000000000e+00,1.200000000000000000e+01,-9.000000000000000000e+00,-4.360961914062500000e-01,2.608642578125000000e-01,6.614990234375000000e-01,5.514526367187500000e-01
1.000000000000000000e+00,-4.000000000000000000e+00,-2.000000000000000000e+00,2.000000000000000000e+00,-3.000000000000000000e+00,-6.000000000000000000e+00,-3.100000000000000000e+01,8.000000000000000000e+00,-4.360961914062500000e-01,2.608642578125000000e-01,6.614990234375000000e-01,5.514526367187500000e-01
9.000000000000000000e+00,5.000000000000000000e+00,1.000000000000000000e+00,-1.500000000000000000e+01,-4.000000000000000000e+00,1.100000000000000000e+01,-5.000000000000000000e+00,-8.000000000000000000e+00,-4.359741210937500000e-01,2.603759765625000000e-01,6.614990234375000000e-01,5.518188476562500000e-01
-4.000000000000000000e+00,-1.300000000000000000e+01,-6.000000000000000000e+00,1.000000000000000000e+00,3.000000000000000000e+00,-3.000000000000000000e+00,-3.000000000000000000e+00,-1.100000000000000000e+01,-4.359741210937500000e-01,2.603759765625000000e-01,6.614990234375000000e-01,5.518188476562500000e-01
-8.000000000000000000e+00,1.000000000000000000e+00,2.000000000000000000e+00,1.200000000000000000e+01,6.000000000000000000e+00,-1.000000000000000000e+00,3.000000000000000000e+00,-1.000000000000000000e+00,-4.359741210937500000e-01,2.603759765625000000e-01,6.614990234375000000e-01,5.518188476562500000e-01
0.000000000000000000e+00,-3.000000000000000000e+00,-1.000000000000000000e+00,-6.000000000000000000e+00,1.000000000000000000e+00,5.000000000000000000e+00,1.300000000000000000e+01,9.000000000000000000e+00,-4.359741210937500000e-01,2.603759765625000000e-01,6.614990234375000000e-01,5.518188476562500000e-01
-4.000000000000000000e+00,0.000000000000000000e+00,2.000000000000000000e+00,7.000000000000000000e+00,-1.000000000000000000e+00,-5.000000000000000000e+00,1.000000000000000000e+00,4.000000000000000000e+00,-4.355468750000000000e-01,2.600708007812500000e-01,6.617431640625000000e-01,5.520019531250000000e-01
0.000000000000000000e+00,5.000000000000000000e+00,0.000000000000000000e+00,-3.000000000000000000e+00,-3.000000000000000000e+00,2.000000000000000000e+00,-3.000000000000000000e+00,1.000000000000000000e+00,-4.355468750000000000e-01,2.600708007812500000e-01,6.617431640625000000e-01,5.520019531250000000e-01
1.000000000000000000e+00,-6.000000000000000000e+00,3.000000000000000000e+00,-6.000000000000000000e+00,-4.000000000000000000e+00,-2.000000000000000000e+00,-1.000000000000000000e+01,-7.000000000000000000e+00,-4.355468750000000000e-01,2.600708007812500000e-01,6.617431640625000000e-01,5.520019531250000000e-01
1.000000000000000000e+00,0.000000000000000000e+00,1.000000000000000000e+00,3.000000000000000000e+00,3.000000000000000000e+00,-2.000000000000000000e+00,2.000000000000000000e+00,-4.000000000000000000e+00,-4.355468750000000000e-01,2.600708007812500000e-01,6.617431640625000000e-01,5.520019531250000000e-01
-1.200000000000000000e+01,-7.000000000000000000e+00,-1.000000000000000000e+00,2.000000000000000000e+00,2.000000000000000000e+00,-3.000000000000000000e+00,-2.000000000000000000e+00,1.000000000000000000e+00,-4.354248046875000000e-01,2.597045898437500000e-01,6.621093750000000000e-01,5.518798828125000000e-01
3.000000000000000000e+00,1.000000000000000000e+00,1.000000000000000000e+00,1.000000000000000000e+00,2.000000000000000000e+00,4.000000000000000000e+00,9.000000000000000000e+00,7.000000000000000000e+00,-4.354248046875000000e-01,2.597045898437500000e-01,6.621093750000000000e-01,5.518798828125000000e-01
-2.000000000000000000e+00,2.000000000000000000e+00,2.000000000000000000e+00,-2.000000000000000000e+00,1.000000000000000000e+00,-4.000000000000000000e+00,-4.000000000000000000e+00,1.000000000000000000e+00,-4.354248046875000000e-01,2.597045898437500000e-01,6.621093750000000000e-01,5.518798828125000000e-01
-5.000000000000000000e+00,-3.000000000000000000e+00,2.000000000000000000e+00,-7.000000000000000000e+00,-9.000000000000000000e+00,-3.000000000000000000e+00,-1.000000000000000000e+00,-7.000000000000000000e+00,-4.354248046875000000e-01,2.597045898437500000e-01,6.621093750000000000e-01,5.518798828125000000e-01
-4.000000000000000000e+00,-2.000000000000000000e+00,4.000000000000000000e+00,1.500000000000000000e+01,1.500000000000000000e+01,3.000000000000000000e+00,3.000000000000000000e+00,-1.000000000000000000e+00,-4.356079101562500000e-01,2.592163085937500000e-01,6.622924804687500000e-01,5.516967773437500000e-01
-1.700000000000000000e+01,-4.000000000000000000e+00,-1.000000000000000000e+00,-4.000000000000000000e+00,-1.000000000000000000e+01,-6.000000000000000000e+00,2.000000000000000000e+00,-4.000000000000000000e+00,-4.356079101562500000e-01,2.592163085937500000e-01,6.622924804687500000e-01,5.516967773437500000e-01
1.000000000000000000e+01,9.000000000000000000e+00,2.000000000000000000e+00,-3.000000000000000000e+00,3.000000000000000000e+00,0.000000000000000000e+00,-9.000000000000000000e+00,-1.000000000000000000e+00,-4.356079101562500000e-01,2.592163085937500000e-01,6.622924804687500000e-01,5.516967773437500000e-01
1.100000000000000000e+01,0.000000000000000000e+00,-9.000000000000000000e+00,1.000000000000000000e+00,-2.000000000000000000e+00,0.000000000000000000e+00,-1.000000000000000000e+00,-2.000000000000000000e+00,-4.356079101562500000e-01,2.592163085937500000e-01,6.622924804687500000e-01,5.516967773437500000e-01
-3.000000000000000000e+00,-5.000000000000000000e+00,-6.000000000000000000e+00,-6.000000000000000000e+00,-5.000000000000000000e+00,-2.000000000000000000e+00,4.000000000000000000e+00,-2.000000000000000000e+00,-4.357299804687500000e-01,2.584838867187500000e-01,6.624145507812500000e-01,5.517578125000000000e-01
1.200000000000000000e+01,6.000000000000000000e+00,3.000000000000000000e+00,-4.000000000000000000e+00,2.000000000000000000e+00,0.000000000000000000e+00,5.000000000000000000e+00,8.000000000000000000e+00,-4.357299804687500000e-01,2.584838867187500000e-01,6.624145507812500000e-01,5.517578125000000000e-01
-2.000000000000000000e+00,-2.000000000000000000e+00,-1.000000000000000000e+00,2.000000000000000000e+00,-1.000000000000000000e+00,-3.000000000000000000e+00,-1.600000000000000000e+01,-5.000000000000000000e+00,-4.357299804687500000e-01,2.584838867187500000e-01,6.624145507812500000e-01,5.517578125000000000e-01
-3.000000000000000000e+00,2.000000000000000000e+00,2.000000000000000000e+00,4.000000000000000000e+00,1.000000000000000000e+00,-2.000000000000000000e+00,6.000000000000000000e+00,2.000000000000000000e+00,-4.357299804687500000e-01,2.584838867187500000e-01,6.624145507812500000e-01,5.517578125000000000e-01
-9.000000000000000000e+00,4.000000000000000000e+00,0.000000000000000000e+00,-1.000000000000000000e+00,-1.000000000000000000e+00,-3.000000000000000000e+00,0.000000000000000000e+00,-6.000000000000000000e+00,-4.360351562500000000e-01,2.576293945312500000e-01,6.624145507812500000e-01,5.520019531250000000e-01
2.000000000000000000e+00,-5.000000000000000000e+00,-4.000000000000000000e+00,-3.000000000000000000e+00,-4.000000000000000000e+00,-4.000000000000000000e+00,-2.000000000000000000e+00,1.000000000000000000e+00,-4.360351562500000000e-01,2.576293945312500000e-01,6.624145507812500000e-01,5.520019531250000000e-01
8.000000000000000000e+00,-5.000000000000000000e+00,-2.000000000000000000e+00,-6.000000000000000000e+00,-4.000000000000000000e+00,2.000000000000000000e+00,-3.000000000000000000e+00,2.000000000000000000e+00,-4.360351562500000000e-01,2.576293945312500000e-01,6.624145507812500000e-01,5.520019531250000000e-01
-2.100000000000000000e+01,2.000000000000000000e+00,-2.000000000000000000e+00,-3.000000000000000000e+00,1.000000000000000000e+00,0.000000000000000000e+00,1.200000000000000000e+01,0.000000000000000000e+00,-4.360351562500000000e-01,2.576293945312500000e-01,6.624145507812500000e-01,5.520019531250000000e-01
2.200000000000000000e+01,2.000000000000000000e+00,0.000000000000000000e+00,8.000000000000000000e+00,1.000000000000000000e+00,0.000000000000000000e+00,1.000000000000000000e+00,4.000000000000000000e+00,-4.361572265625000000e-01,2.570800781250000000e-01,6.623535156250000000e-01,5.521850585937500000e-01
-1.200000000000000000e+01,-2.000000000000000000e+00,6.000000000000000000e+00,-6.000000000000000000e+00,-2.000000000000000000e+00,-1.000000000000000000e+00,-1.000000000000000000e+01,-7.000000000000000000e+00,-4.361572265625000000e-01,2.570800781250000000e-01,6.623535156250000000e-01,5.521850585937500000e-01
-5.000000000000000000e+00,0.000000000000000000e+00,0.000000000000000000e+00,-7.000000000000000000e+00,-3.000000000000000000e+00,-3.000000000000000000e+00,-2.000000000000000000e+00,-2.000000000000000000e+00,-4.361572265625000000e-01,2.570800781250000000e-01,6.623535156250000000e-01,5.521850585937500000e-01
-1.200000000000000000e+01,-5.000000000000000000e+00,3.000000000000000000e+00,-2.000000000000000000e+00,-1.000000000000000000e+00,0.000000000000000000e+00,-5.000000000000000000e+00,-6.000000000000000000e+00,-4.361572265625000000e-01,2.570800781250000000e-01,6.623535156250000000e-01,5.521850585937500000e-01
0.000000000000000000e+00,-1.000000000000000000e+00,0.000000000000000000e+00,3.000000000000000000e+00,6.000000000000000000e+00,5.000000000000000000e+00,3.000000000000000000e+00,-2.000000000000000000e+00,-4.362182617187500000e-01,2.565917968750000000e-01,6.622314453125000000e-01,5.524902343750000000e-01
1.000000000000000000e+01,2.000000000000000000e+00,2.000000000000000000e+00,-4.000000000000000000e+00,-2.000000000000000000e+00,-6.000000000000000000e+00,-3.000000000000000000e+00,2.000000000000000000e+00,-4.362182617187500000e-01,2.565917968750000000e-01,6.622314453125000000e-01,5.524902343750000000e-01
-5.000000000000000000e+00,2.000000000000000000e+00,-3.000000000000000000e+00,3.000000000000000000e+00,-1.000000000000000000e+00,0.000000000000000000e+00,6.000000000000000000e+00,-1.000000000000000000e+00,-4.362182617187500000e-01,2.565917968750000000e-01,6.622314453125000000e-01,5.524902343750000000e-01
1.000000000000000000e+00,-4.000000000000000000e+00,1.000000000000000000e+00,-3.000000000000000000e+00,-4.000000000000000000e+00,0.000000000000000000e+00,-3.000000000000000000e+00,-3.000000000000000000e+00,-4.362182617187500000e-01,2.565917968750000000e-01,6.622314453125000000e-01,5.524902343750000000e-01
3.000000000000000000e+00,-1.000000000000000000e+00,1.000000000000000000e+00,9.000000000000000000e+00,2.000000000000000000e+00,-1.000000000000000000e+00,-2.000000000000000000e+00,-1.000000000000000000e+00,-4.362792968750000000e-01,2.566528320312500000e-01,6.621093750000000000e-01,5.525512695312500000e-01
2.000000000000000000e+00,8.000000000000000000e+00,1.000000000000000000e+00,-1.100000000000000000e+01,-6.000000000000000000e+00,2.000000000000000000e+00,-2.000000000000000000e+00,-1.000000000000000000e+00,-4.362792968750000000e-01,2.566528320312500000e-01,6.621093750000000000e-01,5.525512695312500000e-01
-1.100000000000000000e+01,-2.000000000000000000e+00,-4.000000000000000000e+00,1.300000000000000000e+01,2.000000000000000000e+00,-4.000000000000000000e+00,1.000000000000000000e+00,-7.000000000000000000e+00,-4.362792968750000000e-01,2.566528320312500000e-01,6.621093750000000000e-01,5.525512695312500000e-01
1.900000000000000000e+01,0.000000000000000000e+00,-1.000000000000000000e+00,5.000000000000000000e+00,3.000000000000000000e+00,4.000000000000000000e+00,-1.400000000000000000e+01,2.000000000000000000e+00,-4.362792968750000000e-01,2.566528320312500000e-01,6.621093750000000000e-01,5.525512695312500000e-01
-1.500000000000000000e+01,-1.000000000000000000e+00,5.000000000000000000e+00,-1.000000000000000000e+01,-5.000000000000000000e+00,-5.000000000000000000e+00,-4.000000000000000000e+00,5.000000000000000000e+00,-4.362182617187500000e-01,2.565307617187500000e-01,6.620483398437500000e-01,5.526733398437500000e-01
1.200000000000000000e+01,0.000000000000000000e+00,-4.000000000000000000e+00,-2.000000000000000000e+00,-1.000000000000000000e+00,1.000000000000000000e+00,9.000000000000000000e+00,-1.000000000000000000e+00,-4.362182617187500000e-01,2.565307617187500000e-01,6.620483398437500000e-01,5.526733398437500000e-01
-1.400000000000000000e+01,-3.000000000000000000e+00,8.000000000000000000e+00,3.000000000000000000e+00,-3.000000000000000000e+00,0.000000000000000000e+00,-7.000000000000000000e+00,-2.000000000000000000e+00,-4.362182617187500000e-01,2.565307617187500000e-01,6.620483398437500000e-01,5.526733398437500000e-01
7.000000000000000000e+00,-5.000000000000000000e+00,-1.200000000000000000e+01,-6.000000000000000000e+00,-4.000000000000000000e+00,-3.000000000000000000e+00,2.000000000000000000e+00,-8.000000000000000000e+00,-4.362182617187500000e-01,2.565307617187500000e-01,6.620483398437500000e-01,5.526733398437500000e-01
-2.000000000000000000e+00,-1.000000000000000000e+00,0.000000000000000000e+00,-6.000000000000000000e+00,-5.000000000000000000e+00,-5.000000000000000000e+00,-4.000000000000000000e+00,-2.000000000000000000e+00,-4.360961914062500000e-01,2.559814453125000000e-01,6.622314453125000000e-01,5.529174804687500000e-01
1.000000000000000000e+00,3.000000000000000000e+00,1.000000000000000000e+00,-6.000000000000000000e+00,-5.000000000000000000e+00,3.000000000000000000e+00,8.000000000000000000e+00,8.000000000000000000e+00,-4.360961914062500000e-01,2.559814453125000000e-01,6.622314453125000000e-01,5.529174804687500000e-01
5.000000000000000000e+00,-5.000000000000000000e+00,-6.000000000000000000e+00,-6.000000000000000000e+00,-4.000000000000000000e+00,-1.000000000000000000e+01,-8.000000000000000000e+00,3.000000000000000000e+00,-4.360961914062500000e-01,2.559814453125000000e-01,6.622314453125000000e-01,5.529174804687500000e-01
-1.000000000000000000e+00,-3.000000000000000000e+00,2.000000000000000000e+00,3.000000000000000000e+00,2.000000000000000000e+00,2.000000000000000000e+00,5.000000000000000000e+00,-8.000000000000000000e+00,-4.360961914062500000e-01,2.559814453125000000e-01,6.622314453125000000e-01,5.529174804687500000e-01
-9.000000000000000000e+00,0.000000000000000000e+00,-2.000000000000000000e+00,-1.100000000000000000e+01,-6.000000000000000000e+00,-6.000000000000000000e+00,-6.000000000000000000e+00,-5.000000000000000000e+00,-4.360961914062500000e-01,2.553100585937500000e-01,6.624145507812500000e-01,5.529785156250000000e-01
7.000000000000000000e+00,-3.000000000000000000e+00,-5.000000000000000000e+00,-6.000000000000000000e+00,-4.000000000000000000e+00,-4.000000000000000000e+00,-8.000000000000000000e+00,2.000000000000000000e+00,-4.360961914062500000e-01,2.553100585937500000e-01,6.624145507812500000e-01,5.529785156250000000e-01
-6.000000000000000000e+00,-1.000000000000000000e+00,1.000000000000000000e+00,7.000000000000000000e+00,-2.000000000000000000e+00,0.000000000000000000e+00,0.000000000000000000e+00,1.000000000000000000e+00,-4.360961914062500000e-01,2.553100585937500000e-01,6.624145507812500000e-01,5.529785156250000000e-01
-4.000000000000000000e+00,1.000000000000000000e+00,0.000000000000000000e+00,1.000000000000000000e+00,5.000000000000000000e+00,-7.000000000000000000e+00,-1.000000000000000000e+00,1.000000000000000000e+00,-4.360961914062500000e-01,2.553100585937500000e-01,6.624145507812500000e-01,5.529785156250000000e-01
-2.000000000000000000e+00,0.000000000000000000e+00,-4.000000000000000000e+00,-2.000000000000000000e+00,-4.000000000000000000e+00,3.000000000000000000e+00,-3.000000000000000000e+00,-2.000000000000000000e+00,-4.360351562500000000e-01,2.548828125000000000e-01,6.624755859375000000e-01,5.531005859375000000e-01
-6.000000000000000000e+00,-2.000000000000000000e+00,2.000000000000000000e+00,6.000000000000000000e+00,6.000000000000000000e+00,0.000000000000000000e+00,2.000000000000000000e+00,0.000000000000000000e+00,-4.360351562500000000e-01,2.548828125000000000e-01,6.624755859375000000e-01,5.531005859375000000e-01
7.000000000000000000e+00,0.000000000000000000e+00,0.000000000000000000e+00,-3.000000000000000000e+00,-3.000000000000000000e+00,3.000000000000000000e+00,5.000000000000000000e+00,1.000000000000000000e+00,-4.360351562500000000e-01,2.548828125000000000e-01,6.624755859375000000e-01,5.531005859375000000e-01
-1.500000000000000000e+01,-2.000000000000000000e+00,-3.000000000000000000e+00,4.000000000000000000e+00,-2.000000000000000000e+00,-2.000000000000000000e+00,-2.000000000000000000e+00,-2.000000000000000000e+00,-4.360351562500000000e-01,2.548828125000000000e-01,6.624755859375000000e-01,5.531005859375000000e-01
1.300000000000000000e+01,1.000000000000000000e+00,2.000000000000000000e+00,-8.000000000000000000e+00,-4.000000000000000000e+00,2.000000000000000000e+00,1.100000000000000000e+01,2.000000000000000000e+00,-4.355468750000000000e-01,2.554931640625000000e-01,6.622924804687500000e-01,5.534057617187500000e-01
-9.000000000000000000e+00,-7.000000000000000000e+00,1.000000000000000000e+00,5.000000000000000000e+00,-2.000000000000000000e+00,-1.000000000000000000e+00,-1.000000000000000000e+01,-3.000000000000000000e+00,-4.355468750000000000e-01,2.554931640625000000e-01,6.622924804687500000e-01,5.534057617187500000e-01
1.100000000000000000e+01,-2.000000000000000000e+00,-1.000000000000000000e+00,-1.000000000000000000e+00,2.000000000000000000e+00,-1.000000000000000000e+00,-1.000000000000000000e+00,3.000000000000000000e+00,-4.355468750000000000e-01,2.554931640625000000e-01,6.622924804687500000e-01,5.534057617187500000e-01
-2.200000000000000000e+01,-1.000000000000000000e+00,-3.000000000000000000e+00,-3.000000000000000000e+00,-4.000000000000000000e+00,0.000000000000000000e+00,1.100000000000000000e+01,-2.000000000000000000e+00,-4.355468750000000000e-01,2.554931640625000000e-01,6.622924804687500000e-01,5.534057617187500000e-01
1.600000000000000000e+01,1.000000000000000000e+00,-4.000000000000000000e+00,0.000000000000000000e+00,0.000000000000000000e+00,-4.000000000000000000e+00,-1.500000000000000000e+01,2.000000000000000000e+00,-4.354248046875000000e-01,2.556762695312500000e-01,6.621093750000000000e-01,5.536499023437500000e-01
-1.000000000000000000e+00,-1.000000000000000000e+00,-2.000000000000000000e+00,1.000000000000000000e+00,4.000000000000000000e+00,-4.000000000000000000e+00,-4.000000000000000000e+00,-3.000000000000000000e+00,-4.354248046875000000e-01,2.556762695312500000e-01,6.621093750000000000e-01,5.536499023437500000e-01
