-3.000000000000000000e+00,-9.000000000000000000e+00,-1.000000000000000000e+01,-5.000000000000000000e+00,-5.000000000000000000e+00,-3.000000000000000000e+00,2.000000000000000000e+00,-3.000000000000000000e+00,-4.057006835937500000e-01,-4.046630859375000000e-02,8.293457031250000000e-01,3.819580078125000000e-01
-1.000000000000000000e+00,5.000000000000000000e+00,2.000000000000000000e+00,1.500000000000000000e+01,1.100000000000000000e+01,1.000000000000000000e+00,-1.000000000000000000e+00,1.000000000000000000e+00,-4.057006835937500000e-01,-4.046630859375000000e-02,8.293457031250000000e-01,3.819580078125000000e-01
-1.000000000000000000e+00,2.000000000000000000e+00,1.500000000000000000e+01,-1.700000000000000000e+01,-7.000000000000000000e+00,-1.000000000000000000e+00,1.000000000000000000e+00,0.000000000000000000e+00,-4.055786132812500000e-01,-4.071044921875000000e-02,8.294677734375000000e-01,3.817138671875000000e-01
-3.000000000000000000e+00,-4.000000000000000000e+00,7.000000000000000000e+00,3.000000000000000000e+00,-2.000000000000000000e+00,-5.000000000000000000e+00,-6.000000000000000000e+00,-3.000000000000000000e+00,-4.055786132812500000e-01,-4.071044921875000000e-02,8.294677734375000000e-01,3.817138671875000000e-01
1.000000000000000000e+00,2.000000000000000000e+00,2.300000000000000000e+01,7.000000000000000000e+00,-9.000000000000000000e+00,-6.000000000000000000e+00,-4.000000000000000000e+00,-1.000000000000000000e+00,-4.055786132812500000e-01,-4.071044921875000000e-02,8.294677734375000000e-01,3.817138671875000000e-01
-4.000000000000000000e+00,-4.000000000000000000e+00,-4.000000000000000000e+00,-1.300000000000000000e+01,-1.000000000000000000e+00,-1.000000000000000000e+00,-1.000000000000000000e+00,-2.000000000000000000e+00,-4.055786132812500000e-01,-4.071044921875000000e-02,8.294677734375000000e-01,3.817138671875000000e-01
3.000000000000000000e+00,-2.000000000000000000e+00,-1.800000000000000000e+01,1.400000000000000000e+01,7.000000000000000000e+00,-2.000000000000000000e+00,-3.000000000000000000e+00,1.000000000000000000e+00,-4.052734375000000000e-01,-4.040527343750000000e-02,8.297119140625000000e-01,3.815917968750000000e-01
3.000000000000000000e+00,4.000000000000000000e+00,2.400000000000000000e+01,1.000000000000000000e+01,9.000000000000000000e+00,1.500000000000000000e+01,5.000000000000000000e+00,0.000000000000000000e+00,-4.052734375000000000e-01,-4.040527343750000000e-02,8.297119140625000000e-01,3.815917968750000000e-01
-6.000000000000000000e+00,-8.000000000000000000e+00,-3.000000000000000000e+01,-1.100000000000000000e+01,-1.200000000000000000e+01,-4.000000000000000000e+00,1.000000000000000000e+00,-3.000000000000000000e+00,-4.052734375000000000e-01,-4.040527343750000000e-02,8.297119140625000000e-01,3.815917968750000000e-01
0.000000000000000000e+00,-4.000000000000000000e+00,1.300000000000000000e+01,2.000000000000000000e+00,6.000000000000000000e+00,-5.000000000000000000e+00,-5.000000000000000000e+00,-3.000000000000000000e+00,-4.052734375000000000e-01,-4.040527343750000000e-02,8.297119140625000000e-01,3.815917968750000000e-01
-3.000000000000000000e+00,1.000000000000000000e+00,5.000000000000000000e+00,-1.700000000000000000e+01,-1.100000000000000000e+01,-3.000000000000000000e+00,-2.000000000000000000e+00,-4.000000000000000000e+00,-4.052734375000000000e-01,-4.040527343750000000e-02,8.297729492187500000e-01,3.815917968750000000e-01
2.000000000000000000e+00,3.000000000000000000e+00,1.400000000000000000e+01,-6.000000000000000000e+00,-8.000000000000000000e+00,-2.300000000000000000e+01,-1.000000000000000000e+01,-3.000000000000000000e+00,-4.052734375000000000e-01,-4.040527343750000000e-02,8.297729492187500000e-01,3.815917968750000000e-01
-2.000000000000000000e+00,4.000000000000000000e+00,1.300000000000000000e+01,1.000000000000000000e+00,2.000000000000000000e+00,1.600000000000000000e+01,3.000000000000000000e+00,1.000000000000000000e+00,-4.052734375000000000e-01,-4.040527343750000000e-02,8.297729492187500000e-01,3.815917968750000000e-01
-3.000000000000000000e+00,-2.000000000000000000e+00,-1.700000000000000000e+01,1.000000000000000000e+00,0.000000000000000000e+00,-3.000000000000000000e+00,3.000000000000000000e+00,-2.000000000000000000e+00,-4.052734375000000000e-01,-4.040527343750000000e-02,8.297729492187500000e-01,3.815917968750000000e-01
0.000000000000000000e+00,-2.000000000000000000e+00,4.000000000000000000e+01,4.000000000000000000e+00,-1.000000000000000000e+00,5.000000000000000000e+00,6.000000000000000000e+00,1.000000000000000000e+00,-4.050292968750000000e-01,-4.046630859375000000e-02,8.298950195312500000e-01,3.814697265625000000e-01
-2.000000000000000000e+00,-1.800000000000000000e+01,-5.500000000000000000e+01,-7.000000000000000000e+00,4.000000000000000000e+00,-3.000000000000000000e+00,-8.000000000000000000e+00,-2.000000000000000000e+00,-4.050292968750000000e-01,-4.046630859375000000e-02,8.298950195312500000e-01,3.814697265625000000e-01
0.000000000000000000e+00,4.000000000000000000e+00,-1.900000000000000000e+01,8.000000000000000000e+00,0.000000000000000000e+00,-5.000000000000000000e+00,-1.000000000000000000e+00,-2.000000000000000000e+00,-4.050292968750000000e-01,-4.046630859375000000e-02,8.298950195312500000e-01,3.814697265625000000e-01
2.000000000000000000e+00,5.000000000000000000e+00,2.800000000000000000e+01,-1.000000000000000000e+01,7.000000000000000000e+00,-3.000000000000000000e+00,-3.000000000000000000e+00,-1.000000000000000000e+00,-4.050292968750000000e-01,-4.046630859375000000e-02,8.298950195312500000e-01,3.814697265625000000e-01
-6.000000000000000000e+00,-1.300000000000000000e+01,-5.800000000000000000e+01,1.100000000000000000e+01,-1.000000000000000000e+00,2.000000000000000000e+00,-2.000000000000000000e+00,-2.000000000000000000e+00,-4.051513671875000000e-01,-4.052734375000000000e-02,8.299560546875000000e-01,3.811645507812500000e-01
2.000000000000000000e+00,8.000000000000000000e+00,4.900000000000000000e+01,8.000000000000000000e+00,-3.000000000000000000e+00,-5.000000000000000000e+00,0.000000000000000000e+00,-1.000000000000000000e+00,-4.051513671875000000e-01,-4.052734375000000000e-02,8.299560546875000000e-01,3.811645507812500000e-01
-1.000000000000000000e+00,0.000000000000000000e+00,5.000000000000000000e+00,-4.000000000000000000e+00,-7.000000000000000000e+00,-6.000000000000000000e+00,-2.000000000000000000e+00,0.000000000000000000e+00,-4.051513671875000000e-01,-4.052734375000000000e-02,8.299560546875000000e-01,3.811645507812500000e-01
-1.000000000000000000e+00,0.000000000000000000e+00,-1.800000000000000000e+01,-1.400000000000000000e+01,-1.100000000000000000e+01,-3.000000000000000000e+00,-3.000000000000000000e+00,-1.000000000000000000e+00,-4.051513671875000000e-01,-4.052734375000000000e-02,8.299560546875000000e-01,3.811645507812500000e-01
1.000000000000000000e+00,4.000000000000000000e+00,2.500000000000000000e+01,2.000000000000000000e+00,1.300000000000000000e+01,4.000000000000000000e+00,5.000000000000000000e+00,0.000000000000000000e+00,-4.052124023437500000e-01,-4.022216796875000000e-02,8.300781250000000000e-01,3.809204101562500000e-01
-1.000000000000000000e+00,-1.000000000000000000e+00,-5.000000000000000000e+00,-1.000000000000000000e+00,-1.500000000000000000e+01,-2.000000000000000000e+00,-2.000000000000000000e+00,0.000000000000000000e+00,-4.052124023437500000e-01,-4.022216796875000000e-02,8.300781250000000000e-01,3.809204101562500000e-01
1.000000000000000000e+00,3.000000000000000000e+00,2.000000000000000000e+00,0.000000000000000000e+00,5.000000000000000000e+00,-8.000000000000000000e+00,-2.000000000000000000e+00,0.000000000000000000e+00,-4.052124023437500000e-01,-4.022216796875000000e-02,8.300781250000000000e-01,3.809204101562500000e-01
2.000000000000000000e+00,-7.000000000000000000e+00,3.000000000000000000e+00,1.100000000000000000e+01,2.000000000000000000e+00,4.000000000000000000e+00,0.000000000000000000e+00,-1.000000000000000000e+00,-4.052124023437500000e-01,-4.022216796875000000e-02,8.300781250000000000e-01,3.809204101562500000e-01
2.000000000000000000e+00,8.000000000000000000e+00,-1.900000000000000000e+01,-1.000000000000000000e+00,-1.100000000000000000e+01,-3.000000000000000000e+00,0.000000000000000000e+00,1.000000000000000000e+00,-4.049682617187500000e-01,-3.955078125000000000e-02,8.303222656250000000e-01,3.806762695312500000e-01
-6.000000000000000000e+00,-9.000000000000000000e+00,-2.900000000000000000e+01,-1.600000000000000000e+01,7.000000000000000000e+00,-2.000000000000000000e+00,-1.000000000000000000e+00,-1.000000000000000000e+00,-4.049682617187500000e-01,-3.955078125000000000e-02,8.303222656250000000e-01,3.806762695312500000e-01
0.000000000000000000e+00,1.000000000000000000e+00,1.500000000000000000e+01,-1.000000000000000000e+00,-7.000000000000000000e+00,2.000000000000000000e+00,-1.000000000000000000e+00,-1.000000000000000000e+00,-4.049682617187500000e-01,-3.955078125000000000e-02,8.303222656250000000e-01,3.806762695312500000e-01
-2.000000000000000000e+00,6.000000000000000000e+00,6.900000000000000000e+01,1.000000000000000000e+01,3.000000000000000000e+00,5.000000000000000000e+00,2.000000000000000000e+00,0.000000000000000000e+00,-4.049682617187500000e-01,-3.955078125000000000e-02,8.303222656250000000e-01,3.806762695312500000e-01
-8.000000000000000000e+00,-3.300000000000000000e+01,-1.050000000000000000e+02,-2.800000000000000000e+01,-1.000000000000000000e+01,-9.000000000000000000e+00,-5.000000000000000000e+00,-3.000000000000000000e+00,-4.049682617187500000e-01,-3.942871093750000000e-02,8.305664062500000000e-01,3.801879882812500000e-01
5.000000000000000000e+00,1.600000000000000000e+01,5.000000000000000000e+01,1.200000000000000000e+01,7.000000000000000000e+00,-4.000000000000000000e+00,-6.000000000000000000e+00,0.000000000000000000e+00,-4.049682617187500000e-01,-3.942871093750000000e-02,8.305664062500000000e-01,3.801879882812500000e-01
-3.000000000000000000e+00,-1.000000000000000000e+00,-1.000000000000000000e+00,0.000000000000000000e+00,-1.000000000000000000e+00,-5.000000000000000000e+00,0.000000000000000000e+00,-2.000000000000000000e+00,-4.049682617187500000e-01,-3.942871093750000000e-02,8.305664062500000000e-01,3.801879882812500000e-01
2.000000000000000000e+00,-5.000000000000000000e+00,1.100000000000000000e+01,9.000000000000000000e+00,0.000000000000000000e+00,1.100000000000000000e+01,0.000000000000000000e+00,0.000000000000000000e+00,-4.049682617187500000e-01,-3.942871093750000000e-02,8.305664062500000000e-01,3.801879882812500000e-01
0.000000000000000000e+00,1.200000000000000000e+01,2.100000000000000000e+01,4.000000000000000000e+00,-5.000000000000000000e+00,-4.000000000000000000e+00,-1.000000000000000000e+00,-2.000000000000000000e+00,-4.051513671875000000e-01,-3.948974609375000000e-02,8.305664062500000000e-01,3.800048828125000000e-01
0.000000000000000000e+00,-3.000000000000000000e+00,-7.100000000000000000e+01,-3.000000000000000000e+00,2.000000000000000000e+00,8.000000000000000000e+00,4.000000000000000000e+00,0.000000000000000000e+00,-4.051513671875000000e-01,-3.948974609375000000e-02,8.305664062500000000e-01,3.800048828125000000e-01
0.000000000000000000e+00,0.000000000000000000e+00,2.400000000000000000e+01,-5.000000000000000000e+00,-5.000000000000000000e+00,-9.000000000000000000e+00,-2.000000000000000000e+00,0.000000000000000000e+00,-4.051513671875000000e-01,-3.948974609375000000e-02,8.305664062500000000e-01,3.800048828125000000e-01
-4.000000000000000000e+00,-5.000000000000000000e+00,-4.200000000000000000e+01,-1.300000000000000000e+01,-2.000000000000000000e+00,-2.000000000000000000e+00,-6.000000000000000000e+00,0.000000000000000000e+00,-4.051513671875000000e-01,-3.948974609375000000e-02,8.305664062500000000e-01,3.800048828125000000e-01
3.000000000000000000e+00,3.000000000000000000e+00,4.400000000000000000e+01,2.800000000000000000e+01,3.000000000000000000e+00,5.000000000000000000e+00,1.000000000000000000e+00,-1.000000000000000000e+00,-4.052734375000000000e-01,-3.948974609375000000e-02,8.305664062500000000e-01,3.799438476562500000e-01
-4.000000000000000000e+00,-1.000000000000000000e+01,-2.400000000000000000e+01,-1.200000000000000000e+01,-6.000000000000000000e+00,-1.000000000000000000e+01,-2.000000000000000000e+00,-3.000000000000000000e+00,-4.052734375000000000e-01,-3.948974609375000000e-02,8.305664062500000000e-01,3.799438476562500000e-01
-2.000000000000000000e+00,1.000000000000000000e+00,2.200000000000000000e+01,1.500000000000000000e+01,2.000000000000000000e+00,5.000000000000000000e+00,-1.000000000000000000e+00,-2.000000000000000000e+00,-4.052734375000000000e-01,-3.948974609375000000e-02,8.305664062500000000e-01,3.799438476562500000e-01
4.000000000000000000e+00,4.000000000000000000e+00,7.000000000000000000e+00,-1.600000000000000000e+01,0.000000000000000000e+00,-3.000000000000000000e+00,2.000000000000000000e+00,1.000000000000000000e+00,-4.052734375000000000e-01,-3.948974609375000000e-02,8.305664062500000000e-01,3.799438476562500000e-01
-3.000000000000000000e+00,-5.000000000000000000e+00,-1.700000000000000000e+01,-3.000000000000000000e+00,-1.100000000000000000e+01,-3.000000000000000000e+00,0.000000000000000000e+00,0.000000000000000000e+00,-4.052124023437500000e-01,-3.924560546875000000e-02,8.305053710937500000e-01,3.800659179687500000e-01
3.000000000000000000e+00,4.000000000000000000e+00,4.000000000000000000e+00,-6.000000000000000000e+00,9.000000000000000000e+00,1.000000000000000000e+00,0.000000000000000000e+00,0.000000000000000000e+00,-4.052124023437500000e-01,-3.924560546875000000e-02,8.305053710937500000e-01,3.800659179687500000e-01
1.000000000000000000e+00,1.000000000000000000e+00,6.000000000000000000e+00,-1.000000000000000000e+00,-2.000000000000000000e+00,-1.000000000000000000e+00,3.000000000000000000e+00,1.000000000000000000e+00,-4.052124023437500000e-01,-3.924560546875000000e-02,8.305053710937500000e-01,3.800659179687500000e-01
-9.000000000000000000e+00,-1.700000000000000000e+01,-1.200000000000000000e+01,-2.000000000000000000e+00,8.000000000000000000e+00,-6.000000000000000000e+00,-4.000000000000000000e+00,-2.000000000000000000e+00,-4.052124023437500000e-01,-3.924560546875000000e-02,8.305053710937500000e-01,3.800659179687500000e-01
-1.000000000000000000e+00,-2.000000000000000000e+00,1.200000000000000000e+01,-6.000000000000000000e+00,3.000000000000000000e+00,7.000000000000000000e+00,-2.000000000000000000e+00,-1.000000000000000000e+00,-4.052124023437500000e-01,-3.924560546875000000e-02,8.305053710937500000e-01,3.800659179687500000e-01
3.000000000000000000e+00,6.000000000000000000e+00,3.300000000000000000e+01,1.200000000000000000e+01,-8.000000000000000000e+00,0.000000000000000000e+00,-2.000000000000000000e+00,-1.000000000000000000e+00,-4.052124023437500000e-01,-3.924560546875000000e-02,8.305053710937500000e-01,3.800659179687500000e-01
1.000000000000000000e+00,0.000000000000000000e+00,-1.400000000000000000e+01,-1.100000000000000000e+01,-1.000000000000000000e+00,-1.000000000000000000e+00,1.000000000000000000e+00,0.000000000000000000e+00,-4.052124023437500000e-01,-3.924560546875000000e-02,8.305053710937500000e-01,3.800659179687500000e-01
-1.000000000000000000e+00,-3.000000000000000000e+00,-1.300000000000000000e+01,-2.500000000000000000e+01,-2.100000000000000000e+01,-1.500000000000000000e+01,-6.000000000000000000e+00,-1.000000000000000000e+00,-4.052124023437500000e-01,-3.924560546875000000e-02,8.305053710937500000e-01,3.800659179687500000e-01
1.000000000000000000e+00,-3.000000000000000000e+00,-3.000000000000000000e+00,3.000000000000000000e+01,2.400000000000000000e+01,5.000000000000000000e+00,3.000000000000000000e+00,0.000000000000000000e+00,-4.048461914062500000e-01,-3.942871093750000000e-02,8.307495117187500000e-01,3.800048828125000000e-01
-1.000000000000000000e+00,1.000000000000000000e+00,7.000000000000000000e+00,5.000000000000000000e+00,-2.000000000000000000e+00,5.000000000000000000e+00,1.000000000000000000e+00,-1.000000000000000000e+00,-4.048461914062500000e-01,-3.942871093750000000e-02,8.307495117187500000e-01,3.800048828125000000e-01
1.000000000000000000e+00,-1.000000000000000000e+01,-1.200000000000000000e+01,-8.000000000000000000e+00,-2.000000000000000000e+00,-3.000000000000000000e+00,-4.000000000000000000e+00,-1.000000000000000000e+00,-4.048461914062500000e-01,-3.942871093750000000e-02,8.307495117187500000e-01,3.800048828125000000e-01
-2.000000000000000000e+00,-3.000000000000000000e+00,-1.300000000000000000e+01,2.000000000000000000e+00,-3.000000000000000000e+00,-1.100000000000000000e+01,-6.000000000000000000e+00,-3.000000000000000000e+00,-4.048461914062500000e-01,-3.942871093750000000e-02,8.307495117187500000e-01,3.800048828125000000e-01
-1.000000000000000000e+00,1.000000000000000000e+01,2.300000000000000000e+01,4.000000000000000000e+00,-1.000000000000000000e+00,2.000000000000000000e+00,0.000000000000000000e+00,-2.000000000000000000e+00,-4.047851562500000000e-01,-3.991699218750000000e-02,8.308715820312500000e-01,3.797607421875000000e-01
-8.000000000000000000e+00,-1.800000000000000000e+01,2.600000000000000000e+01,-2.100000000000000000e+01,-1.500000000000000000e+01,1.000000000000000000e+00,1.000000000000000000e+01,-1.000000000000000000e+00,-4.047851562500000000e-01,-3.991699218750000000e-02,8.308715820312500000e-01,3.797607421875000000e-01
-1.000000000000000000e+00,-1.000000000000000000e+00,-5.700000000000000000e+01,-4.000000000000000000e+00,1.300000000000000000e+01,-2.000000000000000000e+00,-5.000000000000000000e+00,-1.000000000000000000e+00,-4.047851562500000000e-01,-3.991699218750000000e-02,8.308715820312500000e-01,3.797607421875000000e-01
-1.000000000000000000e+00,5.000000000000000000e+00,-1.400000000000000000e+01,9.000000000000000000e+00,5.000000000000000000e+00,9.000000000000000000e+00,3.000000000000000000e+00,-1.000000000000000000e+00,-4.047851562500000000e-01,-3.991699218750000000e-02,8.308715820312500000e-01,3.797607421875000000e-01
0.000000000000000000e+00,-1.000000000000000000e+00,9.000000000000000000e+00,-1.100000000000000000e+01,-1.000000000000000000e+00,-3.000000000000000000e+00,-4.000000000000000000e+00,-1.000000000000000000e+00,-4.048461914062500000e-01,-4.040527343750000000e-02,8.308715820312500000e-01,3.795166015625000000e-01
4.000000000000000000e+00,1.300000000000000000e+01,4.800000000000000000e+01,2.300000000000000000e+01,7.000000000000000000e+00,-3.000000000000000000e+00,-5.000000000000000000e+00,-1.000000000000000000e+00,-4.048461914062500000e-01,-4.040527343750000000e-02,8.308715820312500000e-01,3.795166015625000000e-01
-5.000000000000000000e+00,-8.000000000000000000e+00,-3.200000000000000000e+01,-2.300000000000000000e+01,-1.300000000000000000e+01,-4.000000000000000000e+00,-1.000000000000000000e+00,-3.000000000000000000e+00,-4.048461914062500000e-01,-4.040527343750000000e-02,8.308715820312500000e-01,3.795166015625000000e-01
0.000000000000000000e+00,-2.000000000000000000e+00,-1.800000000000000000e+01,1.500000000000000000e+01,-1.000000000000000000e+00,2.000000000000000000e+00,4.000000000000000000e+00,2.000000000000000000e+00,-4.048461914062500000e-01,-4.040527343750000000e-02,8.308715820312500000e-01,3.795166015625000000e-01
1.000000000000000000e+00,4.000000000000000000e+00,2.300000000000000000e+01,-1.600000000000000000e+01,2.000000000000000000e+00,-1.000000000000000000e+00,1.000000000000000000e+00,0.000000000000000000e+00,-4.048461914062500000e-01,-4.052734375000000000e-02,8.308715820312500000e-01,3.795166015625000000e-01
-1.000000000000000000e+00,-1.000000000000000000e+00,1.200000000000000000e+01,1.500000000000000000e+01,-1.000000000000000000e+00,0.000000000000000000e+00,-1.000000000000000000e+00,-1.000000000000000000e+00,-4.048461914062500000e-01,-4.052734375000000000e-02,8.308715820312500000e-01,3.795166015625000000e-01
4.000000000000000000e+00,0.000000000000000000e+00,-1.000000000000000000e+00,-4.000000000000000000e+00,-5.000000000000000000e+00,-4.000000000000000000e+00,0.000000000000000000e+00,-1.000000000000000000e+00,-4.048461914062500000e-01,-4.052734375000000000e-02,8.308715820312500000e-01,3.795166015625000000e-01
0.000000000000000000e+00,9.000000000000000000e+00,0.000000000000000000e+00,3.000000000000000000e+00,-3.000000000000000000e+00,-2.000000000000000000e+00,-2.000000000000000000e+00,-3.000000000000000000e+00,-4.048461914062500000e-01,-4.052734375000000000e-02,8.308715820312500000e-01,3.795166015625000000e-01
-1.000000000000000000e+01,-1.200000000000000000e+01,-1.300000000000000000e+01,-1.500000000000000000e+01,-4.000000000000000000e+00,-2.000000000000000000e+00,0.000000000000000000e+00,-1.000000000000000000e+00,-4.044189453125000000e-01,-4.028320312500000000e-02,8.309936523437500000e-01,3.797607421875000000e-01
3.000000000000000000e+00,1.000000000000000000e+00,-1.800000000000000000e+01,-6.000000000000000000e+00,1.000000000000000000e+00,1.000000000000000000e+01,2.000000000000000000e+00,0.000000000000000000e+00,-4.044189453125000000e-01,-4.028320312500000000e-02,8.309936523437500000e-01,3.797607421875000000e-01
-2.000000000000000000e+00,0.000000000000000000e+00,9.000000000000000000e+00,2.100000000000000000e+01,0.000000000000000000e+00,-4.000000000000000000e+00,-3.000000000000000000e+00,-3.000000000000000000e+00,-4.044189453125000000e-01,-4.028320312500000000e-02,8.309936523437500000e-01,3.797607421875000000e-01
-3.000000000000000000e+00,-1.000000000000000000e+01,-9.000000000000000000e+00,4.000000000000000000e+00,9.000000000000000000e+00,-1.000000000000000000e+00,-1.000000000000000000e+00,-3.000000000000000000e+00,-4.044189453125000000e-01,-4.028320312500000000e-02,8.309936523437500000e-01,3.797607421875000000e-01
0.000000000000000000e+00,5.000000000000000000e+00,3.000000000000000000e+00,-1.000000000000000000e+01,-5.000000000000000000e+00,-2.000000000000000000e+00,-2.000000000000000000e+00,-1.000000000000000000e+00,-4.040527343750000000e-01,-4.010009765625000000e-02,8.311767578125000000e-01,3.797607421875000000e-01
0.000000000000000000e+00,0.000000000000000000e+00,5.000000000000000000e+00,-1.100000000000000000e+01,1.000000000000000000e+00,-3.000000000000000000e+00,-1.000000000000000000e+00,-1.000000000000000000e+00,-4.040527343750000000e-01,-4.010009765625000000e-02,8.311767578125000000e-01,3.797607421875000000e-01
1.000000000000000000e+00,7.000000000000000000e+00,1.600000000000000000e+01,4.000000000000000000e+00,-1.100000000000000000e+01,-7.000000000000000000e+00,-7.000000000000000000e+00,-1.000000000000000000e+00,-4.040527343750000000e-01,-4.010009765625000000e-02,8.311767578125000000e-01,3.797607421875000000e-01
-1.000000000000000000e+00,-1.300000000000000000e+01,-1.000000000000000000e+00,7.000000000000000000e+00,7.000000000000000000e+00,8.000000000000000000e+00,7.000000000000000000e+00,0.000000000000000000e+00,-4.040527343750000000e-01,-4.010009765625000000e-02,8.311767578125000000e-01,3.797607421875000000e-01
1.000000000000000000e+00,1.000000000000000000e+00,-4.000000000000000000e+01,-1.000000000000000000e+01,-4.000000000000000000e+00,0.000000000000000000e+00,0.000000000000000000e+00,-1.000000000000000000e+00,-4.038085937500000000e-01,-4.034423828125000000e-02,8.313598632812500000e-01,3.795166015625000000e-01
-3.000000000000000000e+00,-5.000000000000000000e+00,-3.400000000000000000e+01,-9.000000000000000000e+00,-5.000000000000000000e+00,-3.000000000000000000e+00,-4.000000000000000000e+00,0.000000000000000000e+00,-4.038085937500000000e-01,-4.034423828125000000e-02,8.313598632812500000e-01,3.795166015625000000e-01
-3.000000000000000000e+00,1.000000000000000000e+00,4.900000000000000000e+01,1.000000000000000000e+01,2.000000000000000000e+00,-4.000000000000000000e+00,-2.000000000000000000e+00,-3.000000000000000000e+00,-4.038085937500000000e-01,-4.034423828125000000e-02,8.313598632812500000e-01,3.795166015625000000e-01
1.000000000000000000e+00,2.000000000000000000e+00,8.000000000000000000e+00,4.000000000000000000e+00,-5.000000000000000000e+00,-1.000000000000000000e+00,-2.000000000000000000e+00,0.000000000000000000e+00,-4.038085937500000000e-01,-4.034423828125000000e-02,8.313598632812500000e-01,3.795166015625000000e-01
3.000000000000000000e+00,6.000000000000000000e+00,7.000000000000000000e+01,2.000000000000000000e+01,4.000000000000000000e+00,-2.000000000000000000e+00,1.000000000000000000e+00,1.000000000000000000e+00,-4.039306640625000000e-01,-4.095458984375000000e-02,8.314208984375000000e-01,3.793334960937500000e-01
1.000000000000000000e+00,-4.000000000000000000e+00,-7.300000000000000000e+01,-2.000000000000000000e+01,0.000000000000000000e+00,2.000000000000000000e+00,0.000000000000000000e+00,2.000000000000000000e+00,-4.039306640625000000e-01,-4.095458984375000000e-02,8.314208984375000000e-01,3.793334960937500000e-01
-5.000000000000000000e+00,-1.400000000000000000e+01,-3.300000000000000000e+01,-1.300000000000000000e+01,-9.000000000000000000e+00,-2.000000000000000000e+00,-2.000000000000000000e+00,-1.000000000000000000e+00,-4.039306640625000000e-01,-4.095458984375000000e-02,8.314208984375000000e-01,3.793334960937500000e-01
0.000000000000000000e+00,4.000000000000000000e+00,7.000000000000000000e+00,-3.000000000000000000e+00,-3.000000000000000000e+00,-5.000000000000000000e+00,-3.000000000000000000e+00,-1.000000000000000000e+00,-4.039306640625000000e-01,-4.095458984375000000e-02,8.314208984375000000e-01,3.793334960937500000e-01
-1.000000000000000000e+00,1.000000000000000000e+00,9.000000000000000000e+00,2.000000000000000000e+00,-3.000000000000000000e+00,2.000000000000000000e+00,0.000000000000000000e+00,1.000000000000000000e+00,-4.039306640625000000e-01,-4.101562500000000000e-02,8.313598632812500000e-01,3.793945312500000000e-01
-1.000000000000000000e+00,5.000000000000000000e+00,2.900000000000000000e+01,9.000000000000000000e+00,0.000000000000000000e+00,-1.000000000000000000e+00,0.000000000000000000e+00,-2.000000000000000000e+00,-4.039306640625000000e-01,-4.101562500000000000e-02,8.313598632812500000e-01,3.793945312500000000e-01
-1.000000000000000000e+00,2.000000000000000000e+00,1.200000000000000000e+01,0.000000000000000000e+00,1.000000000000000000e+01,4.000000000000000000e+00,2.000000000000000000e+00,1.000000000000000000e+00,-4.039306640625000000e-01,-4.101562500000000000e-02,8.313598632812500000e-01,3.793945312500000000e-01
-2.000000000000000000e+00,-1.100000000000000000e+01,-4.200000000000000000e+01,-2.000000000000000000e+00,-3.000000000000000000e+00,-1.000000000000000000e+00,-1.000000000000000000e+01,-1.000000000000000000e+00,-4.039306640625000000e-01,-4.101562500000000000e-02,8.313598632812500000e-01,3.793945312500000000e-01
1.000000000000000000e+00,8.000000000000000000e+00,2.300000000000000000e+01,-5.000000000000000000e+00,0.000000000000000000e+00,-1.000000000000000000e+00,-2.000000000000000000e+00,-2.000000000000000000e+00,-4.035034179687500000e-01,-4.046630859375000000e-02,8.315429687500000000e-01,3.795776367187500000e-01
-1.000000000000000000e+00,-5.000000000000000000e+00,2.000000000000000000e+00,-3.000000000000000000e+00,-9.000000000000000000e+00,-7.000000000000000000e+00,1.000000000000000000e+00,-2.000000000000000000e+00,-4.035034179687500000e-01,-4.046630859375000000e-02,8.315429687500000000e-01,3.795776367187500000e-01
-3.000000000000000000e+00,-2.000000000000000000e+00,-7.000000000000000000e+00,4.000000000000000000e+00,7.000000000000000000e+00,4.000000000000000000e+00,1.000000000000000000e+00,0.000000000000000000e+00,-4.035034179687500000e-01,-4.046630859375000000e-02,8.315429687500000000e-01,3.795776367187500000e-01
1.000000000000000000e+00,0.000000000000000000e+00,6.000000000000000000e+00,2.000000000000000000e+00,8.000000000000000000e+00,4.000000000000000000e+00,7.000000000000000000e+00,0.000000000000000000e+00,-4.035034179687500000e-01,-4.046630859375000000e-02,8.315429687500000000e-01,3.795776367187500000e-01
1.000000000000000000e+01,5.000000000000000000e+00,-3.000000000000000000e+00,-1.000000000000000000e+01,-1.000000000000000000e+01,-2.000000000000000000e+00,0.000000000000000000e+00,0.000000000000000000e+00,-4.033203125000000000e-01,-4.028320312500000000e-02,8.315429687500000000e-01,3.796997070312500000e-01
-5.000000000000000000e+00,-3.000000000000000000e+00,4.000000000000000000e+00,7.000000000000000000e+00,3.000000000000000000e+00,-1.000000000000000000e+00,-6.000000000000000000e+00,-3.000000000000000000e+00,-4.033203125000000000e-01,-4.028320312500000000e-02,8.315429687500000000e-01,3.796997070312500000e-01
-9.000000000000000000e+00,-5.000000000000000000e+00,8.000000000000000000e+00,1.400000000000000000e+01,6.000000000000000000e+00,1.000000000000000000e+00,3.000000000000000000e+00,0.000000000000000000e+00,-4.033203125000000000e-01,-4.028320312500000000e-02,8.315429687500000000e-01,3.796997070312500000e-01
2.000000000000000000e+00,6.000000000000000000e+00,8.000000000000000000e+00,-4.000000000000000000e+00,-1.100000000000000000e+01,-4.000000000000000000e+00,0.000000000000000000e+00,0.000000000000000000e+00,-4.033203125000000000e-01,-4.028320312500000000e-02,8.315429687500000000e-01,3.796997070312500000e-01
0.000000000000000000e+00,1.000000000000000000e+00,-2.200000000000000000e+01,-1.000000000000000000e+00,-5.000000000000000000e+00,-4.000000000000000000e+00,-3.000000000000000000e+00,-3.000000000000000000e+00,-4.032592773437500000e-01,-4.022216796875000000e-02,8.316040039062500000e-01,3.796997070312500000e-01
2.000000000000000000e+00,1.000000000000000000e+00,1.400000000000000000e+01,-4.000000000000000000e+00,-4.000000000000000000e+00,-4.000000000000000000e+00,-1.000000000000000000e+00,-1.000000000000000000e+00,-4.032592773437500000e-01,-4.022216796875000000e-02,8.316040039062500000e-01,3.796997070312500000e-01
2.000000000000000000e+00,6.000000000000000000e+00,7.100000000000000000e+01,7.000000000000000000e+00,1.200000000000000000e+01,4.000000000000000000e+00,-1.000000000000000000e+00,0.000000000000000000e+00,-4.032592773437500000e-01,-4.022216796875000000e-02,8.316040039062500000e-01,3.796997070312500000e-01
-1.100000000000000000e+01,-2.800000000000000000e+01,-1.000000000000000000e+02,-2.300000000000000000e+01,-6.000000000000000000e+00,-5.000000000000000000e+00,-5.000000000000000000e+00,-4.000000000000000000e+00,-4.032592773437500000e-01,-4.022216796875000000e-02,8.316040039062500000e-01,3.796997070312500000e-01
-2.000000000000000000e+00,-3.000000000000000000e+00,9.000000000000000000e+00,-1.600000000000000000e+01,-4.000000000000000000e+00,-1.000000000000000000e+00,-3.000000000000000000e+00,-1.000000000000000000e+00,-4.033813476562500000e-01,-4.058837890625000000e-02,8.314819335937500000e-01,3.797607421875000000e-01
4.000000000000000000e+00,1.100000000000000000e+01,6.100000000000000000e+01,1.200000000000000000e+01,0.000000000000000000e+00,-5.000000000000000000e+00,-3.000000000000000000e+00,-1.000000000000000000e+00,-4.033813476562500000e-01,-4.058837890625000000e-02,8.314819335937500000e-01,3.797607421875000000e-01
-2.000000000000000000e+00,-1.300000000000000000e+01,-6.600000000000000000e+01,-1.100000000000000000e+01,-1.100000000000000000e+01,-1.000000000000000000e+00,0.000000000000000000e+00,-3.000000000000000000e+00,-4.033813476562500000e-01,-4.058837890625000000e-02,8.314819335937500000e-01,3.797607421875000000e-01
1.000000000000000000e+00,4.000000000000000000e+00,7.000000000000000000e+00,-5.000000000000000000e+00,-7.000000000000000000e+00,-7.000000000000000000e+00,-2.000000000000000000e+00,0.000000000000000000e+00,-4.033813476562500000e-01,-4.058837890625000000e-02,8.314819335937500000e-01,3.797607421875000000e-01
-4.000000000000000000e+00,-5.000000000000000000e+00,-8.000000000000000000e+00,1.800000000000000000e+01,1.500000000000000000e+01,4.000000000000000000e+00,3.000000000000000000e+00,-3.000000000000000000e+00,-4.034423828125000000e-01,-4.119873046875000000e-02,8.314208984375000000e-01,3.798217773437500000e-01
-2.000000000000000000e+00,4.000000000000000000e+00,3.100000000000000000e+01,-2.500000000000000000e+01,-1.300000000000000000e+01,-2.000000000000000000e+00,-3.000000000000000000e+00,-1.000000000000000000e+00,-4.034423828125000000e-01,-4.119873046875000000e-02,8.314208984375000000e-01,3.798217773437500000e-01
2.000000000000000000e+00,3.000000000000000000e+00,-1.100000000000000000e+01,-3.000000000000000000e+00,-2.000000000000000000e+00,-1.000000000000000000e+00,-1.000000000000000000e+00,0.000000000000000000e+00,-4.034423828125000000e-01,-4.119873046875000000e-02,8.314208984375000000e-01,3.798217773437500000e-01
2.000000000000000000e+00,2.000000000000000000e+00,3.000000000000000000e+00,2.100000000000000000e+01,-5.000000000000000000e+00,-6.000000000000000000e+00,-1.000000000000000000e+00,-3.000000000000000000e+00,-4.034423828125000000e-01,-4.119873046875000000e-02,8.314208984375000000e-01,3.798217773437500000e-01
-6.000000000000000000e+00,-4.000000000000000000e+00,-1.000000000000000000e+01,3.000000000000000000e+00,0.000000000000000000e+00,4.000000000000000000e+00,2.000000000000000000e+00,0.000000000000000000e+00,-4.032592773437500000e-01,-4.138183593750000000e-02,8.314208984375000000e-01,3.800048828125000000e-01
-1.000000000000000000e+00,-7.000000000000000000e+00,-1.900000000000000000e+01,-1.000000000000000000e+00,0.000000000000000000e+00,-1.000000000000000000e+00,0.000000000000000000e+00,0.000000000000000000e+00,-4.032592773437500000e-01,-4.138183593750000000e-02,8.314208984375000000e-01,3.800048828125000000e-01
3.000000000000000000e+00,5.000000000000000000e+00,1.400000000000000000e+01,4.000000000000000000e+00,-3.000000000000000000e+00,1.000000000000000000e+00,1.000000000000000000e+00,-1.000000000000000000e+00,-4.032592773437500000e-01,-4.138183593750000000e-02,8.314208984375000000e-01,3.800048828125000000e-01
1.000000000000000000e+00,3.000000000000000000e+00,1.000000000000000000e+00,-1.000000000000000000e+01,-1.000000000000000000e+00,-2.000000000000000000e+00,-4.000000000000000000e+00,0.000000000000000000e+00,-4.032592773437500000e-01,-4.138183593750000000e-02,8.314208984375000000e-01,3.800048828125000000e-01
-1.000000000000000000e+00,-1.000000000000000000e+00,6.000000000000000000e+00,1.000000000000000000e+01,2.000000000000000000e+00,2.000000000000000000e+00,0.000000000000000000e+00,0.000000000000000000e+00,-4.028320312500000000e-01,-4.132080078125000000e-02,8.314819335937500000e-01,3.802490234375000000e-01
0.000000000000000000e+00,3.000000000000000000e+00,1.000000000000000000e+00,7.000000000000000000e+00,1.300000000000000000e+01,1.000000000000000000e+00,0.000000000000000000e+00,0.000000000000000000e+00,-4.028320312500000000e-01,-4.132080078125000000e-02,8.314819335937500000e-01,3.802490234375000000e-01
-3.000000000000000000e+00,-7.000000000000000000e+00,-3.100000000000000000e+01,-1.900000000000000000e+01,-1.400000000000000000e+01,-2.000000000000000000e+00,-2.000000000000000000e+00,0.000000000000000000e+00,-4.028320312500000000e-01,-4.132080078125000000e-02,8.314819335937500000e-01,3.802490234375000000e-01
1.000000000000000000e+00,4.000000000000000000e+00,1.900000000000000000e+01,1.400000000000000000e+01,1.000000000000000000e+01,1.000000000000000000e+00,1.000000000000000000e+00,-2.000000000000000000e+00,-4.028320312500000000e-01,-4.132080078125000000e-02,8.314819335937500000e-01,3.802490234375000000e-01
-4.000000000000000000e+00,0.000000000000000000e+00,3.500000000000000000e+01,-9.000000000000000000e+00,-5.000000000000000000e+00,-3.000000000000000000e+00,-3.000000000000000000e+00,0.000000000000000000e+00,-4.025268554687500000e-01,-4.138183593750000000e-02,8.316650390625000000e-01,3.801879882812500000e-01
-1.000000000000000000e+00,1.000000000000000000e+00,-6.400000000000000000e+01,1.200000000000000000e+01,-2.000000000000000000e+00,-1.000000000000000000e+00,-9.000000000000000000e+00,2.000000000000000000e+00,-4.025268554687500000e-01,-4.138183593750000000e-02,8.316650390625000000e-01,3.801879882812500000e-01
1.000000000000000000e+00,-5.000000000000000000e+00,-3.900000000000000000e+01,-1.000000000000000000e+01,9.000000000000000000e+00,2.000000000000000000e+00,3.000000000000000000e+00,0.000000000000000000e+00,-4.025268554687500000e-01,-4.138183593750000000e-02,8.316650390625000000e-01,3.801879882812500000e-01
0.000000000000000000e+00,1.000000000000000000e+00,5.200000000000000000e+01,-7.000000000000000000e+00,-5.000000000000000000e+00,-2.000000000000000000e+00,0.000000000000000000e+00,0.000000000000000000e+00,-4.025268554687500000e-01,-4.138183593750000000e-02,8.316650390625000000e-01,3.801879882812500000e-01
-7.000000000000000000e+00,-1.000000000000000000e+00,-1.700000000000000000e+01,-4.000000000000000000e+00,0.000000000000000000e+00,-6.000000000000000000e+00,-9.000000000000000000e+00,-2.000000000000000000e+00,-4.024658203125000000e-01,-4.162597656250000000e-02,8.317871093750000000e-01,3.799438476562500000e-01
1.000000000000000000e+00,2.000000000000000000e+00,1.800000000000000000e+01,7.000000000000000000e+00,0.000000000000000000e+00,-2.000000000000000000e+00,5.000000000000000000e+00,-1.000000000000000000e+00,-4.024658203125000000e-01,-4.162597656250000000e-02,8.317871093750000000e-01,3.799438476562500000e-01
1.000000000000000000e+00,5.000000000000000000e+00,2.900000000000000000e+01,7.000000000000000000e+00,2.000000000000000000e+00,-1.000000000000000000e+00,-2.000000000000000000e+00,-2.000000000000000000e+00,-4.024658203125000000e-01,-4.162597656250000000e-02,8.317871093750000000e-01,3.799438476562500000e-01
1.000000000000000000e+00,1.000000000000000000e+00,-3.100000000000000000e+01,-2.300000000000000000e+01,-1.100000000000000000e+01,3.000000000000000000e+00,-1.000000000000000000e+00,1.000000000000000000e+00,-4.024658203125000000e-01,-4.162597656250000000e-02,8.317871093750000000e-01,3.799438476562500000e-01
1.000000000000000000e+00,-5.000000000000000000e+00,-9.000000000000000000e+00,-9.000000000000000000e+00,-3.000000000000000000e+00,-4.000000000000000000e+00,4.000000000000000000e+00,-2.000000000000000000e+00,-4.028930664062500000e-01,-4.205322265625000000e-02,8.316650390625000000e-01,3.797607421875000000e-01
-1.000000000000000000e+00,-1.000000000000000000e+00,6.000000000000000000e+00,-2.000000000000000000e+00,-5.000000000000000000e+00,-1.000000000000000000e+00,1.000000000000000000e+00,-3.000000000000000000e+00,-4.028930664062500000e-01,-4.205322265625000000e-02,8.316650390625000000e-01,3.797607421875000000e-01
2.000000000000000000e+00,6.000000000000000000e+00,5.000000000000000000e+00,1.100000000000000000e+01,1.400000000000000000e+01,3.000000000000000000e+00,3.000000000000000000e+00,0.000000000000000000e+00,-4.028930664062500000e-01,-4.205322265625000000e-02,8.316650390625000000e-01,3.797607421875000000e-01
2.000000000000000000e+00,5.000000000000000000e+00,2.000000000000000000e+01,-2.000000000000000000e+00,1.000000000000000000e+01,9.000000000000000000e+00,4.000000000000000000e+00,2.000000000000000000e+00,-4.028930664062500000e-01,-4.205322265625000000e-02,8.316650390625000000e-01,3.797607421875000000e-01
-2.000000000000000000e+00,-9.000000000000000000e+00,-6.000000000000000000e+00,1.100000000000000000e+01,-9.000000000000000000e+00,-9.000000000000000000e+00,-4.000000000000000000e+00,-1.000000000000000000e+00,-4.027709960937500000e-01,-4.168701171875000000e-02,8.316650390625000000e-01,3.800048828125000000e-01
-2.000000000000000000e+00,-4.000000000000000000e+00,-1.400000000000000000e+01,-1.000000000000000000e+01,-6.000000000000000000e+00,-5.000000000000000000e+00,-3.000000000000000000e+00,-1.000000000000000000e+00,-4.027709960937500000e-01,-4.168701171875000000e-02,8.316650390625000000e-01,3.800048828125000000e-01
-1.000000000000000000e+00,-5.000000000000000000e+00,-7.000000000000000000e+00,-8.000000000000000000e+00,-3.000000000000000000e+00,-4.000000000000000000e+00,-4.000000000000000000e+00,0.000000000000000000e+00,-4.027709960937500000e-01,-4.168701171875000000e-02,8.316650390625000000e-01,3.800048828125000000e-01
0.000000000000000000e+00,6.000000000000000000e+00,1.000000000000000000e+01,0.000000000000000000e+00,-3.000000000000000000e+00,-6.000000000000000000e+00,-2.000000000000000000e+00,0.000000000000000000e+00,-4.027709960937500000e-01,-4.168701171875000000e-02,8.316650390625000000e-01,3.800048828125000000e-01
4.000000000000000000e+00,2.000000000000000000e+00,6.000000000000000000e+00,1.000000000000000000e+00,-2.000000000000000000e+00,5.000000000000000000e+00,2.000000000000000000e+00,0.000000000000000000e+00,-4.025268554687500000e-01,-4.132080078125000000e-02,8.317260742187500000e-01,3.801269531250000000e-01
-6.000000000000000000e+00,-4.000000000000000000e+00,6.000000000000000000e+00,3.000000000000000000e+00,3.000000000000000000e+00,0.000000000000000000e+00,-1.000000000000000000e+00,0.000000000000000000e+00,-4.025268554687500000e-01,-4.132080078125000000e-02,8.317260742187500000e-01,3.801269531250000000e-01
-3.000000000000000000e+00,-4.000000000000000000e+00,-2.200000000000000000e+01,-1.900000000000000000e+01,-4.000000000000000000e+00,2.000000000000000000e+00,1.000000000000000000e+00,1.000000000000000000e+00,-4.025268554687500000e-01,-4.132080078125000000e-02,8.317260742187500000e-01,3.801269531250000000e-01
2.000000000000000000e+00,-6.000000000000000000e+00,-1.000000000000000000e+00,1.000000000000000000e+01,-5.000000000000000000e+00,-6.000000000000000000e+00,-3.000000000000000000e+00,-2.000000000000000000e+00,-4.025268554687500000e-01,-4.132080078125000000e-02,8.317260742187500000e-01,3.801269531250000000e-01
-2.000000000000000000e+00,1.000000000000000000e+00,-2.200000000000000000e+01,-4.000000000000000000e+00,-7.000000000000000000e+00,-4.000000000000000000e+00,-3.000000000000000000e+00,-1.000000000000000000e+00,-4.025268554687500000e-01,-4.138183593750000000e-02,8.317871093750000000e-01,3.799438476562500000e-01
-1.000000000000000000e+00,-3.000000000000000000e+00,1.700000000000000000e+01,9.000000000000000000e+00,8.000000000000000000e+00,6.000000000000000000e+00,4.000000000000000000e+00,0.000000000000000000e+00,-4.025268554687500000e-01,-4.138183593750000000e-02,8.317871093750000000e-01,3.799438476562500000e-01
0.000000000000000000e+00,4.000000000000000000e+00,3.600000000000000000e+01,-3.000000000000000000e+00,-2.000000000000000000e+00,-4.000000000000000000e+00,-2.000000000000000000e+00,-2.000000000000000000e+00,-4.025268554687500000e-01,-4.138183593750000000e-02,8.317871093750000000e-01,3.799438476562500000e-01
-5.000000000000000000e+00,-5.000000000000000000e+00,-5.300000000000000000e+01,-3.000000000000000000e+00,-9.000000000000000000e+00,1.000000000000000000e+00,-1.000000000000000000e+00,-1.000000000000000000e+00,-4.025268554687500000e-01,-4.138183593750000000e-02,8.317871093750000000e-01,3.799438476562500000e-01
0.000000000000000000e+00,1.000000000000000000e+00,-5.000000000000000000e+00,0.000000000000000000e+00,1.000000000000000000e+01,0.000000000000000000e+00,-2.000000000000000000e+00,0.000000000000000000e+00,-4.025878906250000000e-01,-4.187011718750000000e-02,8.318481445312500000e-01,3.796997070312500000e-01
-4.000000000000000000e+00,-1.000000000000000000e+01,-3.100000000000000000e+01,-1.600000000000000000e+01,-9.000000000000000000e+00,-3.000000000000000000e+00,-1.000000000000000000e+00,-2.000000000000000000e+00,-4.025878906250000000e-01,-4.187011718750000000e-02,8.318481445312500000e-01,3.796997070312500000e-01
0.000000000000000000e+00,7.000000000000000000e+00,6.800000000000000000e+01,1.200000000000000000e+01,7.000000000000000000e+00,5.000000000000000000e+00,1.000000000000000000e+00,2.000000000000000000e+00,-4.025878906250000000e-01,-4.187011718750000000e-02,8.318481445312500000e-01,3.796997070312500000e-01
-5.000000000000000000e+00,-1.000000000000000000e+01,-8.300000000000000000e+01,-1.200000000000000000e+01,-6.000000000000000000e+00,-5.000000000000000000e+00,-4.000000000000000000e+00,-1.000000000000000000e+00,-4.025878906250000000e-01,-4.187011718750000000e-02,8.318481445312500000e-01,3.796997070312500000e-01
-1.000000000000000000e+00,1.000000000000000000e+00,2.600000000000000000e+01,4.000000000000000000e+00,1.000000000000000000e+00,-3.000000000000000000e+00,-1.000000000000000000e+00,0.000000000000000000e+00,-4.025878906250000000e-01,-4.254150390625000000e-02,8.318481445312500000e-01,3.795776367187500000e-01
2.000000000000000000e+00,6.000000000000000000e+00,2.100000000000000000e+01,1.900000000000000000e+01,6.000000000000000000e+00,-1.000000000000000000e+00,-1.000000000000000000e+00,0.000000000000000000e+00,-4.025878906250000000e-01,-4.254150390625000000e-02,8.318481445312500000e-01,3.795776367187500000e-01
-3.000000000000000000e+00,-9.000000000000000000e+00,-2.400000000000000000e+01,-2.100000000000000000e+01,-6.000000000000000000e+00,-1.000000000000000000e+00,-1.000000000000000000e+00,-2.000000000000000000e+00,-4.025878906250000000e-01,-4.254150390625000000e-02,8.318481445312500000e-01,3.795776367187500000e-01
-4.000000000000000000e+00,-1.000000000000000000e+00,4.000000000000000000e+01,5.000000000000000000e+00,-2.000000000000000000e+00,-1.000000000000000000e+00,-1.000000000000000000e+00,-3.000000000000000000e+00,-4.025878906250000000e-01,-4.254150390625000000e-02,8.318481445312500000e-01,3.795776367187500000e-01
2.000000000000000000e+00,1.000000000000000000e+00,-1.300000000000000000e+01,0.000000000000000000e+00,4.000000000000000000e+00,0.000000000000000000e+00,2.000000000000000000e+00,0.000000000000000000e+00,-4.023437500000000000e-01,-4.254150390625000000e-02,8.319091796875000000e-01,3.797607421875000000e-01
-2.000000000000000000e+00,5.000000000000000000e+00,-1.000000000000000000e+00,-2.000000000000000000e+00,-8.000000000000000000e+00,2.000000000000000000e+00,1.000000000000000000e+00,0.000000000000000000e+00,-4.023437500000000000e-01,-4.254150390625000000e-02,8.319091796875000000e-01,3.797607421875000000e-01
-3.000000000000000000e+00,-3.000000000000000000e+00,-4.000000000000000000e+00,1.800000000000000000e+01,1.800000000000000000e+01,3.000000000000000000e+00,0.000000000000000000e+00,-1.000000000000000000e+00,-4.023437500000000000e-01,-4.254150390625000000e-02,8.319091796875000000e-01,3.797607421875000000e-01
4.000000000000000000e+00,5.000000000000000000e+00,4.700000000000000000e+01,-1.100000000000000000e+01,-1.000000000000000000e+01,-2.000000000000000000e+00,-3.000000000000000000e+00,-1.000000000000000000e+00,-4.023437500000000000e-01,-4.254150390625000000e-02,8.319091796875000000e-01,3.797607421875000000e-01
-2.000000000000000000e+00,-1.000000000000000000e+01,-1.500000000000000000e+01,5.000000000000000000e+00,6.000000000000000000e+00,0.000000000000000000e+00,0.000000000000000000e+00,0.000000000000000000e+00,-4.019165039062500000e-01,-4.235839843750000000e-02,8.320922851562500000e-01,3.798217773437500000e-01
0.000000000000000000e+00,1.000000000000000000e+00,1.400000000000000000e+01,-2.000000000000000000e+00,-2.000000000000000000e+00,-5.000000000000000000e+00,-5.000000000000000000e+00,-1.000000000000000000e+00,-4.019165039062500000e-01,-4.235839843750000000e-02,8.320922851562500000e-01,3.798217773437500000e-01
-3.000000000000000000e+00,8.000000000000000000e+00,-1.000000000000000000e+01,-1.900000000000000000e+01,-1.100000000000000000e+01,-3.000000000000000000e+00,-4.000000000000000000e+00,-2.000000000000000000e+00,-4.019165039062500000e-01,-4.235839843750000000e-02,8.320922851562500000e-01,3.798217773437500000e-01
-1.000000000000000000e+00,9.000000000000000000e+00,4.600000000000000000e+01,3.300000000000000000e+01,1.200000000000000000e+01,1.000000000000000000e+01,3.000000000000000000e+00,0.000000000000000000e+00,-4.019165039062500000e-01,-4.235839843750000000e-02,8.320922851562500000e-01,3.798217773437500000e-01
0.000000000000000000e+00,-1.100000000000000000e+01,-1.200000000000000000e+01,-1.300000000000000000e+01,-4.000000000000000000e+00,-1.000000000000000000e+00,1.000000000000000000e+00,-1.000000000000000000e+00,-4.017333984375000000e-01,-4.260253906250000000e-02,8.322143554687500000e-01,3.796386718750000000e-01
-1.000000000000000000e+00,1.000000000000000000e+00,7.000000000000000000e+00,5.000000000000000000e+00,-2.000000000000000000e+00,-3.000000000000000000e+00,0.000000000000000000e+00,-1.000000000000000000e+00,-4.017333984375000000e-01,-4.260253906250000000e-02,8.322143554687500000e-01,3.796386718750000000e-01
1.000000000000000000e+00,-1.000000000000000000e+00,-2.100000000000000000e+01,-3.000000000000000000e+00,-9.000000000000000000e+00,-6.000000000000000000e+00,-2.000000000000000000e+00,-1.000000000000000000e+00,-4.017333984375000000e-01,-4.260253906250000000e-02,8.322143554687500000e-01,3.796386718750000000e-01
-3.000000000000000000e+00,0.000000000000000000e+00,3.200000000000000000e+01,0.000000000000000000e+00,8.000000000000000000e+00,-1.000000000000000000e+00,-3.000000000000000000e+00,-3.000000000000000000e+00,-4.017333984375000000e-01,-4.260253906250000000e-02,8.322143554687500000e-01,3.796386718750000000e-01
5.000000000000000000e+00,4.000000000000000000e+00,-5.000000000000000000e+00,-1.100000000000000000e+01,-1.200000000000000000e+01,-2.000000000000000000e+00,0.000000000000000000e+00,-2.000000000000000000e+00,-4.016723632812500000e-01,-4.327392578125000000e-02,8.323364257812500000e-01,3.794555664062500000e-01
-1.000000000000000000e+00,-6.000000000000000000e+00,-1.200000000000000000e+01,0.000000000000000000e+00,6.000000000000000000e+00,-1.000000000000000000e+00,0.000000000000000000e+00,0.000000000000000000e+00,-4.016723632812500000e-01,-4.327392578125000000e-02,8.323364257812500000e-01,3.794555664062500000e-01
1.000000000000000000e+00,-4.000000000000000000e+00,6.000000000000000000e+00,-5.000000000000000000e+00,-1.000000000000000000e+01,-6.000000000000000000e+00,-2.000000000000000000e+00,-3.000000000000000000e+00,-4.016723632812500000e-01,-4.327392578125000000e-02,8.323364257812500000e-01,3.794555664062500000e-01
1.000000000000000000e+00,-4.000000000000000000e+00,-2.800000000000000000e+01,1.300000000000000000e+01,1.400000000000000000e+01,0.000000000000000000e+00,1.000000000000000000e+00,1.000000000000000000e+00,-4.016723632812500000e-01,-4.327392578125000000e-02,8.323364257812500000e-01,3.794555664062500000e-01
-1.000000000000000000e+00,1.000000000000000000e+00,9.000000000000000000e+00,-7.000000000000000000e+00,-7.000000000000000000e+00,0.000000000000000000e+00,0.000000000000000000e+00,0.000000000000000000e+00,-4.014282226562500000e-01,-4.382324218750000000e-02,8.323974609375000000e-01,3.795166015625000000e-01
-2.000000000000000000e+00,-2.000000000000000000e+00,-1.300000000000000000e+01,-1.000000000000000000e+01,-2.000000000000000000e+00,-3.000000000000000000e+00,-3.000000000000000000e+00,0.000000000000000000e+00,-4.014282226562500000e-01,-4.382324218750000000e-02,8.323974609375000000e-01,3.795166015625000000e-01
-1.000000000000000000e+00,1.000000000000000000e+00,1.000000000000000000e+00,-1.000000000000000000e+00,-9.000000000000000000e+00,-4.000000000000000000e+00,0.000000000000000000e+00,0.000000000000000000e+00,-4.014282226562500000e-01,-4.382324218750000000e-02,8.323974609375000000e-01,3.795166015625000000e-01
-1.000000000000000000e+00,4.000000000000000000e+00,1.700000000000000000e+01,5.000000000000000000e+00,5.000000000000000000e+00,-2.000000000000000000e+00,-1.000000000000000000e+00,0.000000000000000000e+00,-4.014282226562500000e-01,-4.382324218750000000e-02,8.323974609375000000e-01,3.795166015625000000e-01
-5.000000000000000000e+00,-2.000000000000000000e+00,-1.800000000000000000e+01,-8.000000000000000000e+00,-4.000000000000000000e+00,6.000000000000000000e+00,1.500000000000000000e+01,1.000000000000000000e+00,-4.011840820312500000e-01,-4.406738281250000000e-02,8.323974609375000000e-01,3.796997070312500000e-01
3.000000000000000000e+00,-3.000000000000000000e+00,-1.100000000000000000e+01,4.000000000000000000e+00,4.000000000000000000e+00,-2.000000000000000000e+00,-1.800000000000000000e+01,-3.000000000000000000e+00,-4.011840820312500000e-01,-4.406738281250000000e-02,8.323974609375000000e-01,3.796997070312500000e-01
3.000000000000000000e+00,3.000000000000000000e+00,1.700000000000000000e+01,8.000000000000000000e+00,-1.000000000000000000e+00,0.000000000000000000e+00,0.000000000000000000e+00,0.000000000000000000e+00,-4.011840820312500000e-01,-4.406738281250000000e-02,8.323974609375000000e-01,3.796997070312500000e-01
-5.000000000000000000e+00,-4.000000000000000000e+00,7.000000000000000000e+00,-3.000000000000000000e+00,6.000000000000000000e+00,2.000000000000000000e+00,1.000000000000000000e+00,-1.000000000000000000e+00,-4.011840820312500000e-01,-4.406738281250000000e-02,8.323974609375000000e-01,3.796997070312500000e-01
-1.000000000000000000e+00,3.000000000000000000e+00,-8.000000000000000000e+00,-6.000000000000000000e+00,-6.000000000000000000e+00,-3.000000000000000000e+00,-1.000000000000000000e+01,-2.000000000000000000e+00,-4.008789062500000000e-01,-4.400634765625000000e-02,8.324584960937500000e-01,3.798828125000000000e-01
5.000000000000000000e+00,8.000000000000000000e+00,4.300000000000000000e+01,-2.000000000000000000e+00,0.000000000000000000e+00,2.000000000000000000e+00,8.000000000000000000e+00,-1.000000000000000000e+00,-4.008789062500000000e-01,-4.400634765625000000e-02,8.324584960937500000e-01,3.798828125000000000e-01
-5.000000000000000000e+00,-1.400000000000000000e+01,-7.300000000000000000e+01,3.000000000000000000e+00,1.000000000000000000e+00,-2.000000000000000000e+00,-6.000000000000000000e+00,-3.000000000000000000e+00,-4.008789062500000000e-01,-4.400634765625000000e-02,8.324584960937500000e-01,3.798828125000000000e-01
-2.000000000000000000e+00,-7.000000000000000000e+00,-2.100000000000000000e+01,-1.500000000000000000e+01,-8.000000000000000000e+00,-4.000000000000000000e+00,-2.000000000000000000e+00,0.000000000000000000e+00,-4.008789062500000000e-01,-4.400634765625000000e-02,8.324584960937500000e-01,3.798828125000000000e-01
-2.000000000000000000e+00,1.000000000000000000e+00,1.200000000000000000e+01,3.000000000000000000e+00,3.000000000000000000e+00,0.000000000000000000e+00,0.000000000000000000e+00,0.000000000000000000e+00,-4.008789062500000000e-01,-4.400634765625000000e-02,8.324584960937500000e-01,3.798828125000000000e-01
-5.000000000000000000e+00,-2.000000000000000000e+00,-1.000000000000000000e+01,-6.000000000000000000e+00,-3.000000000000000000e+00,-1.000000000000000000e+00,3.000000000000000000e+00,-3.000000000000000000e+00,-4.008789062500000000e-01,-4.400634765625000000e-02,8.324584960937500000e-01,3.798828125000000000e-01
2.000000000000000000e+00,-1.000000000000000000e+00,1.500000000000000000e+01,9.000000000000000000e+00,-1.000000000000000000e+00,-2.000000000000000000e+00,-3.000000000000000000e+00,0.000000000000000000e+00,-4.008789062500000000e-01,-4.400634765625000000e-02,8.324584960937500000e-01,3.798828125000000000e-01
0.000000000000000000e+00,7.000000000000000000e+00,2.400000000000000000e+01,4.000000000000000000e+00,-7.000000000000000000e+00,0.000000000000000000e+00,5.000000000000000000e+00,-1.000000000000000000e+00,-4.008789062500000000e-01,-4.400634765625000000e-02,8.324584960937500000e-01,3.798828125000000000e-01
-2.000000000000000000e+00,-6.000000000000000000e+00,-1.900000000000000000e+01,-6.000000000000000000e+00,1.200000000000000000e+01,-1.000000000000000000e+00,-5.000000000000000000e+00,-1.000000000000000000e+00,-4.008178710937500000e-01,-4.473876953125000000e-02,8.324584960937500000e-01,3.798217773437500000e-01
0.000000000000000000e+00,-4.000000000000000000e+00,-2.700000000000000000e+01,-6.000000000000000000e+00,1.000000000000000000e+00,5.000000000000000000e+00,2.000000000000000000e+00,2.000000000000000000e+00,-4.008178710937500000e-01,-4.473876953125000000e-02,8.324584960937500000e-01,3.798217773437500000e-01
-2.000000000000000000e+00,0.000000000000000000e+00,1.200000000000000000e+01,-3.000000000000000000e+00,1.000000000000000000e+00,2.000000000000000000e+00,1.000000000000000000e+00,0.000000000000000000e+00,-4.008178710937500000e-01,-4.473876953125000000e-02,8.324584960937500000e-01,3.798217773437500000e-01
-4.000000000000000000e+00,-3.000000000000000000e+00,-7.000000000000000000e+00,-2.000000000000000000e+00,-7.000000000000000000e+00,-5.000000000000000000e+00,-4.000000000000000000e+00,-3.000000000000000000e+00,-4.008178710937500000e-01,-4.473876953125000000e-02,8.324584960937500000e-01,3.798217773437500000e-01
0.000000000000000000e+00,5.000000000000000000e+00,2.500000000000000000e+01,1.000000000000000000e+00,-6.000000000000000000e+00,-1.000000000000000000e+00,-2.000000000000000000e+00,-2.000000000000000000e+00,-4.005126953125000000e-01,-4.504394531250000000e-02,8.326416015625000000e-01,3.797607421875000000e-01
1.000000000000000000e+00,1.000000000000000000e+00,-3.000000000000000000e+00,-2.000000000000000000e+00,-4.000000000000000000e+00,-3.000000000000000000e+00,-4.000000000000000000e+00,0.000000000000000000e+00,-4.005126953125000000e-01,-4.504394531250000000e-02,8.326416015625000000e-01,3.797607421875000000e-01
-2.000000000000000000e+00,-3.000000000000000000e+00,-1.000000000000000000e+01,1.000000000000000000e+00,5.000000000000000000e+00,3.000000000000000000e+00,-1.000000000000000000e+00,0.000000000000000000e+00,-4.005126953125000000e-01,-4.504394531250000000e-02,8.326416015625000000e-01,3.797607421875000000e-01
3.000000000000000000e+00,-3.000000000000000000e+00,-1.500000000000000000e+01,-1.000000000000000000e+01,2.000000000000000000e+00,-2.000000000000000000e+00,-1.000000000000000000e+00,-1.000000000000000000e+00,-4.005126953125000000e-01,-4.504394531250000000e-02,8.326416015625000000e-01,3.797607421875000000e-01
3.000000000000000000e+00,1.100000000000000000e+01,-1.200000000000000000e+01,6.000000000000000000e+00,7.000000000000000000e+00,0.000000000000000000e+00,-3.000000000000000000e+00,-2.000000000000000000e+00,-4.002685546875000000e-01,-4.516601562500000000e-02,8.328247070312500000e-01,3.795166015625000000e-01
-2.000000000000000000e+00,-1.300000000000000000e+01,-6.100000000000000000e+01,-1.600000000000000000e+01,-2.000000000000000000e+00,-1.000000000000000000e+00,2.000000000000000000e+00,-1.000000000000000000e+00,-4.002685546875000000e-01,-4.516601562500000000e-02,8.328247070312500000e-01,3.795166015625000000e-01
-5.000000000000000000e+00,0.000000000000000000e+00,2.400000000000000000e+01,-1.000000000000000000e+00,-2.000000000000000000e+00,-2.000000000000000000e+00,-1.000000000000000000e+00,-2.000000000000000000e+00,-4.002685546875000000e-01,-4.516601562500000000e-02,8.328247070312500000e-01,3.795166015625000000e-01
-6.000000000000000000e+00,-5.000000000000000000e+00,4.500000000000000000e+01,-1.000000000000000000e+00,-1.100000000000000000e+01,-6.000000000000000000e+00,-3.000000000000000000e+00,-1.000000000000000000e+00,-4.002685546875000000e-01,-4.516601562500000000e-02,8.328247070312500000e-01,3.795166015625000000e-01
0.000000000000000000e+00,-3.000000000000000000e+00,-4.600000000000000000e+01,-5.000000000000000000e+00,-2.000000000000000000e+00,3.000000000000000000e+00,2.000000000000000000e+00,-1.000000000000000000e+00,-3.999023437500000000e-01,-4.534912109375000000e-02,8.331298828125000000e-01,3.792724609375000000e-01
-2.000000000000000000e+00,-2.000000000000000000e+00,1.100000000000000000e+01,3.000000000000000000e+00,1.000000000000000000e+00,-3.000000000000000000e+00,-4.000000000000000000e+00,-2.000000000000000000e+00,-3.999023437500000000e-01,-4.534912109375000000e-02,8.331298828125000000e-01,3.792724609375000000e-01
9.000000000000000000e+00,5.000000000000000000e+00,-3.000000000000000000e+00,2.000000000000000000e+00,9.000000000000000000e+00,6.000000000000000000e+00,3.000000000000000000e+00,1.000000000000000000e+00,-3.999023437500000000e-01,-4.534912109375000000e-02,8.331298828125000000e-01,3.792724609375000000e-01
0.000000000000000000e+00,-4.000000000000000000e+00,-1.000000000000000000e+01,-4.000000000000000000e+00,-2.000000000000000000e+00,2.000000000000000000e+00,-1.000000000000000000e+00,-1.000000000000000000e+00,-3.999023437500000000e-01,-4.534912109375000000e-02,8.331298828125000000e-01,3.792724609375000000e-01
-3.000000000000000000e+00,-3.000000000000000000e+00,3.600000000000000000e+01,1.000000000000000000e+01,-5.000000000000000000e+00,-6.000000000000000000e+00,-3.000000000000000000e+00,-1.000000000000000000e+00,-3.995971679687500000e-01,-4.595947265625000000e-02,8.333740234375000000e-01,3.790283203125000000e-01
-8.000000000000000000e+00,3.000000000000000000e+00,-7.000000000000000000e+00,-1.000000000000000000e+01,-1.300000000000000000e+01,-4.000000000000000000e+00,-2.000000000000000000e+00,-2.000000000000000000e+00,-3.995971679687500000e-01,-4.595947265625000000e-02,8.333740234375000000e-01,3.790283203125000000e-01
5.000000000000000000e+00,-3.000000000000000000e+00,-7.000000000000000000e+00,-1.000000000000000000e+01,-2.000000000000000000e+00,-2.000000000000000000e+00,-3.000000000000000000e+00,0.000000000000000000e+00,-3.995971679687500000e-01,-4.595947265625000000e-02,8.333740234375000000e-01,3.790283203125000000e-01
0.000000000000000000e+00,0.000000000000000000e+00,-2.900000000000000000e+01,-7.000000000000000000e+00,4.000000000000000000e+00,3.000000000000000000e+00,0.000000000000000000e+00,0.000000000000000000e+00,-3.995971679687500000e-01,-4.595947265625000000e-02,8.333740234375000000e-01,3.790283203125000000e-01
-3.000000000000000000e+00,-6.000000000000000000e+00,3.000000000000000000e+00,4.000000000000000000e+00,-1.000000000000000000e+00,-2.000000000000000000e+00,-2.000000000000000000e+00,-1.000000000000000000e+00,-3.991699218750000000e-01,-4.632568359375000000e-02,8.335571289062500000e-01,3.789672851562500000e-01
0.000000000000000000e+00,4.000000000000000000e+00,1.000000000000000000e+00,7.000000000000000000e+00,6.000000000000000000e+00,0.000000000000000000e+00,2.000000000000000000e+00,-1.000000000000000000e+00,-3.991699218750000000e-01,-4.632568359375000000e-02,8.335571289062500000e-01,3.789672851562500000e-01
-2.000000000000000000e+00,2.000000000000000000e+00,4.800000000000000000e+01,-9.000000000000000000e+00,-1.300000000000000000e+01,-7.000000000000000000e+00,-5.000000000000000000e+00,-2.000000000000000000e+00,-3.991699218750000000e-01,-4.632568359375000000e-02,8.335571289062500000e-01,3.789672851562500000e-01
-3.000000000000000000e+00,-1.600000000000000000e+01,-8.400000000000000000e+01,-2.000000000000000000e+00,6.000000000000000000e+00,-2.000000000000000000e+00,3.000000000000000000e+00,-1.000000000000000000e+00,-3.991699218750000000e-01,-4.632568359375000000e-02,8.335571289062500000e-01,3.789672851562500000e-01
-1.000000000000000000e+00,-2.000000000000000000e+00,2.400000000000000000e+01,1.000000000000000000e+00,-3.000000000000000000e+00,-2.000000000000000000e+00,-7.000000000000000000e+00,-1.000000000000000000e+00,-3.989257812500000000e-01,-4.663085937500000000e-02,8.337402343750000000e-01,3.788452148437500000e-01
-1.000000000000000000e+00,-5.000000000000000000e+00,1.200000000000000000e+01,3.000000000000000000e+00,2.000000000000000000e+00,-2.000000000000000000e+00,0.000000000000000000e+00,0.000000000000000000e+00,-3.989257812500000000e-01,-4.663085937500000000e-02,8.337402343750000000e-01,3.788452148437500000e-01
-2.000000000000000000e+00,2.000000000000000000e+00,1.200000000000000000e+01,-1.000000000000000000e+00,1.000000000000000000e+00,3.000000000000000000e+00,-2.000000000000000000e+00,-1.000000000000000000e+00,-3.989257812500000000e-01,-4.663085937500000000e-02,8.337402343750000000e-01,3.788452148437500000e-01
1.000000000000000000e+00,9.000000000000000000e+00,1.500000000000000000e+01,-4.000000000000000000e+00,-8.000000000000000000e+00,-3.000000000000000000e+00,1.000000000000000000e+00,1.000000000000000000e+00,-3.989257812500000000e-01,-4.663085937500000000e-02,8.337402343750000000e-01,3.788452148437500000e-01
-5.000000000000000000e+00,1.000000000000000000e+00,2.000000000000000000e+00,1.000000000000000000e+00,-9.000000000000000000e+00,-3.000000000000000000e+00,1.000000000000000000e+00,-1.000000000000000000e+00,-3.988037109375000000e-01,-4.705810546875000000e-02,8.338012695312500000e-01,3.787841796875000000e-01
9.000000000000000000e+00,-4.000000000000000000e+00,-2.100000000000000000e+01,3.000000000000000000e+00,1.700000000000000000e+01,5.000000000000000000e+00,-1.000000000000000000e+00,1.000000000000000000e+00,-3.988037109375000000e-01,-4.705810546875000000e-02,8.338012695312500000e-01,3.787841796875000000e-01
-4.000000000000000000e+00,-3.000000000000000000e+00,-1.100000000000000000e+01,-2.000000000000000000e+00,-3.000000000000000000e+00,3.000000000000000000e+00,5.000000000000000000e+00,-2.000000000000000000e+00,-3.988037109375000000e-01,-4.705810546875000000e-02,8.338012695312500000e-01,3.787841796875000000e-01
-2.000000000000000000e+00,-6.000000000000000000e+00,-3.900000000000000000e+01,-1.000000000000000000e+00,4.000000000000000000e+00,3.000000000000000000e+00,-2.000000000000000000e+00,-1.000000000000000000e+00,-3.988037109375000000e-01,-4.705810546875000000e-02,8.338012695312500000e-01,3.787841796875000000e-01
0.000000000000000000e+00,-4.000000000000000000e+00,-2.300000000000000000e+01,-2.000000000000000000e+00,-5.000000000000000000e+00,-6.000000000000000000e+00,-3.000000000000000000e+00,0.000000000000000000e+00,-3.988037109375000000e-01,-4.705810546875000000e-02,8.338012695312500000e-01,3.787841796875000000e-01
0.000000000000000000e+00,9.000000000000000000e+00,5.400000000000000000e+01,8.000000000000000000e+00,-6.000000000000000000e+00,-3.000000000000000000e+00,0.000000000000000000e+00,-2.000000000000000000e+00,-3.988037109375000000e-01,-4.705810546875000000e-02,8.338012695312500000e-01,3.787841796875000000e-01
2.000000000000000000e+00,3.000000000000000000e+00,-3.400000000000000000e+01,-7.000000000000000000e+00,-9.000000000000000000e+00,-6.000000000000000000e+00,2.000000000000000000e+00,1.000000000000000000e+00,-3.988037109375000000e-01,-4.705810546875000000e-02,8.338012695312500000e-01,3.787841796875000000e-01
-3.000000000000000000e+00,0.000000000000000000e+00,2.200000000000000000e+01,-1.000000000000000000e+00,7.000000000000000000e+00,1.000000000000000000e+00,-3.000000000000000000e+00,-3.000000000000000000e+00,-3.988037109375000000e-01,-4.705810546875000000e-02,8.338012695312500000e-01,3.787841796875000000e-01
-1.000000000000000000e+00,0.000000000000000000e+00,3.900000000000000000e+01,5.000000000000000000e+00,2.000000000000000000e+00,4.000000000000000000e+00,0.000000000000000000e+00,-1.000000000000000000e+00,-3.988037109375000000e-01,-4.748535156250000000e-02,8.337402343750000000e-01,3.788452148437500000e-01
1.000000000000000000e+00,0.000000000000000000e+00,-1.900000000000000000e+01,-9.000000000000000000e+00,1.000000000000000000e+00,-2.000000000000000000e+00,0.000000000000000000e+00,0.000000000000000000e+00,-3.988037109375000000e-01,-4.748535156250000000e-02,8.337402343750000000e-01,3.788452148437500000e-01
-1.000000000000000000e+00,-5.000000000000000000e+00,1.000000000000000000e+01,9.000000000000000000e+00,-3.000000000000000000e+00,-1.000000000000000000e+00,-2.000000000000000000e+00,-2.000000000000000000e+00,-3.988037109375000000e-01,-4.748535156250000000e-02,8.337402343750000000e-01,3.788452148437500000e-01
-4.000000000000000000e+00,2.000000000000000000e+00,2.100000000000000000e+01,1.000000000000000000e+00,-1.000000000000000000e+00,-2.000000000000000000e+00,-2.000000000000000000e+00,-1.000000000000000000e+00,-3.988037109375000000e-01,-4.748535156250000000e-02,8.337402343750000000e-01,3.788452148437500000e-01
3.000000000000000000e+00,3.000000000000000000e+00,-1.000000000000000000e+00,-2.000000000000000000e+00,-3.000000000000000000e+00,-5.000000000000000000e+00,-4.000000000000000000e+00,-2.000000000000000000e+00,-3.987426757812500000e-01,-4.748535156250000000e-02,8.338012695312500000e-01,3.788452148437500000e-01
0.000000000000000000e+00,-2.000000000000000000e+00,5.000000000000000000e+00,-6.000000000000000000e+00,-6.000000000000000000e+00,-2.000000000000000000e+00,-4.000000000000000000e+00,-3.000000000000000000e+00,-3.987426757812500000e-01,-4.748535156250000000e-02,8.338012695312500000e-01,3.788452148437500000e-01
-2.000000000000000000e+00,-5.000000000000000000e+00,-2.500000000000000000e+01,1.200000000000000000e+01,1.000000000000000000e+01,3.000000000000000000e+00,2.000000000000000000e+00,-1.000000000000000000e+00,-3.987426757812500000e-01,-4.748535156250000000e-02,8.338012695312500000e-01,3.788452148437500000e-01
4.000000000000000000e+00,2.000000000000000000e+00,8.000000000000000000e+00,-3.000000000000000000e+00,-4.000000000000000000e+00,3.000000000000000000e+00,-1.000000000000000000e+00,1.000000000000000000e+00,-3.987426757812500000e-01,-4.748535156250000000e-02,8.338012695312500000e-01,3.788452148437500000e-01
-3.000000000000000000e+00,-4.000000000000000000e+00,1.300000000000000000e+01,2.000000000000000000e+00,1.000000000000000000e+00,-2.000000000000000000e+00,-1.000000000000000000e+00,-2.000000000000000000e+00,-3.987426757812500000e-01,-4.748535156250000000e-02,8.338012695312500000e-01,3.788452148437500000e-01
-6.000000000000000000e+00,-1.000000000000000000e+00,-1.300000000000000000e+01,-1.000000000000000000e+01,-5.000000000000000000e+00,0.000000000000000000e+00,1.000000000000000000e+00,0.000000000000000000e+00,-3.987426757812500000e-01,-4.748535156250000000e-02,8.338012695312500000e-01,3.788452148437500000e-01
-2.000000000000000000e+00,5.000000000000000000e+00,2.400000000000000000e+01,-1.000000000000000000e+01,-9.000000000000000000e+00,-6.000000000000000000e+00,-5.000000000000000000e+00,-3.000000000000000000e+00,-3.987426757812500000e-01,-4.748535156250000000e-02,8.338012695312500000e-01,3.788452148437500000e-01
1.000000000000000000e+00,-2.000000000000000000e+00,-6.000000000000000000e+00,1.000000000000000000e+00,-4.000000000000000000e+00,-3.000000000000000000e+00,-1.000000000000000000e+00,0.000000000000000000e+00,-3.987426757812500000e-01,-4.748535156250000000e-02,8.338012695312500000e-01,3.788452148437500000e-01
0.000000000000000000e+00,8.000000000000000000e+00,1.700000000000000000e+01,1.000000000000000000e+00,4.000000000000000000e+00,-1.000000000000000000e+00,0.000000000000000000e+00,-1.000000000000000000e+00,-3.989257812500000000e-01,-4.754638671875000000e-02,8.337402343750000000e-01,3.787841796875000000e-01
-2.000000000000000000e+00,-9.000000000000000000e+00,-2.700000000000000000e+01,1.000000000000000000e+00,-3.000000000000000000e+00,-2.000000000000000000e+00,-1.000000000000000000e+00,0.000000000000000000e+00,-3.989257812500000000e-01,-4.754638671875000000e-02,8.337402343750000000e-01,3.787841796875000000e-01
-2.000000000000000000e+00,-7.000000000000000000e+00,1.200000000000000000e+01,4.000000000000000000e+00,3.000000000000000000e+00,-3.000000000000000000e+00,0.000000000000000000e+00,-3.000000000000000000e+00,-3.989257812500000000e-01,-4.754638671875000000e-02,8.337402343750000000e-01,3.787841796875000000e-01
8.000000000000000000e+00,1.500000000000000000e+01,4.900000000000000000e+01,2.000000000000000000e+00,0.000000000000000000e+00,0.000000000000000000e+00,1.000000000000000000e+00,-2.000000000000000000e+00,-3.989257812500000000e-01,-4.754638671875000000e-02,8.337402343750000000e-01,3.787841796875000000e-01
-3.000000000000000000e+00,-9.000000000000000000e+00,-2.000000000000000000e+01,-8.000000000000000000e+00,-4.000000000000000000e+00,-2.000000000000000000e+00,-3.000000000000000000e+00,-1.000000000000000000e+00,-3.991699218750000000e-01,-4.760742187500000000e-02,8.335571289062500000e-01,3.788452148437500000e-01
-5.000000000000000000e+00,-5.000000000000000000e+00,-1.100000000000000000e+01,-7.000000000000000000e+00,-1.000000000000000000e+00,2.000000000000000000e+00,-1.000000000000000000e+00,0.000000000000000000e+00,-3.991699218750000000e-01,-4.760742187500000000e-02,8.335571289062500000e-01,3.788452148437500000e-01
1.000000000000000000e+00,6.000000000000000000e+00,2.600000000000000000e+01,1.100000000000000000e+01,-3.000000000000000000e+00,-4.000000000000000000e+00,-3.000000000000000000e+00,0.000000000000000000e+00,-3.991699218750000000e-01,-4.760742187500000000e-02,8.335571289062500000e-01,3.788452148437500000e-01
-2.000000000000000000e+00,-9.000000000000000000e+00,-2.800000000000000000e+01,-5.000000000000000000e+00,-4.000000000000000000e+00,-2.000000000000000000e+00,-2.000000000000000000e+00,-2.000000000000000000e+00,-3.991699218750000000e-01,-4.760742187500000000e-02,8.335571289062500000e-01,3.788452148437500000e-01
3.000000000000000000e+00,6.000000000000000000e+00,7.000000000000000000e+00,-1.000000000000000000e+01,-3.000000000000000000e+00,-2.000000000000000000e+00,0.000000000000000000e+00,-2.000000000000000000e+00,-3.991699218750000000e-01,-4.760742187500000000e-02,8.335571289062500000e-01,3.788452148437500000e-01
0.000000000000000000e+00,2.000000000000000000e+00,2.800000000000000000e+01,1.400000000000000000e+01,5.000000000000000000e+00,2.000000000000000000e+00,3.000000000000000000e+00,0.000000000000000000e+00,-3.991699218750000000e-01,-4.760742187500000000e-02,8.335571289062500000e-01,3.788452148437500000e-01
-9.000000000000000000e+00,-8.000000000000000000e+00,-1.400000000000000000e+01,-3.000000000000000000e+00,8.000000000000000000e+00,8.000000000000000000e+00,2.000000000000000000e+00,1.000000000000000000e+00,-3.991699218750000000e-01,-4.760742187500000000e-02,8.335571289062500000e-01,3.788452148437500000e-01
0.000000000000000000e+00,1.000000000000000000e+00,-1.000000000000000000e+00,4.000000000000000000e+00,1.000000000000000000e+00,-5.000000000000000000e+00,-3.000000000000000000e+00,-1.000000000000000000e+00,-3.991699218750000000e-01,-4.760742187500000000e-02,8.335571289062500000e-01,3.788452148437500000e-01
6.000000000000000000e+00,-1.000000000000000000e+00,-3.300000000000000000e+01,-1.500000000000000000e+01,-8.000000000000000000e+00,-1.000000000000000000e+00,-2.000000000000000000e+00,1.000000000000000000e+00,-3.987426757812500000e-01,-4.736328125000000000e-02,8.337402343750000000e-01,3.789672851562500000e-01
0.000000000000000000e+00,-2.000000000000000000e+00,-2.000000000000000000e+00,9.000000000000000000e+00,-4.000000000000000000e+00,-2.000000000000000000e+00,-2.000000000000000000e+00,-1.000000000000000000e+00,-3.987426757812500000e-01,-4.736328125000000000e-02,8.337402343750000000e-01,3.789672851562500000e-01
-2.000000000000000000e+00,1.000000000000000000e+00,6.000000000000000000e+00,-5.000000000000000000e+00,-3.000000000000000000e+00,-3.000000000000000000e+00,1.000000000000000000e+00,-1.000000000000000000e+00,-3.987426757812500000e-01,-4.736328125000000000e-02,8.337402343750000000e-01,3.789672851562500000e-01
-3.000000000000000000e+00,1.000000000000000000e+00,-1.400000000000000000e+01,5.000000000000000000e+00,-2.000000000000000000e+00,-5.000000000000000000e+00,-2.000000000000000000e+00,-4.000000000000000000e+00,-3.987426757812500000e-01,-4.736328125000000000e-02,8.337402343750000000e-01,3.789672851562500000e-01
-5.000000000000000000e+00,-1.100000000000000000e+01,-2.000000000000000000e+01,-1.000000000000000000e+01,2.000000000000000000e+00,0.000000000000000000e+00,-1.000000000000000000e+00,-3.000000000000000000e+00,-3.986816406250000000e-01,-4.736328125000000000e-02,8.337402343750000000e-01,3.789672851562500000e-01
3.000000000000000000e+00,6.000000000000000000e+00,2.300000000000000000e+01,4.000000000000000000e+00,4.000000000000000000e+00,5.000000000000000000e+00,1.000000000000000000e+00,-1.000000000000000000e+00,-3.986816406250000000e-01,-4.736328125000000000e-02,8.337402343750000000e-01,3.789672851562500000e-01
1.000000000000000000e+00,-3.000000000000000000e+00,-2.000000000000000000e+01,-1.000000000000000000e+01,-1.000000000000000000e+01,-5.000000000000000000e+00,-2.000000000000000000e+00,0.000000000000000000e+00,-3.986816406250000000e-01,-4.736328125000000000e-02,8.337402343750000000e-01,3.789672851562500000e-01
-2.000000000000000000e+00,-3.000000000000000000e+00,0.000000000000000000e+00,3.000000000000000000e+00,0.000000000000000000e+00,-4.000000000000000000e+00,-5.000000000000000000e+00,-2.000000000000000000e+00,-3.986816406250000000e-01,-4.736328125000000000e-02,8.337402343750000000e-01,3.789672851562500000e-01
-1.000000000000000000e+00,-1.000000000000000000e+00,1.700000000000000000e+01,1.900000000000000000e+01,6.000000000000000000e+00,4.000000000000000000e+00,1.000000000000000000e+00,0.000000000000000000e+00,-3.987426757812500000e-01,-4.754638671875000000e-02,8.336791992187500000e-01,3.790283203125000000e-01
-2.000000000000000000e+00,2.000000000000000000e+00,5.000000000000000000e+00,-2.000000000000000000e+00,5.000000000000000000e+00,5.000000000000000000e+00,1.000000000000000000e+00,1.000000000000000000e+00,-3.987426757812500000e-01,-4.754638671875000000e-02,8.336791992187500000e-01,3.790283203125000000e-01
-1.000000000000000000e+00,0.000000000000000000e+00,-1.000000000000000000e+00,5.000000000000000000e+00,6.000000000000000000e+00,-2.000000000000000000e+00,-6.000000000000000000e+00,-1.000000000000000000e+00,-3.987426757812500000e-01,-4.754638671875000000e-02,8.336791992187500000e-01,3.790283203125000000e-01
-1.000000000000000000e+00,0.000000000000000000e+00,-1.200000000000000000e+01,-1.300000000000000000e+01,-1.500000000000000000e+01,-3.000000000000000000e+00,-2.000000000000000000e+00,1.000000000000000000e+00,-3.987426757812500000e-01,-4.754638671875000000e-02,8.336791992187500000e-01,3.790283203125000000e-01
