-2.000000000000000000e+00,0.000000000000000000e+00,9.000000000000000000e+00,1.800000000000000000e+01,7.000000000000000000e+00,2.000000000000000000e+00,3.000000000000000000e+00,1.000000000000000000e+00,1.171875000000000000e-02,5.076293945312500000e-01,-1.265869140625000000e-01,8.521118164062500000e-01
3.000000000000000000e+00,0.000000000000000000e+00,2.000000000000000000e+00,-1.200000000000000000e+01,-1.000000000000000000e+01,-1.000000000000000000e+00,-2.000000000000000000e+00,1.000000000000000000e+00,1.171875000000000000e-02,5.076293945312500000e-01,-1.265869140625000000e-01,8.521118164062500000e-01
2.000000000000000000e+00,4.000000000000000000e+00,4.000000000000000000e+00,7.000000000000000000e+00,8.000000000000000000e+00,5.000000000000000000e+00,0.000000000000000000e+00,0.000000000000000000e+00,1.171875000000000000e-02,5.076293945312500000e-01,-1.265869140625000000e-01,8.521118164062500000e-01
-2.000000000000000000e+00,-6.000000000000000000e+00,4.000000000000000000e+00,-1.600000000000000000e+01,-1.600000000000000000e+01,-9.000000000000000000e+00,4.000000000000000000e+00,-2.000000000000000000e+00,1.171875000000000000e-02,5.076293945312500000e-01,-1.265869140625000000e-01,8.521118164062500000e-01
-9.000000000000000000e+00,1.000000000000000000e+00,-1.000000000000000000e+00,1.000000000000000000e+01,8.000000000000000000e+00,2.000000000000000000e+00,0.000000000000000000e+00,0.000000000000000000e+00,1.043701171875000000e-02,5.072631835937500000e-01,-1.264648437500000000e-01,8.523559570312500000e-01
1.000000000000000000e+00,-1.000000000000000000e+00,1.900000000000000000e+01,3.000000000000000000e+00,2.000000000000000000e+00,4.000000000000000000e+00,4.000000000000000000e+00,-1.000000000000000000e+00,1.043701171875000000e-02,5.072631835937500000e-01,-1.264648437500000000e-01,8.523559570312500000e-01
-1.000000000000000000e+00,-2.000000000000000000e+00,-1.700000000000000000e+01,5.000000000000000000e+00,9.000000000000000000e+00,0.000000000000000000e+00,-4.000000000000000000e+00,-1.000000000000000000e+00,1.043701171875000000e-02,5.072631835937500000e-01,-1.264648437500000000e-01,8.523559570312500000e-01
0.000000000000000000e+00,2.000000000000000000e+00,4.000000000000000000e+00,-1.300000000000000000e+01,-1.200000000000000000e+01,-6.000000000000000000e+00,-4.000000000000000000e+00,-2.000000000000000000e+00,1.043701171875000000e-02,5.072631835937500000e-01,-1.264648437500000000e-01,8.523559570312500000e-01
3.000000000000000000e+00,-1.000000000000000000e+00,-1.800000000000000000e+01,-8.000000000000000000e+00,0.000000000000000000e+00,5.000000000000000000e+00,3.000000000000000000e+00,0.000000000000000000e+00,8.850097656250000000e-03,5.068969726562500000e-01,-1.262817382812500000e-01,8.526000976562500000e-01
-1.000000000000000000e+00,2.000000000000000000e+00,2.200000000000000000e+01,1.100000000000000000e+01,-1.000000000000000000e+00,-4.000000000000000000e+00,-3.000000000000000000e+00,-1.000000000000000000e+00,8.850097656250000000e-03,5.068969726562500000e-01,-1.262817382812500000e-01,8.526000976562500000e-01
-5.000000000000000000e+00,-9.000000000000000000e+00,-2.400000000000000000e+01,1.300000000000000000e+01,2.600000000000000000e+01,2.000000000000000000e+00,-1.000000000000000000e+00,-1.000000000000000000e+00,8.850097656250000000e-03,5.068969726562500000e-01,-1.262817382812500000e-01,8.526000976562500000e-01
-1.000000000000000000e+00,2.000000000000000000e+00,-6.000000000000000000e+00,-2.200000000000000000e+01,-8.000000000000000000e+00,-1.000000000000000000e+00,-1.000000000000000000e+00,-1.000000000000000000e+00,8.850097656250000000e-03,5.068969726562500000e-01,-1.262817382812500000e-01,8.526000976562500000e-01
-1.000000000000000000e+00,-4.000000000000000000e+00,-5.000000000000000000e+00,2.300000000000000000e+01,-1.400000000000000000e+01,-4.000000000000000000e+00,0.000000000000000000e+00,-3.000000000000000000e+00,7.568359375000000000e-03,5.064086914062500000e-01,-1.265869140625000000e-01,8.529052734375000000e-01
-3.000000000000000000e+00,-3.000000000000000000e+00,-5.000000000000000000e+00,-1.400000000000000000e+01,2.000000000000000000e+00,0.000000000000000000e+00,-3.000000000000000000e+00,-1.000000000000000000e+00,7.568359375000000000e-03,5.064086914062500000e-01,-1.265869140625000000e-01,8.529052734375000000e-01
2.000000000000000000e+00,3.000000000000000000e+00,3.300000000000000000e+01,1.900000000000000000e+01,8.000000000000000000e+00,1.000000000000000000e+00,1.000000000000000000e+00,-2.000000000000000000e+00,7.568359375000000000e-03,5.064086914062500000e-01,-1.265869140625000000e-01,8.529052734375000000e-01
-3.000000000000000000e+00,-3.000000000000000000e+00,7.000000000000000000e+00,7.000000000000000000e+00,-4.000000000000000000e+00,-7.000000000000000000e+00,-5.000000000000000000e+00,-3.000000000000000000e+00,7.568359375000000000e-03,5.064086914062500000e-01,-1.265869140625000000e-01,8.529052734375000000e-01
-3.000000000000000000e+00,-5.000000000000000000e+00,-1.100000000000000000e+01,-2.600000000000000000e+01,-9.000000000000000000e+00,9.000000000000000000e+00,1.100000000000000000e+01,0.000000000000000000e+00,6.347656250000000000e-03,5.060424804687500000e-01,-1.268310546875000000e-01,8.530883789062500000e-01
0.000000000000000000e+00,-4.000000000000000000e+00,-2.100000000000000000e+01,3.000000000000000000e+00,5.000000000000000000e+00,5.000000000000000000e+00,2.000000000000000000e+00,-2.000000000000000000e+00,6.347656250000000000e-03,5.060424804687500000e-01,-1.268310546875000000e-01,8.530883789062500000e-01
3.000000000000000000e+00,-2.000000000000000000e+00,-1.000000000000000000e+01,-9.000000000000000000e+00,-8.000000000000000000e+00,-1.100000000000000000e+01,-1.200000000000000000e+01,0.000000000000000000e+00,6.347656250000000000e-03,5.060424804687500000e-01,-1.268310546875000000e-01,8.530883789062500000e-01
-1.000000000000000000e+00,-1.000000000000000000e+00,2.100000000000000000e+01,0.000000000000000000e+00,-4.000000000000000000e+00,1.000000000000000000e+00,1.000000000000000000e+01,0.000000000000000000e+00,6.347656250000000000e-03,5.060424804687500000e-01,-1.268310546875000000e-01,8.530883789062500000e-01
-5.000000000000000000e+00,-2.000000000000000000e+00,-7.000000000000000000e+00,3.000000000000000000e+00,2.000000000000000000e+00,-3.000000000000000000e+00,1.000000000000000000e+00,-2.000000000000000000e+00,4.882812500000000000e-03,5.057373046875000000e-01,-1.271972656250000000e-01,8.532104492187500000e-01
-1.000000000000000000e+00,-2.000000000000000000e+00,-2.000000000000000000e+00,-4.000000000000000000e+00,0.000000000000000000e+00,-1.000000000000000000e+00,-5.000000000000000000e+00,0.000000000000000000e+00,4.882812500000000000e-03,5.057373046875000000e-01,-1.271972656250000000e-01,8.532104492187500000e-01
-3.000000000000000000e+00,-4.000000000000000000e+00,-9.000000000000000000e+00,-6.000000000000000000e+00,-5.000000000000000000e+00,3.000000000000000000e+00,2.000000000000000000e+00,-2.000000000000000000e+00,4.882812500000000000e-03,5.057373046875000000e-01,-1.271972656250000000e-01,8.532104492187500000e-01
1.000000000000000000e+00,0.000000000000000000e+00,-5.000000000000000000e+00,1.500000000000000000e+01,1.600000000000000000e+01,-3.000000000000000000e+00,-1.300000000000000000e+01,1.000000000000000000e+00,4.882812500000000000e-03,5.057373046875000000e-01,-1.271972656250000000e-01,8.532104492187500000e-01
9.000000000000000000e+00,3.000000000000000000e+00,9.000000000000000000e+00,3.000000000000000000e+00,0.000000000000000000e+00,0.000000000000000000e+00,-2.000000000000000000e+00,0.000000000000000000e+00,3.601074218750000000e-03,5.053710937500000000e-01,-1.278686523437500000e-01,8.533325195312500000e-01
-1.100000000000000000e+01,-2.000000000000000000e+00,-1.300000000000000000e+01,1.400000000000000000e+01,-3.000000000000000000e+00,-3.000000000000000000e+00,1.000000000000000000e+00,-1.000000000000000000e+00,3.601074218750000000e-03,5.053710937500000000e-01,-1.278686523437500000e-01,8.533325195312500000e-01
-1.000000000000000000e+01,-1.000000000000000000e+00,1.800000000000000000e+01,-1.600000000000000000e+01,2.000000000000000000e+00,-9.000000000000000000e+00,-5.000000000000000000e+00,-2.000000000000000000e+00,3.601074218750000000e-03,5.053710937500000000e-01,-1.278686523437500000e-01,8.533325195312500000e-01
3.000000000000000000e+00,-3.000000000000000000e+00,-3.600000000000000000e+01,-2.400000000000000000e+01,-1.300000000000000000e+01,1.200000000000000000e+01,1.000000000000000000e+01,1.000000000000000000e+00,3.601074218750000000e-03,5.053710937500000000e-01,-1.278686523437500000e-01,8.533325195312500000e-01
-2.000000000000000000e+00,2.000000000000000000e+00,4.000000000000000000e+01,1.900000000000000000e+01,1.000000000000000000e+00,-3.000000000000000000e+00,-3.000000000000000000e+00,-3.000000000000000000e+00,2.807617187500000000e-03,5.048217773437500000e-01,-1.284790039062500000e-01,8.535766601562500000e-01
5.000000000000000000e+00,-5.000000000000000000e+00,-4.000000000000000000e+01,1.000000000000000000e+00,1.100000000000000000e+01,5.000000000000000000e+00,1.000000000000000000e+00,-1.000000000000000000e+00,2.807617187500000000e-03,5.048217773437500000e-01,-1.284790039062500000e-01,8.535766601562500000e-01
1.000000000000000000e+00,3.000000000000000000e+00,-5.000000000000000000e+00,0.000000000000000000e+00,-2.000000000000000000e+00,-4.000000000000000000e+00,-1.000000000000000000e+00,-3.000000000000000000e+00,2.807617187500000000e-03,5.048217773437500000e-01,-1.284790039062500000e-01,8.535766601562500000e-01
-3.000000000000000000e+00,-5.000000000000000000e+00,9.000000000000000000e+00,1.000000000000000000e+00,-1.200000000000000000e+01,-7.000000000000000000e+00,-2.000000000000000000e+00,-3.000000000000000000e+00,2.807617187500000000e-03,5.048217773437500000e-01,-1.284790039062500000e-01,8.535766601562500000e-01
-3.000000000000000000e+00,1.000000000000000000e+00,-2.300000000000000000e+01,-1.900000000000000000e+01,-5.000000000000000000e+00,-3.000000000000000000e+00,1.000000000000000000e+00,0.000000000000000000e+00,1.586914062500000000e-03,5.043945312500000000e-01,-1.290283203125000000e-01,8.536987304687500000e-01
-1.000000000000000000e+00,-2.000000000000000000e+00,6.000000000000000000e+00,1.000000000000000000e+00,-6.000000000000000000e+00,-5.000000000000000000e+00,-6.000000000000000000e+00,0.000000000000000000e+00,1.586914062500000000e-03,5.043945312500000000e-01,-1.290283203125000000e-01,8.536987304687500000e-01
-5.000000000000000000e+00,-6.000000000000000000e+00,4.000000000000000000e+00,-6.000000000000000000e+00,-4.000000000000000000e+00,-3.000000000000000000e+00,1.000000000000000000e+00,0.000000000000000000e+00,1.586914062500000000e-03,5.043945312500000000e-01,-1.290283203125000000e-01,8.536987304687500000e-01
0.000000000000000000e+00,-2.000000000000000000e+00,-3.100000000000000000e+01,-7.000000000000000000e+00,2.000000000000000000e+00,-3.000000000000000000e+00,-2.000000000000000000e+00,-2.000000000000000000e+00,1.586914062500000000e-03,5.043945312500000000e-01,-1.290283203125000000e-01,8.536987304687500000e-01
3.000000000000000000e+00,-3.000000000000000000e+00,1.100000000000000000e+01,2.000000000000000000e+00,2.000000000000000000e+00,7.000000000000000000e+00,5.000000000000000000e+00,-3.000000000000000000e+00,4.272460937500000000e-04,5.039062500000000000e-01,-1.296997070312500000e-01,8.539428710937500000e-01
-7.000000000000000000e+00,3.000000000000000000e+00,6.000000000000000000e+00,-8.000000000000000000e+00,-5.000000000000000000e+00,3.000000000000000000e+00,9.000000000000000000e+00,3.000000000000000000e+00,4.272460937500000000e-04,5.039062500000000000e-01,-1.296997070312500000e-01,8.539428710937500000e-01
6.000000000000000000e+00,1.000000000000000000e+00,-1.400000000000000000e+01,1.500000000000000000e+01,7.000000000000000000e+00,4.000000000000000000e+00,1.000000000000000000e+00,2.000000000000000000e+00,4.272460937500000000e-04,5.039062500000000000e-01,-1.296997070312500000e-01,8.539428710937500000e-01
0.000000000000000000e+00,0.000000000000000000e+00,1.100000000000000000e+01,-1.200000000000000000e+01,-3.000000000000000000e+00,-3.000000000000000000e+00,-4.000000000000000000e+00,-1.000000000000000000e+00,4.272460937500000000e-04,5.039062500000000000e-01,-1.296997070312500000e-01,8.539428710937500000e-01
-7.000000000000000000e+00,-5.000000000000000000e+00,-9.000000000000000000e+00,1.000000000000000000e+01,-5.000000000000000000e+00,-8.000000000000000000e+00,-8.000000000000000000e+00,-5.000000000000000000e+00,-3.662109375000000000e-04,5.034179687500000000e-01,-1.303710937500000000e-01,8.541259765625000000e-01
3.000000000000000000e+00,0.000000000000000000e+00,1.000000000000000000e+01,-1.100000000000000000e+01,0.000000000000000000e+00,-2.000000000000000000e+00,-3.000000000000000000e+00,-2.000000000000000000e+00,-3.662109375000000000e-04,5.034179687500000000e-01,-1.303710937500000000e-01,8.541259765625000000e-01
2.000000000000000000e+00,-3.000000000000000000e+00,-2.400000000000000000e+01,-2.600000000000000000e+01,-1.900000000000000000e+01,-2.000000000000000000e+00,3.000000000000000000e+00,0.000000000000000000e+00,-3.662109375000000000e-04,5.034179687500000000e-01,-1.303710937500000000e-01,8.541259765625000000e-01
-1.100000000000000000e+01,-2.000000000000000000e+00,1.100000000000000000e+01,1.000000000000000000e+00,2.000000000000000000e+00,-3.000000000000000000e+00,-4.000000000000000000e+00,-1.000000000000000000e+00,-3.662109375000000000e-04,5.034179687500000000e-01,-1.303710937500000000e-01,8.541259765625000000e-01
5.000000000000000000e+00,4.000000000000000000e+00,4.000000000000000000e+00,3.500000000000000000e+01,2.300000000000000000e+01,4.000000000000000000e+00,-2.000000000000000000e+00,0.000000000000000000e+00,-1.831054687500000000e-04,5.028686523437500000e-01,-1.311035156250000000e-01,8.543090820312500000e-01
-1.000000000000000000e+00,-1.000000000000000000e+00,-7.000000000000000000e+00,-1.100000000000000000e+01,-7.000000000000000000e+00,0.000000000000000000e+00,1.000000000000000000e+00,-1.000000000000000000e+00,-1.831054687500000000e-04,5.028686523437500000e-01,-1.311035156250000000e-01,8.543090820312500000e-01
1.000000000000000000e+00,-2.000000000000000000e+00,1.000000000000000000e+01,-2.000000000000000000e+00,-1.200000000000000000e+01,-4.000000000000000000e+00,-1.000000000000000000e+00,-2.000000000000000000e+00,-1.831054687500000000e-04,5.028686523437500000e-01,-1.311035156250000000e-01,8.543090820312500000e-01
-1.000000000000000000e+00,-3.000000000000000000e+00,-1.700000000000000000e+01,9.000000000000000000e+00,1.000000000000000000e+01,-7.000000000000000000e+00,-9.000000000000000000e+00,-3.000000000000000000e+00,-1.831054687500000000e-04,5.028686523437500000e-01,-1.311035156250000000e-01,8.543090820312500000e-01
-4.000000000000000000e+00,-4.000000000000000000e+00,-6.000000000000000000e+00,-2.000000000000000000e+01,-8.000000000000000000e+00,-4.000000000000000000e+00,-5.000000000000000000e+00,0.000000000000000000e+00,1.831054687500000000e-04,5.024414062500000000e-01,-1.310424804687500000e-01,8.545532226562500000e-01
6.000000000000000000e+00,5.000000000000000000e+00,-3.000000000000000000e+00,3.000000000000000000e+00,3.000000000000000000e+00,1.600000000000000000e+01,1.200000000000000000e+01,2.000000000000000000e+00,1.831054687500000000e-04,5.024414062500000000e-01,-1.310424804687500000e-01,8.545532226562500000e-01
-1.000000000000000000e+01,-5.000000000000000000e+00,2.300000000000000000e+01,1.000000000000000000e+01,5.000000000000000000e+00,1.000000000000000000e+00,6.000000000000000000e+00,0.000000000000000000e+00,1.831054687500000000e-04,5.024414062500000000e-01,-1.310424804687500000e-01,8.545532226562500000e-01
-5.000000000000000000e+00,-1.000000000000000000e+00,-8.000000000000000000e+00,-6.000000000000000000e+00,-9.000000000000000000e+00,-6.000000000000000000e+00,-1.600000000000000000e+01,-3.000000000000000000e+00,1.831054687500000000e-04,5.024414062500000000e-01,-1.310424804687500000e-01,8.545532226562500000e-01
1.000000000000000000e+01,3.000000000000000000e+00,1.200000000000000000e+01,-2.000000000000000000e+01,-1.000000000000000000e+01,-7.000000000000000000e+00,4.000000000000000000e+00,-3.000000000000000000e+00,-1.037597656250000000e-03,5.023803710937500000e-01,-1.300659179687500000e-01,8.547973632812500000e-01
3.000000000000000000e+00,0.000000000000000000e+00,-1.700000000000000000e+01,2.100000000000000000e+01,2.000000000000000000e+00,-6.000000000000000000e+00,-3.000000000000000000e+00,-2.000000000000000000e+00,-1.037597656250000000e-03,5.023803710937500000e-01,-1.300659179687500000e-01,8.547973632812500000e-01
0.000000000000000000e+00,2.000000000000000000e+00,1.500000000000000000e+01,-8.000000000000000000e+00,6.000000000000000000e+00,3.000000000000000000e+00,-3.000000000000000000e+00,0.000000000000000000e+00,-1.037597656250000000e-03,5.023803710937500000e-01,-1.300659179687500000e-01,8.547973632812500000e-01
-7.000000000000000000e+00,-9.000000000000000000e+00,-2.000000000000000000e+01,-7.000000000000000000e+00,7.000000000000000000e+00,4.000000000000000000e+00,4.000000000000000000e+00,-1.000000000000000000e+00,-1.037597656250000000e-03,5.023803710937500000e-01,-1.300659179687500000e-01,8.547973632812500000e-01
0.000000000000000000e+00,4.000000000000000000e+00,2.000000000000000000e+00,-9.000000000000000000e+00,-2.400000000000000000e+01,-1.200000000000000000e+01,-1.100000000000000000e+01,-1.000000000000000000e+00,-2.197265625000000000e-03,5.025634765625000000e-01,-1.294555664062500000e-01,8.547363281250000000e-01
-1.200000000000000000e+01,-4.000000000000000000e+00,3.300000000000000000e+01,2.800000000000000000e+01,1.600000000000000000e+01,-1.000000000000000000e+00,-7.000000000000000000e+00,0.000000000000000000e+00,-2.197265625000000000e-03,5.025634765625000000e-01,-1.294555664062500000e-01,8.547363281250000000e-01
1.000000000000000000e+01,2.000000000000000000e+00,-1.700000000000000000e+01,-1.700000000000000000e+01,-3.000000000000000000e+00,-1.000000000000000000e+00,1.000000000000000000e+00,1.000000000000000000e+00,-2.197265625000000000e-03,5.025634765625000000e-01,-1.294555664062500000e-01,8.547363281250000000e-01
0.000000000000000000e+00,2.000000000000000000e+00,8.000000000000000000e+00,-5.000000000000000000e+00,-5.000000000000000000e+00,-3.000000000000000000e+00,-1.000000000000000000e+00,0.000000000000000000e+00,-2.197265625000000000e-03,5.025634765625000000e-01,-1.294555664062500000e-01,8.547363281250000000e-01
-3.000000000000000000e+00,-5.000000000000000000e+00,-1.300000000000000000e+01,-6.000000000000000000e+00,-1.400000000000000000e+01,-2.000000000000000000e+00,-2.000000000000000000e+00,-3.000000000000000000e+00,-2.319335937500000000e-03,5.027465820312500000e-01,-1.293945312500000000e-01,8.546142578125000000e-01
2.000000000000000000e+00,0.000000000000000000e+00,2.000000000000000000e+00,-4.000000000000000000e+00,3.000000000000000000e+00,4.000000000000000000e+00,5.000000000000000000e+00,-1.000000000000000000e+00,-2.319335937500000000e-03,5.027465820312500000e-01,-1.293945312500000000e-01,8.546142578125000000e-01
-5.000000000000000000e+00,0.000000000000000000e+00,1.000000000000000000e+00,1.000000000000000000e+01,-1.000000000000000000e+00,-4.000000000000000000e+00,-4.000000000000000000e+00,-1.000000000000000000e+00,-2.319335937500000000e-03,5.027465820312500000e-01,-1.293945312500000000e-01,8.546142578125000000e-01
1.000000000000000000e+00,-1.000000000000000000e+00,3.100000000000000000e+01,0.000000000000000000e+00,0.000000000000000000e+00,-7.000000000000000000e+00,-5.000000000000000000e+00,-1.000000000000000000e+00,-2.319335937500000000e-03,5.027465820312500000e-01,-1.293945312500000000e-01,8.546142578125000000e-01
-6.000000000000000000e+00,-1.000000000000000000e+00,-3.900000000000000000e+01,0.000000000000000000e+00,4.000000000000000000e+00,1.200000000000000000e+01,1.100000000000000000e+01,-2.000000000000000000e+00,-2.624511718750000000e-03,5.029907226562500000e-01,-1.289672851562500000e-01,8.545532226562500000e-01
1.000000000000000000e+00,-7.000000000000000000e+00,-3.000000000000000000e+00,-1.400000000000000000e+01,-2.000000000000000000e+00,-4.000000000000000000e+00,-8.000000000000000000e+00,-1.000000000000000000e+00,-2.624511718750000000e-03,5.029907226562500000e-01,-1.289672851562500000e-01,8.545532226562500000e-01
-4.000000000000000000e+00,0.000000000000000000e+00,1.500000000000000000e+01,3.000000000000000000e+00,-5.000000000000000000e+00,1.000000000000000000e+00,5.000000000000000000e+00,-2.000000000000000000e+00,-2.624511718750000000e-03,5.029907226562500000e-01,-1.289672851562500000e-01,8.545532226562500000e-01
5.000000000000000000e+00,4.000000000000000000e+00,-5.000000000000000000e+00,-7.000000000000000000e+00,-1.600000000000000000e+01,-5.000000000000000000e+00,-6.000000000000000000e+00,-1.000000000000000000e+00,-2.624511718750000000e-03,5.029907226562500000e-01,-1.289672851562500000e-01,8.545532226562500000e-01
0.000000000000000000e+00,8.000000000000000000e+00,1.800000000000000000e+01,1.900000000000000000e+01,2.100000000000000000e+01,-4.000000000000000000e+00,-1.000000000000000000e+01,2.000000000000000000e+00,-3.906250000000000000e-03,5.029296875000000000e-01,-1.279296875000000000e-01,8.547363281250000000e-01
-6.000000000000000000e+00,-6.000000000000000000e+00,-5.000000000000000000e+00,-4.000000000000000000e+00,2.000000000000000000e+00,3.000000000000000000e+00,-6.000000000000000000e+00,0.000000000000000000e+00,-3.906250000000000000e-03,5.029296875000000000e-01,-1.279296875000000000e-01,8.547363281250000000e-01
1.000000000000000000e+00,0.000000000000000000e+00,-1.700000000000000000e+01,-1.000000000000000000e+01,-5.000000000000000000e+00,-3.000000000000000000e+00,4.000000000000000000e+01,-2.000000000000000000e+00,-3.906250000000000000e-03,5.029296875000000000e-01,-1.279296875000000000e-01,8.547363281250000000e-01
0.000000000000000000e+00,-1.000000000000000000e+00,7.000000000000000000e+00,8.000000000000000000e+00,1.000000000000000000e+00,1.500000000000000000e+01,-3.000000000000000000e+00,2.000000000000000000e+00,-3.906250000000000000e-03,5.029296875000000000e-01,-1.279296875000000000e-01,8.547363281250000000e-01
1.000000000000000000e+00,5.000000000000000000e+00,2.000000000000000000e+01,-5.000000000000000000e+00,7.000000000000000000e+00,-1.000000000000000000e+01,-8.000000000000000000e+00,3.000000000000000000e+00,-5.371093750000000000e-03,5.029296875000000000e-01,-1.276245117187500000e-01,8.547973632812500000e-01
-2.000000000000000000e+00,-6.000000000000000000e+00,-4.500000000000000000e+01,-3.000000000000000000e+00,-1.000000000000000000e+01,-9.000000000000000000e+00,-7.000000000000000000e+00,-5.000000000000000000e+00,-5.371093750000000000e-03,5.029296875000000000e-01,-1.276245117187500000e-01,8.547973632812500000e-01
-1.000000000000000000e+00,-2.000000000000000000e+00,4.000000000000000000e+00,-1.500000000000000000e+01,-3.200000000000000000e+01,-1.200000000000000000e+01,-1.900000000000000000e+01,-6.000000000000000000e+00,-5.371093750000000000e-03,5.029296875000000000e-01,-1.276245117187500000e-01,8.547973632812500000e-01
1.000000000000000000e+00,4.000000000000000000e+00,-2.000000000000000000e+00,4.200000000000000000e+01,3.100000000000000000e+01,8.000000000000000000e+00,1.300000000000000000e+01,1.000000000000000000e+00,-5.371093750000000000e-03,5.029296875000000000e-01,-1.276245117187500000e-01,8.547973632812500000e-01
-1.000000000000000000e+00,-7.000000000000000000e+00,-3.000000000000000000e+00,-7.000000000000000000e+00,1.300000000000000000e+01,7.000000000000000000e+00,5.000000000000000000e+00,-1.000000000000000000e+00,-5.554199218750000000e-03,5.031738281250000000e-01,-1.282958984375000000e-01,8.545532226562500000e-01
2.000000000000000000e+00,5.000000000000000000e+00,5.000000000000000000e+00,-1.900000000000000000e+01,-2.300000000000000000e+01,-1.100000000000000000e+01,-5.000000000000000000e+00,-3.000000000000000000e+00,-5.554199218750000000e-03,5.031738281250000000e-01,-1.282958984375000000e-01,8.545532226562500000e-01
4.000000000000000000e+00,8.000000000000000000e+00,0.000000000000000000e+00,1.900000000000000000e+01,1.900000000000000000e+01,1.000000000000000000e+01,-4.000000000000000000e+00,3.000000000000000000e+00,-5.554199218750000000e-03,5.031738281250000000e-01,-1.282958984375000000e-01,8.545532226562500000e-01
-1.000000000000000000e+01,-6.000000000000000000e+00,-2.000000000000000000e+00,-1.400000000000000000e+01,-1.400000000000000000e+01,-6.000000000000000000e+00,-1.000000000000000000e+00,-3.000000000000000000e+00,-5.554199218750000000e-03,5.031738281250000000e-01,-1.282958984375000000e-01,8.545532226562500000e-01
1.000000000000000000e+00,0.000000000000000000e+00,2.000000000000000000e+00,-6.000000000000000000e+00,-8.000000000000000000e+00,-1.000000000000000000e+00,-5.000000000000000000e+00,1.000000000000000000e+00,-4.394531250000000000e-03,5.030517578125000000e-01,-1.295776367187500000e-01,8.544311523437500000e-01
7.000000000000000000e+00,0.000000000000000000e+00,-5.000000000000000000e+00,-1.300000000000000000e+01,-3.000000000000000000e+00,-3.000000000000000000e+00,4.000000000000000000e+00,1.000000000000000000e+00,-4.394531250000000000e-03,5.030517578125000000e-01,-1.295776367187500000e-01,8.544311523437500000e-01
-1.700000000000000000e+01,-1.100000000000000000e+01,3.000000000000000000e+00,1.900000000000000000e+01,4.000000000000000000e+00,-3.000000000000000000e+00,-6.000000000000000000e+00,-3.000000000000000000e+00,-4.394531250000000000e-03,5.030517578125000000e-01,-1.295776367187500000e-01,8.544311523437500000e-01
9.000000000000000000e+00,7.000000000000000000e+00,5.000000000000000000e+00,4.000000000000000000e+00,2.000000000000000000e+00,5.000000000000000000e+00,4.000000000000000000e+00,0.000000000000000000e+00,-4.394531250000000000e-03,5.030517578125000000e-01,-1.295776367187500000e-01,8.544311523437500000e-01
4.000000000000000000e+00,1.000000000000000000e+00,-2.000000000000000000e+00,-4.000000000000000000e+00,4.000000000000000000e+00,8.000000000000000000e+00,1.400000000000000000e+01,2.000000000000000000e+00,-3.417968750000000000e-03,5.026855468750000000e-01,-1.301269531250000000e-01,8.546142578125000000e-01
-1.800000000000000000e+01,-9.000000000000000000e+00,7.000000000000000000e+00,-9.000000000000000000e+00,-6.000000000000000000e+00,-1.000000000000000000e+00,-7.000000000000000000e+00,-1.000000000000000000e+00,-3.417968750000000000e-03,5.026855468750000000e-01,-1.301269531250000000e-01,8.546142578125000000e-01
4.000000000000000000e+00,-1.000000000000000000e+00,2.000000000000000000e+01,6.000000000000000000e+00,4.000000000000000000e+00,-6.000000000000000000e+00,-2.700000000000000000e+01,-3.000000000000000000e+00,-3.417968750000000000e-03,5.026855468750000000e-01,-1.301269531250000000e-01,8.546142578125000000e-01
1.000000000000000000e+00,-3.000000000000000000e+00,-4.500000000000000000e+01,-6.000000000000000000e+00,-2.000000000000000000e+00,1.100000000000000000e+01,2.700000000000000000e+01,-1.000000000000000000e+00,-3.417968750000000000e-03,5.026855468750000000e-01,-1.301269531250000000e-01,8.546142578125000000e-01
-3.000000000000000000e+00,-3.000000000000000000e+00,1.100000000000000000e+01,3.000000000000000000e+00,-3.000000000000000000e+00,2.000000000000000000e+00,-5.000000000000000000e+00,-1.000000000000000000e+00,-4.089355468750000000e-03,5.021362304687500000e-01,-1.295776367187500000e-01,8.549804687500000000e-01
6.000000000000000000e+00,6.000000000000000000e+00,1.800000000000000000e+01,-1.000000000000000000e+00,-2.000000000000000000e+00,2.000000000000000000e+00,1.400000000000000000e+01,-1.000000000000000000e+00,-4.089355468750000000e-03,5.021362304687500000e-01,-1.295776367187500000e-01,8.549804687500000000e-01
-2.000000000000000000e+00,-5.000000000000000000e+00,-2.000000000000000000e+01,1.000000000000000000e+00,8.000000000000000000e+00,1.000000000000000000e+00,-1.100000000000000000e+01,1.000000000000000000e+00,-4.089355468750000000e-03,5.021362304687500000e-01,-1.295776367187500000e-01,8.549804687500000000e-01
-3.000000000000000000e+00,-1.000000000000000000e+00,-6.000000000000000000e+00,-3.000000000000000000e+00,5.000000000000000000e+00,-6.000000000000000000e+00,-6.000000000000000000e+00,-2.000000000000000000e+00,-4.089355468750000000e-03,5.021362304687500000e-01,-1.295776367187500000e-01,8.549804687500000000e-01
-4.000000000000000000e+00,-8.000000000000000000e+00,-2.800000000000000000e+01,-1.800000000000000000e+01,-3.500000000000000000e+01,-1.200000000000000000e+01,-7.000000000000000000e+00,-4.000000000000000000e+00,-5.004882812500000000e-03,5.014038085937500000e-01,-1.293334960937500000e-01,8.554077148437500000e-01
8.000000000000000000e+00,8.000000000000000000e+00,1.500000000000000000e+01,1.100000000000000000e+01,2.000000000000000000e+01,3.000000000000000000e+00,0.000000000000000000e+00,2.000000000000000000e+00,-5.004882812500000000e-03,5.014038085937500000e-01,-1.293334960937500000e-01,8.554077148437500000e-01
-1.000000000000000000e+00,2.000000000000000000e+00,1.700000000000000000e+01,2.900000000000000000e+01,6.000000000000000000e+00,3.000000000000000000e+00,-2.000000000000000000e+00,-1.000000000000000000e+00,-5.004882812500000000e-03,5.014038085937500000e-01,-1.293334960937500000e-01,8.554077148437500000e-01
4.000000000000000000e+00,1.000000000000000000e+00,1.000000000000000000e+00,-3.000000000000000000e+00,-9.000000000000000000e+00,-5.000000000000000000e+00,-3.000000000000000000e+00,0.000000000000000000e+00,-5.004882812500000000e-03,5.014038085937500000e-01,-1.293334960937500000e-01,8.554077148437500000e-01
-1.600000000000000000e+01,-6.000000000000000000e+00,-1.100000000000000000e+01,-1.600000000000000000e+01,-1.400000000000000000e+01,-5.000000000000000000e+00,3.000000000000000000e+00,-1.000000000000000000e+00,-4.943847656250000000e-03,5.009765625000000000e-01,-1.298217773437500000e-01,8.555908203125000000e-01
3.000000000000000000e+00,0.000000000000000000e+00,-1.000000000000000000e+01,-2.400000000000000000e+01,-5.000000000000000000e+00,-6.000000000000000000e+00,-7.000000000000000000e+00,-2.000000000000000000e+00,-4.943847656250000000e-03,5.009765625000000000e-01,-1.298217773437500000e-01,8.555908203125000000e-01
-2.000000000000000000e+00,-4.000000000000000000e+00,8.000000000000000000e+00,2.400000000000000000e+01,2.200000000000000000e+01,8.000000000000000000e+00,7.000000000000000000e+00,1.000000000000000000e+00,-4.943847656250000000e-03,5.009765625000000000e-01,-1.298217773437500000e-01,8.555908203125000000e-01
2.000000000000000000e+00,2.000000000000000000e+00,2.000000000000000000e+00,-4.000000000000000000e+00,-7.000000000000000000e+00,-1.000000000000000000e+01,-8.000000000000000000e+00,-2.000000000000000000e+00,-4.943847656250000000e-03,5.009765625000000000e-01,-1.298217773437500000e-01,8.555908203125000000e-01
-2.000000000000000000e+00,-3.000000000000000000e+00,5.000000000000000000e+00,6.000000000000000000e+00,1.100000000000000000e+01,8.000000000000000000e+00,0.000000000000000000e+00,-1.000000000000000000e+00,-4.638671875000000000e-03,5.007324218750000000e-01,-1.306762695312500000e-01,8.556518554687500000e-01
-6.000000000000000000e+00,-6.000000000000000000e+00,-1.800000000000000000e+01,2.000000000000000000e+00,-5.000000000000000000e+00,-1.000000000000000000e+00,-7.000000000000000000e+00,-2.000000000000000000e+00,-4.638671875000000000e-03,5.007324218750000000e-01,-1.306762695312500000e-01,8.556518554687500000e-01
4.000000000000000000e+00,1.000000000000000000e+00,-1.300000000000000000e+01,-1.500000000000000000e+01,-3.000000000000000000e+00,-1.000000000000000000e+00,-3.000000000000000000e+00,1.000000000000000000e+00,-4.638671875000000000e-03,5.007324218750000000e-01,-1.306762695312500000e-01,8.556518554687500000e-01
-4.000000000000000000e+00,-6.000000000000000000e+00,2.000000000000000000e+00,-1.000000000000000000e+00,-5.000000000000000000e+00,-1.500000000000000000e+01,-1.500000000000000000e+01,-4.000000000000000000e+00,-4.638671875000000000e-03,5.007324218750000000e-01,-1.306762695312500000e-01,8.556518554687500000e-01
2.000000000000000000e+00,-1.000000000000000000e+00,9.000000000000000000e+00,-3.000000000000000000e+00,1.000000000000000000e+01,2.400000000000000000e+01,2.000000000000000000e+01,3.000000000000000000e+00,-4.272460937500000000e-03,5.005493164062500000e-01,-1.312255859375000000e-01,8.556518554687500000e-01
-2.000000000000000000e+00,-5.000000000000000000e+00,-1.300000000000000000e+01,1.600000000000000000e+01,2.000000000000000000e+00,-4.000000000000000000e+00,1.000000000000000000e+00,-2.000000000000000000e+00,-4.272460937500000000e-03,5.005493164062500000e-01,-1.312255859375000000e-01,8.556518554687500000e-01
0.000000000000000000e+00,2.000000000000000000e+00,-2.000000000000000000e+00,-1.700000000000000000e+01,-9.000000000000000000e+00,0.000000000000000000e+00,2.000000000000000000e+00,-1.000000000000000000e+00,-4.272460937500000000e-03,5.005493164062500000e-01,-1.312255859375000000e-01,8.556518554687500000e-01
-5.000000000000000000e+00,-4.000000000000000000e+00,-1.000000000000000000e+01,-2.000000000000000000e+01,-1.500000000000000000e+01,-1.000000000000000000e+01,-9.000000000000000000e+00,0.000000000000000000e+00,-4.272460937500000000e-03,5.005493164062500000e-01,-1.312255859375000000e-01,8.556518554687500000e-01
1.000000000000000000e+00,-2.000000000000000000e+00,1.000000000000000000e+00,1.200000000000000000e+01,6.000000000000000000e+00,-1.200000000000000000e+01,-1.200000000000000000e+01,-2.000000000000000000e+00,-4.394531250000000000e-03,5.004882812500000000e-01,-1.309204101562500000e-01,8.557128906250000000e-01
1.000000000000000000e+00,4.000000000000000000e+00,1.700000000000000000e+01,4.000000000000000000e+00,-2.000000000000000000e+00,2.000000000000000000e+00,3.000000000000000000e+00,-3.000000000000000000e+00,-4.394531250000000000e-03,5.004882812500000000e-01,-1.309204101562500000e-01,8.557128906250000000e-01
1.000000000000000000e+00,-1.000000000000000000e+00,-1.600000000000000000e+01,0.000000000000000000e+00,3.000000000000000000e+00,1.000000000000000000e+00,-3.000000000000000000e+00,0.000000000000000000e+00,-4.394531250000000000e-03,5.004882812500000000e-01,-1.309204101562500000e-01,8.557128906250000000e-01
-4.000000000000000000e+00,-3.000000000000000000e+00,1.200000000000000000e+01,-1.000000000000000000e+00,9.000000000000000000e+00,3.000000000000000000e+00,3.000000000000000000e+00,-1.000000000000000000e+00,-4.394531250000000000e-03,5.004882812500000000e-01,-1.309204101562500000e-01,8.557128906250000000e-01
5.000000000000000000e+00,4.000000000000000000e+00,-1.000000000000000000e+00,1.700000000000000000e+01,2.000000000000000000e+00,-6.000000000000000000e+00,-3.000000000000000000e+00,-1.000000000000000000e+00,-5.004882812500000000e-03,5.006103515625000000e-01,-1.300659179687500000e-01,8.557739257812500000e-01
7.000000000000000000e+00,2.000000000000000000e+00,8.000000000000000000e+00,-3.000000000000000000e+00,-5.000000000000000000e+00,-3.000000000000000000e+00,2.000000000000000000e+00,1.000000000000000000e+00,-5.004882812500000000e-03,5.006103515625000000e-01,-1.300659179687500000e-01,8.557739257812500000e-01
-1.300000000000000000e+01,-6.000000000000000000e+00,-1.200000000000000000e+01,-1.100000000000000000e+01,-1.000000000000000000e+01,-6.000000000000000000e+00,-4.000000000000000000e+00,-3.000000000000000000e+00,-5.004882812500000000e-03,5.006103515625000000e-01,-1.300659179687500000e-01,8.557739257812500000e-01
6.000000000000000000e+00,4.000000000000000000e+00,1.200000000000000000e+01,-2.000000000000000000e+00,-3.000000000000000000e+00,3.000000000000000000e+00,2.000000000000000000e+00,1.000000000000000000e+00,-5.004882812500000000e-03,5.006103515625000000e-01,-1.300659179687500000e-01,8.557739257812500000e-01
-1.100000000000000000e+01,-3.000000000000000000e+00,-1.300000000000000000e+01,0.000000000000000000e+00,1.000000000000000000e+00,-3.000000000000000000e+00,-5.000000000000000000e+00,-4.000000000000000000e+00,-6.042480468750000000e-03,5.006713867187500000e-01,-1.294555664062500000e-01,8.558349609375000000e-01
-1.000000000000000000e+00,-2.000000000000000000e+00,6.000000000000000000e+00,1.000000000000000000e+00,0.000000000000000000e+00,-1.000000000000000000e+00,-5.000000000000000000e+00,-2.000000000000000000e+00,-6.042480468750000000e-03,5.006713867187500000e-01,-1.294555664062500000e-01,8.558349609375000000e-01
2.000000000000000000e+00,4.000000000000000000e+00,3.000000000000000000e+00,-1.100000000000000000e+01,-3.000000000000000000e+00,-3.000000000000000000e+00,-1.000000000000000000e+00,-1.000000000000000000e+00,-6.042480468750000000e-03,5.006713867187500000e-01,-1.294555664062500000e-01,8.558349609375000000e-01
3.000000000000000000e+00,-6.000000000000000000e+00,-2.000000000000000000e+01,1.000000000000000000e+00,3.000000000000000000e+00,1.100000000000000000e+01,7.000000000000000000e+00,1.000000000000000000e+00,-6.042480468750000000e-03,5.006713867187500000e-01,-1.294555664062500000e-01,8.558349609375000000e-01
0.000000000000000000e+00,1.000000000000000000e+00,3.000000000000000000e+00,4.000000000000000000e+00,5.000000000000000000e+00,-9.000000000000000000e+00,-9.000000000000000000e+00,0.000000000000000000e+00,-6.103515625000000000e-03,5.008544921875000000e-01,-1.292114257812500000e-01,8.557739257812500000e-01
-3.000000000000000000e+00,-2.000000000000000000e+00,-8.000000000000000000e+00,5.000000000000000000e+00,-1.000000000000000000e+00,7.000000000000000000e+00,1.200000000000000000e+01,0.000000000000000000e+00,-6.103515625000000000e-03,5.008544921875000000e-01,-1.292114257812500000e-01,8.557739257812500000e-01
1.000000000000000000e+00,2.000000000000000000e+00,0.000000000000000000e+00,-1.300000000000000000e+01,-6.000000000000000000e+00,-7.000000000000000000e+00,-1.200000000000000000e+01,-2.000000000000000000e+00,-6.103515625000000000e-03,5.008544921875000000e-01,-1.292114257812500000e-01,8.557739257812500000e-01
-5.000000000000000000e+00,0.000000000000000000e+00,2.000000000000000000e+00,5.000000000000000000e+00,-3.000000000000000000e+00,1.000000000000000000e+00,1.000000000000000000e+00,0.000000000000000000e+00,-6.103515625000000000e-03,5.008544921875000000e-01,-1.292114257812500000e-01,8.557739257812500000e-01
3.000000000000000000e+00,1.000000000000000000e+00,1.000000000000000000e+00,-3.000000000000000000e+00,-1.000000000000000000e+00,-1.200000000000000000e+01,-1.100000000000000000e+01,-1.000000000000000000e+00,-5.310058593750000000e-03,5.008544921875000000e-01,-1.291503906250000000e-01,8.557739257812500000e-01
-2.000000000000000000e+00,1.000000000000000000e+00,2.000000000000000000e+00,-1.400000000000000000e+01,-1.300000000000000000e+01,-4.000000000000000000e+00,1.000000000000000000e+00,-2.000000000000000000e+00,-5.310058593750000000e-03,5.008544921875000000e-01,-1.291503906250000000e-01,8.557739257812500000e-01
0.000000000000000000e+00,-6.000000000000000000e+00,-5.000000000000000000e+00,1.300000000000000000e+01,1.000000000000000000e+01,5.000000000000000000e+00,3.000000000000000000e+00,-1.000000000000000000e+00,-5.310058593750000000e-03,5.008544921875000000e-01,-1.291503906250000000e-01,8.557739257812500000e-01
-1.000000000000000000e+00,4.000000000000000000e+00,2.000000000000000000e+00,1.700000000000000000e+01,1.500000000000000000e+01,2.000000000000000000e+00,-1.000000000000000000e+00,-1.000000000000000000e+00,-5.310058593750000000e-03,5.008544921875000000e-01,-1.291503906250000000e-01,8.557739257812500000e-01
-2.000000000000000000e+00,-3.000000000000000000e+00,9.000000000000000000e+00,-4.000000000000000000e+00,2.000000000000000000e+00,-3.000000000000000000e+00,-4.000000000000000000e+00,-1.000000000000000000e+00,-4.699707031250000000e-03,5.008544921875000000e-01,-1.286010742187500000e-01,8.558959960937500000e-01
1.000000000000000000e+00,-1.000000000000000000e+00,-7.000000000000000000e+00,-2.000000000000000000e+01,-9.000000000000000000e+00,-6.000000000000000000e+00,-7.000000000000000000e+00,-1.000000000000000000e+00,-4.699707031250000000e-03,5.008544921875000000e-01,-1.286010742187500000e-01,8.558959960937500000e-01
0.000000000000000000e+00,1.000000000000000000e+00,-3.000000000000000000e+00,1.000000000000000000e+01,4.000000000000000000e+00,6.000000000000000000e+00,7.000000000000000000e+00,-1.000000000000000000e+00,-4.699707031250000000e-03,5.008544921875000000e-01,-1.286010742187500000e-01,8.558959960937500000e-01
-3.000000000000000000e+00,1.000000000000000000e+00,1.100000000000000000e+01,1.000000000000000000e+00,-8.000000000000000000e+00,-4.000000000000000000e+00,-4.000000000000000000e+00,-2.000000000000000000e+00,-4.699707031250000000e-03,5.008544921875000000e-01,-1.286010742187500000e-01,8.558959960937500000e-01
0.000000000000000000e+00,-1.000000000000000000e+00,0.000000000000000000e+00,-9.000000000000000000e+00,-2.000000000000000000e+00,1.000000000000000000e+00,2.000000000000000000e+00,0.000000000000000000e+00,-4.943847656250000000e-03,5.006103515625000000e-01,-1.278686523437500000e-01,8.561401367187500000e-01
-3.000000000000000000e+00,-4.000000000000000000e+00,-2.000000000000000000e+00,4.000000000000000000e+00,-3.000000000000000000e+00,-1.300000000000000000e+01,-1.400000000000000000e+01,-1.000000000000000000e+00,-4.943847656250000000e-03,5.006103515625000000e-01,-1.278686523437500000e-01,8.561401367187500000e-01
9.000000000000000000e+00,6.000000000000000000e+00,8.000000000000000000e+00,-9.000000000000000000e+00,-5.000000000000000000e+00,2.000000000000000000e+01,2.200000000000000000e+01,2.000000000000000000e+00,-4.943847656250000000e-03,5.006103515625000000e-01,-1.278686523437500000e-01,8.561401367187500000e-01
-1.700000000000000000e+01,-8.000000000000000000e+00,2.100000000000000000e+01,6.000000000000000000e+00,5.000000000000000000e+00,-1.000000000000000000e+00,1.000000000000000000e+00,-2.000000000000000000e+00,-4.943847656250000000e-03,5.006103515625000000e-01,-1.278686523437500000e-01,8.561401367187500000e-01
6.000000000000000000e+00,3.000000000000000000e+00,-4.800000000000000000e+01,-9.000000000000000000e+00,-6.000000000000000000e+00,0.000000000000000000e+00,1.000000000000000000e+00,-1.000000000000000000e+00,-5.249023437500000000e-03,5.002441406250000000e-01,-1.275024414062500000e-01,8.563842773437500000e-01
-4.000000000000000000e+00,-6.000000000000000000e+00,8.000000000000000000e+00,-3.000000000000000000e+00,1.000000000000000000e+00,-4.000000000000000000e+00,-3.000000000000000000e+00,-2.000000000000000000e+00,-5.249023437500000000e-03,5.002441406250000000e-01,-1.275024414062500000e-01,8.563842773437500000e-01
-3.000000000000000000e+00,-7.000000000000000000e+00,-1.400000000000000000e+01,-1.000000000000000000e+01,-6.000000000000000000e+00,-8.000000000000000000e+00,-1.000000000000000000e+01,-3.000000000000000000e+00,-5.249023437500000000e-03,5.002441406250000000e-01,-1.275024414062500000e-01,8.563842773437500000e-01
4.000000000000000000e+00,3.000000000000000000e+00,8.000000000000000000e+00,3.000000000000000000e+00,-9.000000000000000000e+00,-2.000000000000000000e+00,0.000000000000000000e+00,1.000000000000000000e+00,-5.249023437500000000e-03,5.002441406250000000e-01,-1.275024414062500000e-01,8.563842773437500000e-01
0.000000000000000000e+00,9.000000000000000000e+00,2.500000000000000000e+01,6.000000000000000000e+00,5.000000000000000000e+00,-6.000000000000000000e+00,-1.000000000000000000e+01,0.000000000000000000e+00,-5.004882812500000000e-03,4.998779296875000000e-01,-1.277465820312500000e-01,8.565673828125000000e-01
-2.000000000000000000e+00,0.000000000000000000e+00,-1.700000000000000000e+01,-1.300000000000000000e+01,-2.000000000000000000e+00,-5.000000000000000000e+00,-7.000000000000000000e+00,-3.000000000000000000e+00,-5.004882812500000000e-03,4.998779296875000000e-01,-1.277465820312500000e-01,8.565673828125000000e-01
-1.000000000000000000e+00,-4.000000000000000000e+00,1.200000000000000000e+01,2.100000000000000000e+01,3.000000000000000000e+00,2.000000000000000000e+00,1.000000000000000000e+01,0.000000000000000000e+00,-5.004882812500000000e-03,4.998779296875000000e-01,-1.277465820312500000e-01,8.565673828125000000e-01
0.000000000000000000e+00,-3.000000000000000000e+00,-7.000000000000000000e+00,-1.000000000000000000e+00,-2.000000000000000000e+00,3.000000000000000000e+00,2.000000000000000000e+00,-3.000000000000000000e+00,-5.004882812500000000e-03,4.998779296875000000e-01,-1.277465820312500000e-01,8.565673828125000000e-01
-3.000000000000000000e+00,-3.000000000000000000e+00,-1.800000000000000000e+01,-9.000000000000000000e+00,-5.000000000000000000e+00,-2.000000000000000000e+00,1.000000000000000000e+00,-3.000000000000000000e+00,-3.967285156250000000e-03,4.994506835937500000e-01,-1.283569335937500000e-01,8.566894531250000000e-01
2.000000000000000000e+00,2.000000000000000000e+00,3.400000000000000000e+01,2.400000000000000000e+01,2.300000000000000000e+01,1.000000000000000000e+00,-5.000000000000000000e+00,-1.000000000000000000e+00,-3.967285156250000000e-03,4.994506835937500000e-01,-1.283569335937500000e-01,8.566894531250000000e-01
0.000000000000000000e+00,0.000000000000000000e+00,-3.200000000000000000e+01,-2.300000000000000000e+01,-1.300000000000000000e+01,-8.000000000000000000e+00,-4.000000000000000000e+00,0.000000000000000000e+00,-3.967285156250000000e-03,4.994506835937500000e-01,-1.283569335937500000e-01,8.566894531250000000e-01
4.000000000000000000e+00,1.000000000000000000e+00,-1.200000000000000000e+01,-1.100000000000000000e+01,-8.000000000000000000e+00,-1.000000000000000000e+00,1.000000000000000000e+00,-2.000000000000000000e+00,-3.967285156250000000e-03,4.994506835937500000e-01,-1.283569335937500000e-01,8.566894531250000000e-01
-3.000000000000000000e+00,-4.000000000000000000e+00,6.000000000000000000e+00,4.000000000000000000e+00,1.000000000000000000e+00,-5.000000000000000000e+00,-1.000000000000000000e+00,0.000000000000000000e+00,-3.356933593750000000e-03,4.990844726562500000e-01,-1.287231445312500000e-01,8.569335937500000000e-01
-2.000000000000000000e+00,-2.000000000000000000e+00,1.600000000000000000e+01,1.400000000000000000e+01,-6.000000000000000000e+00,0.000000000000000000e+00,2.000000000000000000e+00,0.000000000000000000e+00,-3.356933593750000000e-03,4.990844726562500000e-01,-1.287231445312500000e-01,8.569335937500000000e-01
3.000000000000000000e+00,7.000000000000000000e+00,-4.000000000000000000e+00,1.000000000000000000e+01,1.800000000000000000e+01,0.000000000000000000e+00,-2.000000000000000000e+00,1.000000000000000000e+00,-3.356933593750000000e-03,4.990844726562500000e-01,-1.287231445312500000e-01,8.569335937500000000e-01
-2.000000000000000000e+00,-9.000000000000000000e+00,0.000000000000000000e+00,-1.700000000000000000e+01,-8.000000000000000000e+00,1.000000000000000000e+00,4.000000000000000000e+00,0.000000000000000000e+00,-3.356933593750000000e-03,4.990844726562500000e-01,-1.287231445312500000e-01,8.569335937500000000e-01
0.000000000000000000e+00,-6.000000000000000000e+00,-3.300000000000000000e+01,-1.300000000000000000e+01,-3.000000000000000000e+00,3.000000000000000000e+00,-1.000000000000000000e+00,-2.000000000000000000e+00,-3.356933593750000000e-03,4.985351562500000000e-01,-1.286010742187500000e-01,8.572387695312500000e-01
4.000000000000000000e+00,0.000000000000000000e+00,1.000000000000000000e+00,1.200000000000000000e+01,-1.000000000000000000e+00,-7.000000000000000000e+00,2.000000000000000000e+00,1.000000000000000000e+00,-3.356933593750000000e-03,4.985351562500000000e-01,-1.286010742187500000e-01,8.572387695312500000e-01
-1.400000000000000000e+01,-2.000000000000000000e+00,7.000000000000000000e+00,-2.000000000000000000e+01,-4.000000000000000000e+00,1.200000000000000000e+01,1.300000000000000000e+01,0.000000000000000000e+00,-3.356933593750000000e-03,4.985351562500000000e-01,-1.286010742187500000e-01,8.572387695312500000e-01
3.000000000000000000e+00,1.000000000000000000e+00,-1.100000000000000000e+01,3.000000000000000000e+00,-2.000000000000000000e+00,-9.000000000000000000e+00,-9.000000000000000000e+00,-2.000000000000000000e+00,-3.356933593750000000e-03,4.985351562500000000e-01,-1.286010742187500000e-01,8.572387695312500000e-01
0.000000000000000000e+00,2.000000000000000000e+00,3.000000000000000000e+01,-3.100000000000000000e+01,-1.600000000000000000e+01,3.000000000000000000e+00,4.000000000000000000e+00,-2.000000000000000000e+00,-3.723144531250000000e-03,4.982910156250000000e-01,-1.285400390625000000e-01,8.573608398437500000e-01
3.000000000000000000e+00,3.000000000000000000e+00,-2.000000000000000000e+00,4.100000000000000000e+01,1.800000000000000000e+01,1.100000000000000000e+01,6.000000000000000000e+00,0.000000000000000000e+00,-3.723144531250000000e-03,4.982910156250000000e-01,-1.285400390625000000e-01,8.573608398437500000e-01
2.000000000000000000e+00,0.000000000000000000e+00,-2.500000000000000000e+01,-7.000000000000000000e+00,-6.000000000000000000e+00,-1.000000000000000000e+01,-1.000000000000000000e+01,-1.000000000000000000e+00,-3.723144531250000000e-03,4.982910156250000000e-01,-1.285400390625000000e-01,8.573608398437500000e-01
-5.000000000000000000e+00,-4.000000000000000000e+00,4.000000000000000000e+00,2.000000000000000000e+00,9.000000000000000000e+00,1.000000000000000000e+00,-1.000000000000000000e+00,-2.000000000000000000e+00,-3.723144531250000000e-03,4.982910156250000000e-01,-1.285400390625000000e-01,8.573608398437500000e-01
1.000000000000000000e+00,5.000000000000000000e+00,3.500000000000000000e+01,-5.000000000000000000e+00,-5.000000000000000000e+00,6.000000000000000000e+00,8.000000000000000000e+00,3.000000000000000000e+00,-4.028320312500000000e-03,4.982910156250000000e-01,-1.287231445312500000e-01,8.573608398437500000e-01
-6.000000000000000000e+00,-1.300000000000000000e+01,-6.300000000000000000e+01,-1.200000000000000000e+01,-1.100000000000000000e+01,-3.000000000000000000e+00,-2.000000000000000000e+00,-4.000000000000000000e+00,-4.028320312500000000e-03,4.982910156250000000e-01,-1.287231445312500000e-01,8.573608398437500000e-01
2.000000000000000000e+00,-3.000000000000000000e+00,3.000000000000000000e+00,7.000000000000000000e+00,1.700000000000000000e+01,-1.000000000000000000e+00,-1.000000000000000000e+00,-4.000000000000000000e+00,-4.028320312500000000e-03,4.982910156250000000e-01,-1.287231445312500000e-01,8.573608398437500000e-01
1.000000000000000000e+00,6.000000000000000000e+00,-7.000000000000000000e+00,-4.000000000000000000e+00,-6.000000000000000000e+00,0.000000000000000000e+00,0.000000000000000000e+00,-1.000000000000000000e+00,-4.028320312500000000e-03,4.982910156250000000e-01,-1.287231445312500000e-01,8.573608398437500000e-01
0.000000000000000000e+00,-4.000000000000000000e+00,6.000000000000000000e+00,1.800000000000000000e+01,-2.000000000000000000e+00,-6.000000000000000000e+00,-3.000000000000000000e+00,0.000000000000000000e+00,-4.089355468750000000e-03,4.981689453125000000e-01,-1.291503906250000000e-01,8.573608398437500000e-01
5.000000000000000000e+00,3.000000000000000000e+00,1.500000000000000000e+01,-1.300000000000000000e+01,0.000000000000000000e+00,3.000000000000000000e+00,6.000000000000000000e+00,0.000000000000000000e+00,-4.089355468750000000e-03,4.981689453125000000e-01,-1.291503906250000000e-01,8.573608398437500000e-01
-4.000000000000000000e+00,-3.000000000000000000e+00,4.000000000000000000e+00,0.000000000000000000e+00,-8.000000000000000000e+00,-1.000000000000000000e+00,-7.000000000000000000e+00,-2.000000000000000000e+00,-4.089355468750000000e-03,4.981689453125000000e-01,-1.291503906250000000e-01,8.573608398437500000e-01
-4.000000000000000000e+00,-6.000000000000000000e+00,-5.000000000000000000e+00,-2.000000000000000000e+00,0.000000000000000000e+00,-1.000000000000000000e+00,1.000000000000000000e+00,-1.000000000000000000e+00,-4.089355468750000000e-03,4.981689453125000000e-01,-1.291503906250000000e-01,8.573608398437500000e-01
2.000000000000000000e+00,3.000000000000000000e+00,-1.800000000000000000e+01,1.400000000000000000e+01,8.000000000000000000e+00,-1.000000000000000000e+00,5.000000000000000000e+00,2.000000000000000000e+00,-3.906250000000000000e-03,4.978027343750000000e-01,-1.297607421875000000e-01,8.574829101562500000e-01
-2.000000000000000000e+00,0.000000000000000000e+00,1.800000000000000000e+01,-1.700000000000000000e+01,-6.000000000000000000e+00,1.200000000000000000e+01,8.000000000000000000e+00,2.000000000000000000e+00,-3.906250000000000000e-03,4.978027343750000000e-01,-1.297607421875000000e-01,8.574829101562500000e-01
2.000000000000000000e+00,-3.000000000000000000e+00,-1.000000000000000000e+00,-1.100000000000000000e+01,-1.400000000000000000e+01,-7.000000000000000000e+00,-3.000000000000000000e+00,-2.000000000000000000e+00,-3.906250000000000000e-03,4.978027343750000000e-01,-1.297607421875000000e-01,8.574829101562500000e-01
0.000000000000000000e+00,3.000000000000000000e+00,3.000000000000000000e+00,2.200000000000000000e+01,1.500000000000000000e+01,1.000000000000000000e+00,-4.000000000000000000e+00,0.000000000000000000e+00,-3.906250000000000000e-03,4.978027343750000000e-01,-1.297607421875000000e-01,8.574829101562500000e-01
-1.000000000000000000e+00,-3.000000000000000000e+00,3.000000000000000000e+00,-4.000000000000000000e+00,-1.000000000000000000e+00,-2.000000000000000000e+00,-5.000000000000000000e+00,0.000000000000000000e+00,-3.234863281250000000e-03,4.973754882812500000e-01,-1.303100585937500000e-01,8.576049804687500000e-01
-5.000000000000000000e+00,-2.000000000000000000e+00,-1.000000000000000000e+00,0.000000000000000000e+00,-5.000000000000000000e+00,-6.000000000000000000e+00,-6.000000000000000000e+00,-1.000000000000000000e+00,-3.234863281250000000e-03,4.973754882812500000e-01,-1.303100585937500000e-01,8.576049804687500000e-01
2.000000000000000000e+00,4.000000000000000000e+00,1.500000000000000000e+01,1.000000000000000000e+01,4.000000000000000000e+00,-2.000000000000000000e+00,-2.000000000000000000e+00,3.000000000000000000e+00,-3.234863281250000000e-03,4.973754882812500000e-01,-1.303100585937500000e-01,8.576049804687500000e-01
-1.000000000000000000e+00,-1.000000000000000000e+00,1.300000000000000000e+01,-3.000000000000000000e+00,-8.000000000000000000e+00,-5.000000000000000000e+00,-4.000000000000000000e+00,-1.000000000000000000e+00,-3.234863281250000000e-03,4.973754882812500000e-01,-1.303100585937500000e-01,8.576049804687500000e-01
1.000000000000000000e+00,0.000000000000000000e+00,-4.000000000000000000e+00,5.000000000000000000e+00,2.000000000000000000e+00,4.000000000000000000e+00,1.000000000000000000e+00,1.000000000000000000e+00,-3.173828125000000000e-03,4.973754882812500000e-01,-1.307373046875000000e-01,8.576049804687500000e-01
-3.000000000000000000e+00,-1.000000000000000000e+00,-2.200000000000000000e+01,-8.000000000000000000e+00,5.000000000000000000e+00,0.000000000000000000e+00,-1.000000000000000000e+00,-3.000000000000000000e+00,-3.173828125000000000e-03,4.973754882812500000e-01,-1.307373046875000000e-01,8.576049804687500000e-01
-1.000000000000000000e+00,-1.000000000000000000e+00,2.100000000000000000e+01,-1.000000000000000000e+00,-3.000000000000000000e+00,-1.000000000000000000e+00,-2.000000000000000000e+00,1.000000000000000000e+00,-3.173828125000000000e-03,4.973754882812500000e-01,-1.307373046875000000e-01,8.576049804687500000e-01
1.000000000000000000e+00,1.000000000000000000e+00,-1.800000000000000000e+01,-3.000000000000000000e+00,-5.000000000000000000e+00,-1.000000000000000000e+00,1.000000000000000000e+00,-1.000000000000000000e+00,-3.173828125000000000e-03,4.973754882812500000e-01,-1.307373046875000000e-01,8.576049804687500000e-01
-1.000000000000000000e+00,0.000000000000000000e+00,3.000000000000000000e+00,-8.000000000000000000e+00,-3.000000000000000000e+00,-3.000000000000000000e+00,-1.000000000000000000e+00,-1.000000000000000000e+00,-2.868652343750000000e-03,4.974365234375000000e-01,-1.308593750000000000e-01,8.575439453125000000e-01
-1.000000000000000000e+00,8.000000000000000000e+00,4.100000000000000000e+01,2.900000000000000000e+01,7.000000000000000000e+00,0.000000000000000000e+00,-2.000000000000000000e+00,-2.000000000000000000e+00,-2.868652343750000000e-03,4.974365234375000000e-01,-1.308593750000000000e-01,8.575439453125000000e-01
-4.000000000000000000e+00,-7.000000000000000000e+00,-3.500000000000000000e+01,-1.700000000000000000e+01,-8.000000000000000000e+00,-1.200000000000000000e+01,-6.000000000000000000e+00,-2.000000000000000000e+00,-2.868652343750000000e-03,4.974365234375000000e-01,-1.308593750000000000e-01,8.575439453125000000e-01
1.000000000000000000e+00,0.000000000000000000e+00,2.000000000000000000e+01,-4.000000000000000000e+00,-2.000000000000000000e+00,1.100000000000000000e+01,2.000000000000000000e+00,-3.000000000000000000e+00,-2.868652343750000000e-03,4.974365234375000000e-01,-1.308593750000000000e-01,8.575439453125000000e-01
-4.000000000000000000e+00,-6.000000000000000000e+00,-2.600000000000000000e+01,-2.000000000000000000e+00,-5.000000000000000000e+00,-9.000000000000000000e+00,-7.000000000000000000e+00,-3.000000000000000000e+00,-3.051757812500000000e-03,4.974365234375000000e-01,-1.307983398437500000e-01,8.575439453125000000e-01
-3.000000000000000000e+00,-1.000000000000000000e+00,-3.000000000000000000e+00,-4.000000000000000000e+00,4.000000000000000000e+00,2.000000000000000000e+00,-1.000000000000000000e+00,-3.000000000000000000e+00,-3.051757812500000000e-03,4.974365234375000000e-01,-1.307983398437500000e-01,8.575439453125000000e-01
0.000000000000000000e+00,2.000000000000000000e+00,-6.000000000000000000e+00,-4.000000000000000000e+00,1.000000000000000000e+00,1.000000000000000000e+01,1.700000000000000000e+01,-1.000000000000000000e+00,-3.051757812500000000e-03,4.974365234375000000e-01,-1.307983398437500000e-01,8.575439453125000000e-01
-2.000000000000000000e+00,0.000000000000000000e+00,-4.000000000000000000e+00,-1.000000000000000000e+00,-5.000000000000000000e+00,-7.000000000000000000e+00,-1.000000000000000000e+00,1.000000000000000000e+00,-3.051757812500000000e-03,4.974365234375000000e-01,-1.307983398437500000e-01,8.575439453125000000e-01
-5.000000000000000000e+00,-8.000000000000000000e+00,0.000000000000000000e+00,1.000000000000000000e+01,4.000000000000000000e+00,1.000000000000000000e+00,-2.000000000000000000e+00,-2.000000000000000000e+00,-3.173828125000000000e-03,4.970092773437500000e-01,-1.310424804687500000e-01,8.577270507812500000e-01
0.000000000000000000e+00,4.000000000000000000e+00,-8.000000000000000000e+00,-1.100000000000000000e+01,0.000000000000000000e+00,-1.000000000000000000e+00,1.000000000000000000e+00,0.000000000000000000e+00,-3.173828125000000000e-03,4.970092773437500000e-01,-1.310424804687500000e-01,8.577270507812500000e-01
0.000000000000000000e+00,-2.000000000000000000e+00,8.000000000000000000e+00,9.000000000000000000e+00,2.000000000000000000e+00,-5.000000000000000000e+00,-5.000000000000000000e+00,-1.000000000000000000e+00,-3.173828125000000000e-03,4.970092773437500000e-01,-1.310424804687500000e-01,8.577270507812500000e-01
-2.000000000000000000e+00,-2.000000000000000000e+00,-1.000000000000000000e+01,-5.000000000000000000e+00,-5.000000000000000000e+00,-7.000000000000000000e+00,-7.000000000000000000e+00,-1.000000000000000000e+00,-3.173828125000000000e-03,4.970092773437500000e-01,-1.310424804687500000e-01,8.577270507812500000e-01
-4.000000000000000000e+00,-3.000000000000000000e+00,5.000000000000000000e+00,-2.100000000000000000e+01,4.000000000000000000e+00,4.000000000000000000e+00,-2.000000000000000000e+00,-2.000000000000000000e+00,-3.356933593750000000e-03,4.966430664062500000e-01,-1.320190429687500000e-01,8.577880859375000000e-01
2.000000000000000000e+00,3.000000000000000000e+00,2.000000000000000000e+00,2.700000000000000000e+01,8.000000000000000000e+00,0.000000000000000000e+00,-2.000000000000000000e+00,3.000000000000000000e+00,-3.356933593750000000e-03,4.966430664062500000e-01,-1.320190429687500000e-01,8.577880859375000000e-01
-3.000000000000000000e+00,-5.000000000000000000e+00,5.000000000000000000e+00,-5.000000000000000000e+00,-9.000000000000000000e+00,-1.000000000000000000e+00,-4.000000000000000000e+00,0.000000000000000000e+00,-3.356933593750000000e-03,4.966430664062500000e-01,-1.320190429687500000e-01,8.577880859375000000e-01
-1.000000000000000000e+00,-3.000000000000000000e+00,-3.900000000000000000e+01,-8.000000000000000000e+00,-6.000000000000000000e+00,-1.000000000000000000e+00,0.000000000000000000e+00,0.000000000000000000e+00,-3.356933593750000000e-03,4.966430664062500000e-01,-1.320190429687500000e-01,8.577880859375000000e-01
-2.000000000000000000e+00,1.000000000000000000e+00,4.000000000000000000e+00,-3.000000000000000000e+00,-4.000000000000000000e+00,-3.000000000000000000e+00,-1.000000000000000000e+00,-1.000000000000000000e+00,-3.173828125000000000e-03,4.963378906250000000e-01,-1.334228515625000000e-01,8.577270507812500000e-01
-1.000000000000000000e+00,-3.000000000000000000e+00,7.000000000000000000e+00,-1.400000000000000000e+01,-9.000000000000000000e+00,-2.000000000000000000e+00,0.000000000000000000e+00,-2.000000000000000000e+00,-3.173828125000000000e-03,4.963378906250000000e-01,-1.334228515625000000e-01,8.577270507812500000e-01
-2.000000000000000000e+00,1.000000000000000000e+00,-5.000000000000000000e+00,0.000000000000000000e+00,-4.000000000000000000e+00,-2.000000000000000000e+00,-4.000000000000000000e+00,-3.000000000000000000e+00,-3.173828125000000000e-03,4.963378906250000000e-01,-1.334228515625000000e-01,8.577270507812500000e-01
0.000000000000000000e+00,-1.000000000000000000e+00,7.000000000000000000e+00,6.000000000000000000e+00,8.000000000000000000e+00,1.000000000000000000e+00,0.000000000000000000e+00,-1.000000000000000000e+00,-3.173828125000000000e-03,4.963378906250000000e-01,-1.334228515625000000e-01,8.577270507812500000e-01
1.000000000000000000e+00,1.000000000000000000e+00,5.000000000000000000e+00,1.200000000000000000e+01,-5.000000000000000000e+00,-1.000000000000000000e+01,-7.000000000000000000e+00,1.000000000000000000e+00,-2.929687500000000000e-03,4.960937500000000000e-01,-1.345214843750000000e-01,8.577270507812500000e-01
4.000000000000000000e+00,2.000000000000000000e+00,-9.000000000000000000e+00,-2.000000000000000000e+01,-2.000000000000000000e+00,7.000000000000000000e+00,0.000000000000000000e+00,5.000000000000000000e+00,-2.929687500000000000e-03,4.960937500000000000e-01,-1.345214843750000000e-01,8.577270507812500000e-01
-2.000000000000000000e+00,-3.000000000000000000e+00,2.000000000000000000e+00,7.000000000000000000e+00,-1.000000000000000000e+00,2.000000000000000000e+00,1.800000000000000000e+01,0.000000000000000000e+00,-2.929687500000000000e-03,4.960937500000000000e-01,-1.345214843750000000e-01,8.577270507812500000e-01
-1.000000000000000000e+00,-1.000000000000000000e+00,-6.000000000000000000e+00,-1.000000000000000000e+00,0.000000000000000000e+00,-3.000000000000000000e+00,1.000000000000000000e+00,1.000000000000000000e+00,-2.929687500000000000e-03,4.960937500000000000e-01,-1.345214843750000000e-01,8.577270507812500000e-01
-1.000000000000000000e+00,-3.000000000000000000e+00,-2.000000000000000000e+00,-5.000000000000000000e+00,-2.000000000000000000e+00,-8.000000000000000000e+00,-1.300000000000000000e+01,-4.000000000000000000e+00,-3.723144531250000000e-03,4.957275390625000000e-01,-1.348876953125000000e-01,8.579101562500000000e-01
-2.000000000000000000e+00,-1.000000000000000000e+00,-3.000000000000000000e+00,-1.000000000000000000e+01,-1.000000000000000000e+01,-5.000000000000000000e+00,-4.000000000000000000e+00,2.000000000000000000e+00,-3.723144531250000000e-03,4.957275390625000000e-01,-1.348876953125000000e-01,8.579101562500000000e-01
-1.000000000000000000e+00,3.000000000000000000e+00,-1.000000000000000000e+00,-2.000000000000000000e+00,3.000000000000000000e+00,-1.000000000000000000e+00,-9.000000000000000000e+00,-3.000000000000000000e+00,-3.723144531250000000e-03,4.957275390625000000e-01,-1.348876953125000000e-01,8.579101562500000000e-01
0.000000000000000000e+00,1.000000000000000000e+00,6.000000000000000000e+00,3.000000000000000000e+00,2.000000000000000000e+00,5.000000000000000000e+00,1.000000000000000000e+01,-1.000000000000000000e+00,-3.723144531250000000e-03,4.957275390625000000e-01,-1.348876953125000000e-01,8.579101562500000000e-01
1.000000000000000000e+00,1.000000000000000000e+00,4.000000000000000000e+00,-1.000000000000000000e+00,-1.000000000000000000e+00,4.000000000000000000e+00,4.000000000000000000e+00,0.000000000000000000e+00,-4.821777343750000000e-03,4.954833984375000000e-01,-1.348876953125000000e-01,8.580322265625000000e-01
-2.000000000000000000e+00,-3.000000000000000000e+00,-6.000000000000000000e+00,-4.000000000000000000e+00,-1.200000000000000000e+01,-1.400000000000000000e+01,-1.200000000000000000e+01,-4.000000000000000000e+00,-4.821777343750000000e-03,4.954833984375000000e-01,-1.348876953125000000e-01,8.580322265625000000e-01
-1.000000000000000000e+00,-6.000000000000000000e+00,-3.000000000000000000e+00,-6.000000000000000000e+00,-8.000000000000000000e+00,-7.000000000000000000e+00,-8.000000000000000000e+00,-1.000000000000000000e+00,-4.821777343750000000e-03,4.954833984375000000e-01,-1.348876953125000000e-01,8.580322265625000000e-01
0.000000000000000000e+00,0.000000000000000000e+00,2.200000000000000000e+01,7.000000000000000000e+00,1.200000000000000000e+01,3.000000000000000000e+00,-1.000000000000000000e+00,-3.000000000000000000e+00,-4.821777343750000000e-03,4.954833984375000000e-01,-1.348876953125000000e-01,8.580322265625000000e-01
2.000000000000000000e+00,3.000000000000000000e+00,-3.000000000000000000e+00,8.000000000000000000e+00,7.000000000000000000e+00,2.000000000000000000e+00,0.000000000000000000e+00,0.000000000000000000e+00,-6.408691406250000000e-03,4.954833984375000000e-01,-1.350708007812500000e-01,8.579711914062500000e-01
-5.000000000000000000e+00,-3.000000000000000000e+00,1.300000000000000000e+01,6.000000000000000000e+00,-9.000000000000000000e+00,-3.000000000000000000e+00,3.000000000000000000e+00,-2.000000000000000000e+00,-6.408691406250000000e-03,4.954833984375000000e-01,-1.350708007812500000e-01,8.579711914062500000e-01
1.000000000000000000e+00,6.000000000000000000e+00,1.400000000000000000e+01,1.000000000000000000e+00,3.000000000000000000e+00,-1.000000000000000000e+00,-4.000000000000000000e+00,-1.000000000000000000e+00,-6.408691406250000000e-03,4.954833984375000000e-01,-1.350708007812500000e-01,8.579711914062500000e-01
-4.000000000000000000e+00,-6.000000000000000000e+00,-9.000000000000000000e+00,-1.100000000000000000e+01,-9.000000000000000000e+00,-3.000000000000000000e+00,-3.000000000000000000e+00,0.000000000000000000e+00,-6.408691406250000000e-03,4.954833984375000000e-01,-1.350708007812500000e-01,8.579711914062500000e-01
0.000000000000000000e+00,1.000000000000000000e+00,9.000000000000000000e+00,8.000000000000000000e+00,4.000000000000000000e+00,5.000000000000000000e+00,8.000000000000000000e+00,0.000000000000000000e+00,-7.141113281250000000e-03,4.955444335937500000e-01,-1.354980468750000000e-01,8.579101562500000000e-01
-1.000000000000000000e+00,-1.000000000000000000e+00,-1.500000000000000000e+01,-7.000000000000000000e+00,-1.000000000000000000e+00,-3.000000000000000000e+00,-1.000000000000000000e+00,-3.000000000000000000e+00,-7.141113281250000000e-03,4.955444335937500000e-01,-1.354980468750000000e-01,8.579101562500000000e-01
1.000000000000000000e+00,-1.000000000000000000e+00,1.000000000000000000e+00,5.000000000000000000e+00,2.000000000000000000e+00,0.000000000000000000e+00,-2.000000000000000000e+00,1.000000000000000000e+00,-7.141113281250000000e-03,4.955444335937500000e-01,-1.354980468750000000e-01,8.579101562500000000e-01
0.000000000000000000e+00,1.000000000000000000e+00,1.300000000000000000e+01,5.000000000000000000e+00,-4.000000000000000000e+00,-9.000000000000000000e+00,-1.000000000000000000e+01,0.000000000000000000e+00,-7.141113281250000000e-03,4.955444335937500000e-01,-1.354980468750000000e-01,8.579101562500000000e-01
-1.000000000000000000e+00,-4.000000000000000000e+00,-8.000000000000000000e+00,-7.000000000000000000e+00,-2.000000000000000000e+00,-2.000000000000000000e+00,8.000000000000000000e+00,-1.000000000000000000e+00,-7.324218750000000000e-03,4.955444335937500000e-01,-1.358032226562500000e-01,8.578491210937500000e-01
0.000000000000000000e+00,7.000000000000000000e+00,-6.000000000000000000e+00,1.000000000000000000e+00,3.000000000000000000e+00,1.100000000000000000e+01,5.000000000000000000e+00,2.000000000000000000e+00,-7.324218750000000000e-03,4.955444335937500000e-01,-1.358032226562500000e-01,8.578491210937500000e-01
-3.000000000000000000e+00,-7.000000000000000000e+00,5.000000000000000000e+00,0.000000000000000000e+00,1.000000000000000000e+00,-3.000000000000000000e+00,-2.000000000000000000e+00,-3.000000000000000000e+00,-7.324218750000000000e-03,4.955444335937500000e-01,-1.358032226562500000e-01,8.578491210937500000e-01
1.000000000000000000e+00,2.000000000000000000e+00,-5.000000000000000000e+00,-1.500000000000000000e+01,-5.000000000000000000e+00,-1.000000000000000000e+00,-5.000000000000000000e+00,1.000000000000000000e+00,-7.324218750000000000e-03,4.955444335937500000e-01,-1.358032226562500000e-01,8.578491210937500000e-01
-2.000000000000000000e+00,-2.000000000000000000e+00,-2.700000000000000000e+01,-1.500000000000000000e+01,-8.000000000000000000e+00,-5.000000000000000000e+00,1.000000000000000000e+00,-2.000000000000000000e+00,-7.507324218750000000e-03,4.953613281250000000e-01,-1.359863281250000000e-01,8.579101562500000000e-01
0.000000000000000000e+00,-2.000000000000000000e+00,2.000000000000000000e+00,1.000000000000000000e+00,-3.000000000000000000e+00,0.000000000000000000e+00,-2.000000000000000000e+00,-1.000000000000000000e+00,-7.507324218750000000e-03,4.953613281250000000e-01,-1.359863281250000000e-01,8.579101562500000000e-01
1.000000000000000000e+00,0.000000000000000000e+00,1.800000000000000000e+01,2.200000000000000000e+01,1.800000000000000000e+01,0.000000000000000000e+00,-5.000000000000000000e+00,0.000000000000000000e+00,-7.507324218750000000e-03,4.953613281250000000e-01,-1.359863281250000000e-01,8.579101562500000000e-01
0.000000000000000000e+00,0.000000000000000000e+00,-3.000000000000000000e+00,-1.300000000000000000e+01,-1.500000000000000000e+01,-3.000000000000000000e+00,1.000000000000000000e+00,-1.000000000000000000e+00,-7.507324218750000000e-03,4.953613281250000000e-01,-1.359863281250000000e-01,8.579101562500000000e-01
0.000000000000000000e+00,0.000000000000000000e+00,5.000000000000000000e+00,1.500000000000000000e+01,1.900000000000000000e+01,8.000000000000000000e+00,2.000000000000000000e+00,0.000000000000000000e+00,-7.385253906250000000e-03,4.954223632812500000e-01,-1.361694335937500000e-01,8.578491210937500000e-01
-2.000000000000000000e+00,-3.000000000000000000e+00,7.000000000000000000e+00,-7.000000000000000000e+00,0.000000000000000000e+00,-4.000000000000000000e+00,-3.000000000000000000e+00,-3.000000000000000000e+00,-7.385253906250000000e-03,4.954223632812500000e-01,-1.361694335937500000e-01,8.578491210937500000e-01
0.000000000000000000e+00,1.000000000000000000e+00,-6.000000000000000000e+00,-6.000000000000000000e+00,-4.000000000000000000e+00,1.000000000000000000e+00,-1.000000000000000000e+00,1.000000000000000000e+00,-7.385253906250000000e-03,4.954223632812500000e-01,-1.361694335937500000e-01,8.578491210937500000e-01
-2.000000000000000000e+00,-3.000000000000000000e+00,-5.000000000000000000e+00,3.000000000000000000e+00,-1.000000000000000000e+00,-2.000000000000000000e+00,0.000000000000000000e+00,0.000000000000000000e+00,-7.385253906250000000e-03,4.954223632812500000e-01,-1.361694335937500000e-01,8.578491210937500000e-01
-1.000000000000000000e+00,-1.000000000000000000e+00,1.000000000000000000e+01,-2.100000000000000000e+01,-1.800000000000000000e+01,-5.000000000000000000e+00,-5.000000000000000000e+00,0.000000000000000000e+00,-7.568359375000000000e-03,4.954833984375000000e-01,-1.361694335937500000e-01,8.577880859375000000e-01
0.000000000000000000e+00,0.000000000000000000e+00,1.700000000000000000e+01,2.300000000000000000e+01,1.100000000000000000e+01,2.000000000000000000e+00,0.000000000000000000e+00,2.000000000000000000e+00,-7.568359375000000000e-03,4.954833984375000000e-01,-1.361694335937500000e-01,8.577880859375000000e-01
-2.000000000000000000e+00,0.000000000000000000e+00,-2.700000000000000000e+01,-1.400000000000000000e+01,-1.000000000000000000e+01,-7.000000000000000000e+00,-3.000000000000000000e+00,-1.000000000000000000e+00,-7.568359375000000000e-03,4.954833984375000000e-01,-1.361694335937500000e-01,8.577880859375000000e-01
-3.000000000000000000e+00,-5.000000000000000000e+00,4.000000000000000000e+00,4.000000000000000000e+00,-1.000000000000000000e+00,-1.000000000000000000e+01,-1.200000000000000000e+01,-1.000000000000000000e+00,-7.568359375000000000e-03,4.954833984375000000e-01,-1.361694335937500000e-01,8.577880859375000000e-01
0.000000000000000000e+00,1.000000000000000000e+00,-2.100000000000000000e+01,2.000000000000000000e+00,-1.000000000000000000e+00,1.200000000000000000e+01,0.000000000000000000e+00,-1.000000000000000000e+00,-7.568359375000000000e-03,4.954833984375000000e-01,-1.361694335937500000e-01,8.577880859375000000e-01
-5.000000000000000000e+00,-9.000000000000000000e+00,-2.000000000000000000e+00,-1.000000000000000000e+01,2.000000000000000000e+00,-2.000000000000000000e+00,9.000000000000000000e+00,-2.000000000000000000e+00,-7.568359375000000000e-03,4.954833984375000000e-01,-1.361694335937500000e-01,8.577880859375000000e-01
-2.000000000000000000e+00,0.000000000000000000e+00,9.000000000000000000e+00,-2.000000000000000000e+00,0.000000000000000000e+00,0.000000000000000000e+00,-1.000000000000000000e+00,2.000000000000000000e+00,-7.568359375000000000e-03,4.954833984375000000e-01,-1.361694335937500000e-01,8.577880859375000000e-01
2.000000000000000000e+00,1.000000000000000000e+00,-8.000000000000000000e+00,-6.000000000000000000e+00,-2.000000000000000000e+00,-3.000000000000000000e+00,0.000000000000000000e+00,-1.000000000000000000e+00,-7.568359375000000000e-03,4.954833984375000000e-01,-1.361694335937500000e-01,8.577880859375000000e-01
-2.000000000000000000e+00,-3.000000000000000000e+00,9.000000000000000000e+00,9.000000000000000000e+00,-4.000000000000000000e+00,-7.000000000000000000e+00,-9.000000000000000000e+00,-3.000000000000000000e+00,-7.568359375000000000e-03,4.953613281250000000e-01,-1.358032226562500000e-01,8.579101562500000000e-01
3.000000000000000000e+00,-3.000000000000000000e+00,-6.000000000000000000e+00,-1.900000000000000000e+01,-7.000000000000000000e+00,-6.000000000000000000e+00,-5.000000000000000000e+00,-1.000000000000000000e+00,-7.568359375000000000e-03,4.953613281250000000e-01,-1.358032226562500000e-01,8.579101562500000000e-01
1.000000000000000000e+00,3.000000000000000000e+00,-5.000000000000000000e+00,2.200000000000000000e+01,8.000000000000000000e+00,5.000000000000000000e+00,4.000000000000000000e+00,1.000000000000000000e+00,-7.568359375000000000e-03,4.953613281250000000e-01,-1.358032226562500000e-01,8.579101562500000000e-01
-2.000000000000000000e+00,1.000000000000000000e+00,-1.000000000000000000e+01,-5.000000000000000000e+00,8.000000000000000000e+00,6.000000000000000000e+00,0.000000000000000000e+00,-2.000000000000000000e+00,-7.568359375000000000e-03,4.953613281250000000e-01,-1.358032226562500000e-01,8.579101562500000000e-01
-1.000000000000000000e+00,0.000000000000000000e+00,1.500000000000000000e+01,1.500000000000000000e+01,-1.400000000000000000e+01,-5.000000000000000000e+00,1.000000000000000000e+00,-2.000000000000000000e+00,-7.690429687500000000e-03,4.954223632812500000e-01,-1.352539062500000000e-01,8.579711914062500000e-01
0.000000000000000000e+00,-1.000000000000000000e+00,-2.000000000000000000e+01,6.000000000000000000e+00,2.300000000000000000e+01,3.000000000000000000e+00,-1.000000000000000000e+00,-1.000000000000000000e+00,-7.690429687500000000e-03,4.954223632812500000e-01,-1.352539062500000000e-01,8.579711914062500000e-01
-1.000000000000000000e+00,-2.000000000000000000e+00,-2.300000000000000000e+01,-1.000000000000000000e+01,-1.200000000000000000e+01,-2.000000000000000000e+00,-3.000000000000000000e+00,-1.000000000000000000e+00,-7.690429687500000000e-03,4.954223632812500000e-01,-1.352539062500000000e-01,8.579711914062500000e-01
-1.000000000000000000e+00,2.000000000000000000e+00,2.400000000000000000e+01,-1.000000000000000000e+01,5.000000000000000000e+00,3.000000000000000000e+00,2.000000000000000000e+00,0.000000000000000000e+00,-7.690429687500000000e-03,4.954223632812500000e-01,-1.352539062500000000e-01,8.579711914062500000e-01
-2.000000000000000000e+00,-1.000000000000000000e+00,5.000000000000000000e+00,9.000000000000000000e+00,-4.000000000000000000e+00,-1.000000000000000000e+00,2.000000000000000000e+00,1.000000000000000000e+00,-7.873535156250000000e-03,4.957885742187500000e-01,-1.348266601562500000e-01,8.578491210937500000e-01
-6.000000000000000000e+00,-9.000000000000000000e+00,-3.400000000000000000e+01,-2.000000000000000000e+00,-1.100000000000000000e+01,-5.000000000000000000e+00,-2.000000000000000000e+00,-3.000000000000000000e+00,-7.873535156250000000e-03,4.957885742187500000e-01,-1.348266601562500000e-01,8.578491210937500000e-01
