-3.000000000000000000e+00,1.400000000000000000e+01,3.000000000000000000e+00,-1.000000000000000000e+00,-1.000000000000000000e+00,1.900000000000000000e+01,2.600000000000000000e+01,-3.000000000000000000e+00,-3.088378906250000000e-01,6.024169921875000000e-02,7.567138671875000000e-01,5.729980468750000000e-01
5.000000000000000000e+00,-2.000000000000000000e+00,-6.300000000000000000e+01,-9.000000000000000000e+00,-5.000000000000000000e+00,-7.000000000000000000e+00,0.000000000000000000e+00,-2.000000000000000000e+00,-3.088378906250000000e-01,6.024169921875000000e-02,7.567138671875000000e-01,5.729980468750000000e-01
-4.000000000000000000e+00,3.000000000000000000e+00,3.000000000000000000e+00,1.100000000000000000e+01,3.000000000000000000e+00,1.000000000000000000e+00,-7.000000000000000000e+00,-4.000000000000000000e+00,-3.088378906250000000e-01,6.024169921875000000e-02,7.567138671875000000e-01,5.729980468750000000e-01
-1.700000000000000000e+01,-1.300000000000000000e+01,3.000000000000000000e+00,1.200000000000000000e+01,-1.000000000000000000e+00,-1.000000000000000000e+00,5.000000000000000000e+00,-1.000000000000000000e+00,-3.088378906250000000e-01,6.024169921875000000e-02,7.567138671875000000e-01,5.729980468750000000e-01
-4.000000000000000000e+00,-5.000000000000000000e+00,-6.000000000000000000e+00,-1.100000000000000000e+01,-4.000000000000000000e+00,-8.000000000000000000e+00,-4.000000000000000000e+00,-2.000000000000000000e+00,-3.089599609375000000e-01,5.981445312500000000e-02,7.570190429687500000e-01,5.725097656250000000e-01
-1.900000000000000000e+01,-1.000000000000000000e+00,0.000000000000000000e+00,3.000000000000000000e+00,-4.000000000000000000e+00,-2.000000000000000000e+00,-1.100000000000000000e+01,-5.000000000000000000e+00,-3.089599609375000000e-01,5.981445312500000000e-02,7.570190429687500000e-01,5.725097656250000000e-01
-2.000000000000000000e+00,2.000000000000000000e+00,1.800000000000000000e+01,-4.000000000000000000e+00,4.000000000000000000e+00,1.100000000000000000e+01,3.300000000000000000e+01,1.000000000000000000e+00,-3.089599609375000000e-01,5.981445312500000000e-02,7.570190429687500000e-01,5.725097656250000000e-01
1.000000000000000000e+00,-6.000000000000000000e+00,-7.800000000000000000e+01,-1.700000000000000000e+01,-5.000000000000000000e+00,-1.200000000000000000e+01,-7.000000000000000000e+00,-1.000000000000000000e+00,-3.089599609375000000e-01,5.981445312500000000e-02,7.570190429687500000e-01,5.725097656250000000e-01
-1.000000000000000000e+00,6.000000000000000000e+00,1.900000000000000000e+01,-7.000000000000000000e+00,-1.000000000000000000e+00,-9.000000000000000000e+00,0.000000000000000000e+00,1.000000000000000000e+00,-3.090209960937500000e-01,5.938720703125000000e-02,7.574462890625000000e-01,5.720214843750000000e-01
8.000000000000000000e+00,-1.400000000000000000e+01,-1.900000000000000000e+01,-6.000000000000000000e+00,-5.000000000000000000e+00,1.000000000000000000e+00,0.000000000000000000e+00,-2.000000000000000000e+00,-3.090209960937500000e-01,5.938720703125000000e-02,7.574462890625000000e-01,5.720214843750000000e-01
-2.000000000000000000e+00,2.000000000000000000e+00,5.000000000000000000e+00,6.000000000000000000e+00,1.000000000000000000e+00,-8.000000000000000000e+00,-2.300000000000000000e+01,-3.000000000000000000e+00,-3.090209960937500000e-01,5.938720703125000000e-02,7.574462890625000000e-01,5.720214843750000000e-01
5.000000000000000000e+00,7.000000000000000000e+00,-2.500000000000000000e+01,1.900000000000000000e+01,7.000000000000000000e+00,3.000000000000000000e+00,0.000000000000000000e+00,-2.000000000000000000e+00,-3.090209960937500000e-01,5.938720703125000000e-02,7.574462890625000000e-01,5.720214843750000000e-01
2.000000000000000000e+00,2.000000000000000000e+00,-1.000000000000000000e+01,-3.500000000000000000e+01,-9.000000000000000000e+00,0.000000000000000000e+00,2.000000000000000000e+00,0.000000000000000000e+00,-3.090820312500000000e-01,5.920410156250000000e-02,7.579345703125000000e-01,5.713500976562500000e-01
8.000000000000000000e+00,1.100000000000000000e+01,1.000000000000000000e+00,2.900000000000000000e+01,1.000000000000000000e+01,1.000000000000000000e+00,4.000000000000000000e+00,0.000000000000000000e+00,-3.090820312500000000e-01,5.920410156250000000e-02,7.579345703125000000e-01,5.713500976562500000e-01
-1.000000000000000000e+01,-1.800000000000000000e+01,-1.000000000000000000e+01,-9.000000000000000000e+00,-3.000000000000000000e+00,4.000000000000000000e+00,-1.100000000000000000e+01,-2.000000000000000000e+00,-3.090820312500000000e-01,5.920410156250000000e-02,7.579345703125000000e-01,5.713500976562500000e-01
3.000000000000000000e+00,1.400000000000000000e+01,4.600000000000000000e+01,9.000000000000000000e+00,-1.000000000000000000e+00,-9.000000000000000000e+00,5.000000000000000000e+00,2.000000000000000000e+00,-3.090820312500000000e-01,5.920410156250000000e-02,7.579345703125000000e-01,5.713500976562500000e-01
-4.000000000000000000e+00,-6.000000000000000000e+00,8.000000000000000000e+00,1.200000000000000000e+01,9.000000000000000000e+00,6.000000000000000000e+00,1.300000000000000000e+01,2.000000000000000000e+00,-3.094482421875000000e-01,5.859375000000000000e-02,7.584838867187500000e-01,5.704345703125000000e-01
-2.000000000000000000e+00,8.000000000000000000e+00,-1.200000000000000000e+01,-1.700000000000000000e+01,-5.000000000000000000e+00,7.000000000000000000e+00,5.000000000000000000e+00,0.000000000000000000e+00,-3.094482421875000000e-01,5.859375000000000000e-02,7.584838867187500000e-01,5.704345703125000000e-01
1.000000000000000000e+01,0.000000000000000000e+00,1.700000000000000000e+01,2.000000000000000000e+00,-2.000000000000000000e+00,-1.300000000000000000e+01,-9.000000000000000000e+00,-2.000000000000000000e+00,-3.094482421875000000e-01,5.859375000000000000e-02,7.584838867187500000e-01,5.704345703125000000e-01
-6.000000000000000000e+00,1.000000000000000000e+00,-1.000000000000000000e+00,-1.400000000000000000e+01,-9.000000000000000000e+00,1.400000000000000000e+01,8.000000000000000000e+00,-2.000000000000000000e+00,-3.094482421875000000e-01,5.859375000000000000e-02,7.584838867187500000e-01,5.704345703125000000e-01
-1.200000000000000000e+01,-6.000000000000000000e+00,1.500000000000000000e+01,5.000000000000000000e+00,2.000000000000000000e+00,-7.000000000000000000e+00,3.000000000000000000e+00,-2.000000000000000000e+00,-3.097534179687500000e-01,5.798339843750000000e-02,7.589111328125000000e-01,5.698242187500000000e-01
1.100000000000000000e+01,1.300000000000000000e+01,5.000000000000000000e+01,7.000000000000000000e+00,2.000000000000000000e+00,8.000000000000000000e+00,-1.000000000000000000e+01,1.000000000000000000e+00,-3.097534179687500000e-01,5.798339843750000000e-02,7.589111328125000000e-01,5.698242187500000000e-01
-1.100000000000000000e+01,-1.600000000000000000e+01,-1.000000000000000000e+01,6.000000000000000000e+00,0.000000000000000000e+00,1.000000000000000000e+00,-6.000000000000000000e+00,-2.000000000000000000e+00,-3.097534179687500000e-01,5.798339843750000000e-02,7.589111328125000000e-01,5.698242187500000000e-01
-2.000000000000000000e+00,-1.200000000000000000e+01,-3.400000000000000000e+01,-1.900000000000000000e+01,-9.000000000000000000e+00,-6.000000000000000000e+00,-1.100000000000000000e+01,-3.000000000000000000e+00,-3.097534179687500000e-01,5.798339843750000000e-02,7.589111328125000000e-01,5.698242187500000000e-01
-2.000000000000000000e+00,0.000000000000000000e+00,-1.600000000000000000e+01,8.000000000000000000e+00,0.000000000000000000e+00,2.000000000000000000e+00,-4.000000000000000000e+00,-3.000000000000000000e+00,-3.098144531250000000e-01,5.755615234375000000e-02,7.590332031250000000e-01,5.696411132812500000e-01
-1.000000000000000000e+00,-4.000000000000000000e+00,3.200000000000000000e+01,2.000000000000000000e+00,5.000000000000000000e+00,-4.000000000000000000e+00,-2.000000000000000000e+00,1.000000000000000000e+00,-3.098144531250000000e-01,5.755615234375000000e-02,7.590332031250000000e-01,5.696411132812500000e-01
5.000000000000000000e+00,9.000000000000000000e+00,2.600000000000000000e+01,-3.000000000000000000e+00,-1.500000000000000000e+01,-6.000000000000000000e+00,-1.500000000000000000e+01,1.000000000000000000e+00,-3.098144531250000000e-01,5.755615234375000000e-02,7.590332031250000000e-01,5.696411132812500000e-01
3.000000000000000000e+00,1.400000000000000000e+01,1.400000000000000000e+01,2.000000000000000000e+01,1.800000000000000000e+01,5.000000000000000000e+00,-4.000000000000000000e+00,3.000000000000000000e+00,-3.098144531250000000e-01,5.755615234375000000e-02,7.590332031250000000e-01,5.696411132812500000e-01
-1.500000000000000000e+01,-3.900000000000000000e+01,-7.300000000000000000e+01,-4.800000000000000000e+01,0.000000000000000000e+00,7.000000000000000000e+00,2.100000000000000000e+01,-2.000000000000000000e+00,-3.095703125000000000e-01,5.798339843750000000e-02,7.592163085937500000e-01,5.694580078125000000e-01
8.000000000000000000e+00,6.000000000000000000e+00,3.500000000000000000e+01,-2.000000000000000000e+00,-1.100000000000000000e+01,-3.000000000000000000e+00,6.000000000000000000e+00,0.000000000000000000e+00,-3.095703125000000000e-01,5.798339843750000000e-02,7.592163085937500000e-01,5.694580078125000000e-01
-4.000000000000000000e+00,6.000000000000000000e+00,-5.000000000000000000e+00,-1.000000000000000000e+00,-3.000000000000000000e+00,-3.000000000000000000e+00,-1.600000000000000000e+01,-3.000000000000000000e+00,-3.095703125000000000e-01,5.798339843750000000e-02,7.592163085937500000e-01,5.694580078125000000e-01
-6.000000000000000000e+00,1.500000000000000000e+01,1.220000000000000000e+02,2.400000000000000000e+01,1.000000000000000000e+00,2.000000000000000000e+00,1.200000000000000000e+01,5.000000000000000000e+00,-3.095703125000000000e-01,5.798339843750000000e-02,7.592163085937500000e-01,5.694580078125000000e-01
1.500000000000000000e+01,-2.300000000000000000e+01,-7.300000000000000000e+01,-1.400000000000000000e+01,-1.000000000000000000e+01,-1.600000000000000000e+01,-2.200000000000000000e+01,-3.000000000000000000e+00,-3.097534179687500000e-01,5.780029296875000000e-02,7.596435546875000000e-01,5.688476562500000000e-01
-1.100000000000000000e+01,2.000000000000000000e+00,1.000000000000000000e+01,-8.000000000000000000e+00,-6.000000000000000000e+00,-1.000000000000000000e+01,-2.000000000000000000e+00,-4.000000000000000000e+00,-3.097534179687500000e-01,5.780029296875000000e-02,7.596435546875000000e-01,5.688476562500000000e-01
-4.000000000000000000e+00,-1.200000000000000000e+01,-1.500000000000000000e+01,-5.000000000000000000e+00,3.000000000000000000e+00,1.700000000000000000e+01,1.700000000000000000e+01,-4.000000000000000000e+00,-3.097534179687500000e-01,5.780029296875000000e-02,7.596435546875000000e-01,5.688476562500000000e-01
-5.000000000000000000e+00,1.000000000000000000e+01,-1.500000000000000000e+01,-2.000000000000000000e+00,2.000000000000000000e+00,-4.000000000000000000e+00,-9.000000000000000000e+00,-3.000000000000000000e+00,-3.097534179687500000e-01,5.780029296875000000e-02,7.596435546875000000e-01,5.688476562500000000e-01
6.000000000000000000e+00,2.000000000000000000e+00,5.200000000000000000e+01,2.800000000000000000e+01,2.000000000000000000e+00,-3.000000000000000000e+00,-6.000000000000000000e+00,1.000000000000000000e+00,-3.101806640625000000e-01,5.700683593750000000e-02,7.601318359375000000e-01,5.679931640625000000e-01
1.900000000000000000e+01,-6.000000000000000000e+00,-6.800000000000000000e+01,-4.500000000000000000e+01,-1.400000000000000000e+01,-1.200000000000000000e+01,-2.000000000000000000e+00,2.000000000000000000e+00,-3.101806640625000000e-01,5.700683593750000000e-02,7.601318359375000000e-01,5.679931640625000000e-01
-3.000000000000000000e+00,2.000000000000000000e+00,-3.300000000000000000e+01,4.000000000000000000e+00,-1.000000000000000000e+00,-6.000000000000000000e+00,-4.000000000000000000e+00,-2.000000000000000000e+00,-3.101806640625000000e-01,5.700683593750000000e-02,7.601318359375000000e-01,5.679931640625000000e-01
-2.000000000000000000e+01,-5.000000000000000000e+00,-3.200000000000000000e+01,-6.000000000000000000e+00,-1.000000000000000000e+00,1.000000000000000000e+00,-6.000000000000000000e+00,-5.000000000000000000e+00,-3.101806640625000000e-01,5.700683593750000000e-02,7.601318359375000000e-01,5.679931640625000000e-01
1.600000000000000000e+01,3.000000000000000000e+01,8.900000000000000000e+01,-6.000000000000000000e+00,-9.000000000000000000e+00,1.400000000000000000e+01,1.400000000000000000e+01,6.000000000000000000e+00,-3.105468750000000000e-01,5.609130859375000000e-02,7.605590820312500000e-01,5.673828125000000000e-01
-1.500000000000000000e+01,-2.600000000000000000e+01,-4.600000000000000000e+01,4.000000000000000000e+01,2.000000000000000000e+01,-1.000000000000000000e+00,-1.000000000000000000e+01,-3.000000000000000000e+00,-3.105468750000000000e-01,5.609130859375000000e-02,7.605590820312500000e-01,5.673828125000000000e-01
9.000000000000000000e+00,0.000000000000000000e+00,1.600000000000000000e+01,2.000000000000000000e+00,4.000000000000000000e+00,-2.000000000000000000e+00,-7.000000000000000000e+00,1.000000000000000000e+00,-3.105468750000000000e-01,5.609130859375000000e-02,7.605590820312500000e-01,5.673828125000000000e-01
8.000000000000000000e+00,9.000000000000000000e+00,1.000000000000000000e+00,-1.200000000000000000e+01,-8.000000000000000000e+00,-3.000000000000000000e+00,1.000000000000000000e+01,0.000000000000000000e+00,-3.105468750000000000e-01,5.609130859375000000e-02,7.605590820312500000e-01,5.673828125000000000e-01
-8.000000000000000000e+00,6.000000000000000000e+00,4.000000000000000000e+00,-1.000000000000000000e+00,-6.000000000000000000e+00,2.000000000000000000e+00,-2.000000000000000000e+01,-4.000000000000000000e+00,-3.102416992187500000e-01,5.566406250000000000e-02,7.608032226562500000e-01,5.672607421875000000e-01
1.400000000000000000e+01,1.400000000000000000e+01,6.900000000000000000e+01,1.600000000000000000e+01,5.000000000000000000e+00,-5.000000000000000000e+00,3.000000000000000000e+00,2.000000000000000000e+00,-3.102416992187500000e-01,5.566406250000000000e-02,7.608032226562500000e-01,5.672607421875000000e-01
-1.300000000000000000e+01,-3.700000000000000000e+01,-8.400000000000000000e+01,-2.200000000000000000e+01,-4.000000000000000000e+00,0.000000000000000000e+00,1.100000000000000000e+01,-1.000000000000000000e+00,-3.102416992187500000e-01,5.566406250000000000e-02,7.608032226562500000e-01,5.672607421875000000e-01
0.000000000000000000e+00,2.000000000000000000e+00,-3.900000000000000000e+01,-8.000000000000000000e+00,-3.000000000000000000e+00,-1.100000000000000000e+01,-1.800000000000000000e+01,-4.000000000000000000e+00,-3.102416992187500000e-01,5.566406250000000000e-02,7.608032226562500000e-01,5.672607421875000000e-01
7.000000000000000000e+00,3.000000000000000000e+00,-2.000000000000000000e+00,1.500000000000000000e+01,5.000000000000000000e+00,3.000000000000000000e+00,2.000000000000000000e+00,-1.000000000000000000e+00,-3.102416992187500000e-01,5.560302734375000000e-02,7.608032226562500000e-01,5.672607421875000000e-01
-1.100000000000000000e+01,7.000000000000000000e+00,3.300000000000000000e+01,1.000000000000000000e+00,-4.000000000000000000e+00,5.000000000000000000e+00,-2.000000000000000000e+00,2.000000000000000000e+00,-3.102416992187500000e-01,5.560302734375000000e-02,7.608032226562500000e-01,5.672607421875000000e-01
1.800000000000000000e+01,3.000000000000000000e+00,4.000000000000000000e+00,9.000000000000000000e+00,6.000000000000000000e+00,5.000000000000000000e+00,4.000000000000000000e+00,1.000000000000000000e+00,-3.102416992187500000e-01,5.560302734375000000e-02,7.608032226562500000e-01,5.672607421875000000e-01
6.000000000000000000e+00,-1.300000000000000000e+01,1.000000000000000000e+01,8.000000000000000000e+00,-1.100000000000000000e+01,2.000000000000000000e+00,-2.000000000000000000e+00,-3.000000000000000000e+00,-3.102416992187500000e-01,5.560302734375000000e-02,7.608032226562500000e-01,5.672607421875000000e-01
-2.900000000000000000e+01,-4.000000000000000000e+00,-3.100000000000000000e+01,-6.000000000000000000e+00,4.000000000000000000e+00,-8.000000000000000000e+00,-3.000000000000000000e+00,-3.000000000000000000e+00,-3.098144531250000000e-01,5.535888671875000000e-02,7.611083984375000000e-01,5.670776367187500000e-01
-1.200000000000000000e+01,-5.000000000000000000e+00,-5.700000000000000000e+01,-8.000000000000000000e+00,-1.000000000000000000e+00,1.000000000000000000e+00,-8.000000000000000000e+00,-5.000000000000000000e+00,-3.098144531250000000e-01,5.535888671875000000e-02,7.611083984375000000e-01,5.670776367187500000e-01
-1.000000000000000000e+01,1.000000000000000000e+01,5.900000000000000000e+01,6.000000000000000000e+00,2.000000000000000000e+00,0.000000000000000000e+00,2.700000000000000000e+01,0.000000000000000000e+00,-3.098144531250000000e-01,5.535888671875000000e-02,7.611083984375000000e-01,5.670776367187500000e-01
1.000000000000000000e+00,-1.400000000000000000e+01,-4.500000000000000000e+01,-8.000000000000000000e+00,0.000000000000000000e+00,-1.000000000000000000e+00,-1.100000000000000000e+01,-2.000000000000000000e+00,-3.098144531250000000e-01,5.535888671875000000e-02,7.611083984375000000e-01,5.670776367187500000e-01
0.000000000000000000e+00,-3.000000000000000000e+00,2.000000000000000000e+01,-4.000000000000000000e+00,-5.000000000000000000e+00,-1.500000000000000000e+01,-2.300000000000000000e+01,-5.000000000000000000e+00,-3.098754882812500000e-01,5.493164062500000000e-02,7.615356445312500000e-01,5.664672851562500000e-01
1.000000000000000000e+00,3.000000000000000000e+00,-3.000000000000000000e+00,-8.000000000000000000e+00,-1.000000000000000000e+01,7.000000000000000000e+00,1.500000000000000000e+01,-6.000000000000000000e+00,-3.098754882812500000e-01,5.493164062500000000e-02,7.615356445312500000e-01,5.664672851562500000e-01
-4.000000000000000000e+00,-2.000000000000000000e+00,7.000000000000000000e+00,-8.000000000000000000e+00,-7.000000000000000000e+00,-1.700000000000000000e+01,-1.500000000000000000e+01,1.000000000000000000e+00,-3.098754882812500000e-01,5.493164062500000000e-02,7.615356445312500000e-01,5.664672851562500000e-01
4.000000000000000000e+00,-3.000000000000000000e+00,-2.500000000000000000e+01,2.000000000000000000e+00,4.000000000000000000e+00,8.000000000000000000e+00,2.000000000000000000e+01,1.000000000000000000e+00,-3.098754882812500000e-01,5.493164062500000000e-02,7.615356445312500000e-01,5.664672851562500000e-01
3.000000000000000000e+00,1.000000000000000000e+01,3.600000000000000000e+01,2.300000000000000000e+01,1.200000000000000000e+01,8.000000000000000000e+00,6.000000000000000000e+00,2.000000000000000000e+00,-3.099365234375000000e-01,5.462646484375000000e-02,7.619018554687500000e-01,5.659790039062500000e-01
-4.000000000000000000e+00,0.000000000000000000e+00,2.400000000000000000e+01,-6.000000000000000000e+00,-7.000000000000000000e+00,-1.100000000000000000e+01,-5.000000000000000000e+00,1.000000000000000000e+00,-3.099365234375000000e-01,5.462646484375000000e-02,7.619018554687500000e-01,5.659790039062500000e-01
8.000000000000000000e+00,1.500000000000000000e+01,4.500000000000000000e+01,4.000000000000000000e+00,-2.000000000000000000e+00,1.000000000000000000e+00,-8.000000000000000000e+00,1.000000000000000000e+00,-3.099365234375000000e-01,5.462646484375000000e-02,7.619018554687500000e-01,5.659790039062500000e-01
-1.000000000000000000e+01,-6.000000000000000000e+00,7.000000000000000000e+01,-1.100000000000000000e+01,-5.000000000000000000e+00,3.000000000000000000e+00,-2.000000000000000000e+00,-3.000000000000000000e+00,-3.099365234375000000e-01,5.462646484375000000e-02,7.619018554687500000e-01,5.659790039062500000e-01
4.000000000000000000e+00,-8.000000000000000000e+00,-3.200000000000000000e+01,-3.500000000000000000e+01,-1.000000000000000000e+01,-4.000000000000000000e+00,3.000000000000000000e+00,3.000000000000000000e+00,-3.095703125000000000e-01,5.444335937500000000e-02,7.622070312500000000e-01,5.658569335937500000e-01
1.800000000000000000e+01,9.000000000000000000e+00,1.300000000000000000e+01,2.100000000000000000e+01,9.000000000000000000e+00,0.000000000000000000e+00,-2.000000000000000000e+00,-4.000000000000000000e+00,-3.095703125000000000e-01,5.444335937500000000e-02,7.622070312500000000e-01,5.658569335937500000e-01
-7.000000000000000000e+00,5.000000000000000000e+00,-1.800000000000000000e+01,3.000000000000000000e+00,-8.000000000000000000e+00,-8.000000000000000000e+00,-8.000000000000000000e+00,0.000000000000000000e+00,-3.090820312500000000e-01,5.395507812500000000e-02,7.623901367187500000e-01,5.658569335937500000e-01
-4.000000000000000000e+00,-3.000000000000000000e+00,5.700000000000000000e+01,9.000000000000000000e+00,6.000000000000000000e+00,2.000000000000000000e+01,1.200000000000000000e+01,2.000000000000000000e+00,-3.090820312500000000e-01,5.395507812500000000e-02,7.623901367187500000e-01,5.658569335937500000e-01
-8.000000000000000000e+00,-5.000000000000000000e+00,-7.800000000000000000e+01,-2.100000000000000000e+01,0.000000000000000000e+00,-9.000000000000000000e+00,-1.200000000000000000e+01,-4.000000000000000000e+00,-3.090820312500000000e-01,5.395507812500000000e-02,7.623901367187500000e-01,5.658569335937500000e-01
0.000000000000000000e+00,-1.300000000000000000e+01,3.700000000000000000e+01,1.800000000000000000e+01,-3.000000000000000000e+00,5.000000000000000000e+00,9.000000000000000000e+00,1.000000000000000000e+00,-3.090820312500000000e-01,5.395507812500000000e-02,7.623901367187500000e-01,5.658569335937500000e-01
1.900000000000000000e+01,1.100000000000000000e+01,-3.000000000000000000e+01,-3.000000000000000000e+00,-1.000000000000000000e+00,-8.000000000000000000e+00,-1.200000000000000000e+01,0.000000000000000000e+00,-3.089599609375000000e-01,5.346679687500000000e-02,7.625122070312500000e-01,5.658569335937500000e-01
-2.300000000000000000e+01,3.000000000000000000e+00,-2.000000000000000000e+00,-4.000000000000000000e+00,-1.000000000000000000e+00,1.400000000000000000e+01,2.100000000000000000e+01,3.000000000000000000e+00,-3.089599609375000000e-01,5.346679687500000000e-02,7.625122070312500000e-01,5.658569335937500000e-01
1.800000000000000000e+01,9.000000000000000000e+00,3.100000000000000000e+01,2.600000000000000000e+01,6.000000000000000000e+00,7.000000000000000000e+00,7.000000000000000000e+00,2.000000000000000000e+00,-3.089599609375000000e-01,5.346679687500000000e-02,7.625122070312500000e-01,5.658569335937500000e-01
-1.000000000000000000e+00,2.000000000000000000e+00,2.700000000000000000e+01,-2.100000000000000000e+01,-4.000000000000000000e+00,-2.000000000000000000e+00,1.000000000000000000e+00,2.000000000000000000e+00,-3.089599609375000000e-01,5.346679687500000000e-02,7.625122070312500000e-01,5.658569335937500000e-01
-2.400000000000000000e+01,-2.800000000000000000e+01,-7.800000000000000000e+01,2.000000000000000000e+00,1.000000000000000000e+00,-7.000000000000000000e+00,-1.000000000000000000e+01,-6.000000000000000000e+00,-3.089599609375000000e-01,5.346679687500000000e-02,7.625122070312500000e-01,5.658569335937500000e-01
1.300000000000000000e+01,2.000000000000000000e+00,8.000000000000000000e+00,-1.100000000000000000e+01,-4.000000000000000000e+00,-6.000000000000000000e+00,-6.000000000000000000e+00,-1.000000000000000000e+00,-3.089599609375000000e-01,5.346679687500000000e-02,7.625122070312500000e-01,5.658569335937500000e-01
2.000000000000000000e+00,1.000000000000000000e+01,3.100000000000000000e+01,2.500000000000000000e+01,-3.000000000000000000e+00,0.000000000000000000e+00,2.000000000000000000e+00,-1.000000000000000000e+00,-3.089599609375000000e-01,5.346679687500000000e-02,7.625122070312500000e-01,5.658569335937500000e-01
-2.000000000000000000e+00,8.000000000000000000e+00,1.900000000000000000e+01,-1.500000000000000000e+01,0.000000000000000000e+00,-9.000000000000000000e+00,-1.000000000000000000e+01,2.000000000000000000e+00,-3.089599609375000000e-01,5.346679687500000000e-02,7.625122070312500000e-01,5.658569335937500000e-01
0.000000000000000000e+00,-5.000000000000000000e+00,1.800000000000000000e+01,1.600000000000000000e+01,2.000000000000000000e+00,1.400000000000000000e+01,2.400000000000000000e+01,-2.000000000000000000e+00,-3.088378906250000000e-01,5.352783203125000000e-02,7.626342773437500000e-01,5.657348632812500000e-01
6.000000000000000000e+00,5.000000000000000000e+00,-2.500000000000000000e+01,-2.200000000000000000e+01,-4.000000000000000000e+00,-1.000000000000000000e+01,-7.000000000000000000e+00,0.000000000000000000e+00,-3.088378906250000000e-01,5.352783203125000000e-02,7.626342773437500000e-01,5.657348632812500000e-01
3.000000000000000000e+00,-8.000000000000000000e+00,1.200000000000000000e+01,9.000000000000000000e+00,-6.000000000000000000e+00,0.000000000000000000e+00,1.000000000000000000e+00,-1.000000000000000000e+00,-3.088378906250000000e-01,5.352783203125000000e-02,7.626342773437500000e-01,5.657348632812500000e-01
8.000000000000000000e+00,-7.000000000000000000e+00,5.000000000000000000e+00,-3.000000000000000000e+00,5.000000000000000000e+00,-4.000000000000000000e+00,-8.000000000000000000e+00,-4.000000000000000000e+00,-3.088378906250000000e-01,5.352783203125000000e-02,7.626342773437500000e-01,5.657348632812500000e-01
0.000000000000000000e+00,-1.000000000000000000e+00,3.000000000000000000e+00,-6.000000000000000000e+00,-4.000000000000000000e+00,-1.500000000000000000e+01,-1.400000000000000000e+01,-2.000000000000000000e+00,-3.089599609375000000e-01,5.322265625000000000e-02,7.627563476562500000e-01,5.655517578125000000e-01
-1.100000000000000000e+01,-7.000000000000000000e+00,-2.800000000000000000e+01,-2.000000000000000000e+00,3.000000000000000000e+00,1.900000000000000000e+01,3.200000000000000000e+01,-4.000000000000000000e+00,-3.089599609375000000e-01,5.322265625000000000e-02,7.627563476562500000e-01,5.655517578125000000e-01
3.000000000000000000e+00,1.200000000000000000e+01,3.100000000000000000e+01,7.000000000000000000e+00,1.000000000000000000e+00,-3.000000000000000000e+00,-8.000000000000000000e+00,1.000000000000000000e+00,-3.089599609375000000e-01,5.322265625000000000e-02,7.627563476562500000e-01,5.655517578125000000e-01
-1.000000000000000000e+00,1.000000000000000000e+00,1.200000000000000000e+01,1.000000000000000000e+01,1.000000000000000000e+00,7.000000000000000000e+00,2.000000000000000000e+00,2.000000000000000000e+00,-3.089599609375000000e-01,5.322265625000000000e-02,7.627563476562500000e-01,5.655517578125000000e-01
4.000000000000000000e+00,-1.200000000000000000e+01,-3.000000000000000000e+01,-1.500000000000000000e+01,1.000000000000000000e+00,-6.000000000000000000e+00,-2.000000000000000000e+00,0.000000000000000000e+00,-3.089599609375000000e-01,5.316162109375000000e-02,7.627563476562500000e-01,5.655517578125000000e-01
9.000000000000000000e+00,7.000000000000000000e+00,7.600000000000000000e+01,1.400000000000000000e+01,2.000000000000000000e+00,-1.500000000000000000e+01,-1.300000000000000000e+01,-1.000000000000000000e+00,-3.089599609375000000e-01,5.316162109375000000e-02,7.627563476562500000e-01,5.655517578125000000e-01
5.000000000000000000e+00,5.000000000000000000e+00,-1.100000000000000000e+01,1.100000000000000000e+01,8.000000000000000000e+00,1.100000000000000000e+01,2.800000000000000000e+01,1.000000000000000000e+00,-3.089599609375000000e-01,5.316162109375000000e-02,7.627563476562500000e-01,5.655517578125000000e-01
-9.000000000000000000e+00,-1.800000000000000000e+01,-7.900000000000000000e+01,-2.500000000000000000e+01,-1.400000000000000000e+01,-1.000000000000000000e+00,4.000000000000000000e+00,-3.000000000000000000e+00,-3.089599609375000000e-01,5.316162109375000000e-02,7.627563476562500000e-01,5.655517578125000000e-01
-1.000000000000000000e+01,1.300000000000000000e+01,9.500000000000000000e+01,9.000000000000000000e+00,-2.000000000000000000e+00,5.000000000000000000e+00,3.000000000000000000e+00,-3.000000000000000000e+00,-3.088378906250000000e-01,5.316162109375000000e-02,7.626953125000000000e-01,5.656738281250000000e-01
7.000000000000000000e+00,-3.000000000000000000e+00,-1.700000000000000000e+01,4.000000000000000000e+00,2.000000000000000000e+00,-1.500000000000000000e+01,-2.100000000000000000e+01,1.000000000000000000e+00,-3.088378906250000000e-01,5.316162109375000000e-02,7.626953125000000000e-01,5.656738281250000000e-01
-1.000000000000000000e+01,-1.400000000000000000e+01,0.000000000000000000e+00,-6.000000000000000000e+00,-3.000000000000000000e+00,2.000000000000000000e+00,1.100000000000000000e+01,-3.000000000000000000e+00,-3.088378906250000000e-01,5.316162109375000000e-02,7.626953125000000000e-01,5.656738281250000000e-01
-3.000000000000000000e+00,7.000000000000000000e+00,1.600000000000000000e+01,-5.000000000000000000e+00,-1.300000000000000000e+01,-1.600000000000000000e+01,-2.900000000000000000e+01,-1.000000000000000000e+00,-3.088378906250000000e-01,5.316162109375000000e-02,7.626953125000000000e-01,5.656738281250000000e-01
-3.000000000000000000e+00,-1.300000000000000000e+01,-9.300000000000000000e+01,-1.200000000000000000e+01,-4.000000000000000000e+00,1.500000000000000000e+01,3.100000000000000000e+01,0.000000000000000000e+00,-3.089599609375000000e-01,5.279541015625000000e-02,7.626953125000000000e-01,5.656738281250000000e-01
-8.000000000000000000e+00,5.000000000000000000e+00,1.500000000000000000e+01,-1.000000000000000000e+00,0.000000000000000000e+00,-9.000000000000000000e+00,5.000000000000000000e+00,-1.000000000000000000e+00,-3.089599609375000000e-01,5.279541015625000000e-02,7.626953125000000000e-01,5.656738281250000000e-01
-6.000000000000000000e+00,-2.000000000000000000e+00,4.300000000000000000e+01,1.900000000000000000e+01,2.000000000000000000e+00,-2.000000000000000000e+00,-6.000000000000000000e+00,-2.000000000000000000e+00,-3.089599609375000000e-01,5.279541015625000000e-02,7.626953125000000000e-01,5.656738281250000000e-01
1.000000000000000000e+00,2.000000000000000000e+00,-8.000000000000000000e+01,-2.600000000000000000e+01,3.000000000000000000e+00,2.000000000000000000e+00,5.000000000000000000e+00,1.000000000000000000e+00,-3.089599609375000000e-01,5.279541015625000000e-02,7.626953125000000000e-01,5.656738281250000000e-01
1.200000000000000000e+01,1.000000000000000000e+01,2.600000000000000000e+01,-4.000000000000000000e+00,0.000000000000000000e+00,-6.000000000000000000e+00,-2.300000000000000000e+01,0.000000000000000000e+00,-3.088989257812500000e-01,5.255126953125000000e-02,7.628173828125000000e-01,5.655517578125000000e-01
-1.500000000000000000e+01,-1.800000000000000000e+01,-1.400000000000000000e+01,-3.000000000000000000e+00,-5.000000000000000000e+00,-1.000000000000000000e+00,-3.000000000000000000e+00,-4.000000000000000000e+00,-3.088989257812500000e-01,5.255126953125000000e-02,7.628173828125000000e-01,5.655517578125000000e-01
6.000000000000000000e+00,4.000000000000000000e+00,1.000000000000000000e+00,-7.000000000000000000e+00,-3.000000000000000000e+00,-6.000000000000000000e+00,-9.000000000000000000e+00,-5.000000000000000000e+00,-3.088989257812500000e-01,5.255126953125000000e-02,7.628173828125000000e-01,5.655517578125000000e-01
1.000000000000000000e+01,2.000000000000000000e+00,3.100000000000000000e+01,6.000000000000000000e+00,2.000000000000000000e+00,5.000000000000000000e+00,1.500000000000000000e+01,3.000000000000000000e+00,-3.088989257812500000e-01,5.255126953125000000e-02,7.628173828125000000e-01,5.655517578125000000e-01
-1.200000000000000000e+01,-2.000000000000000000e+00,1.800000000000000000e+01,1.600000000000000000e+01,4.000000000000000000e+00,-1.000000000000000000e+00,-8.000000000000000000e+00,-2.000000000000000000e+00,-3.090209960937500000e-01,5.242919921875000000e-02,7.629394531250000000e-01,5.653686523437500000e-01
1.600000000000000000e+01,-9.000000000000000000e+00,-4.200000000000000000e+01,-1.600000000000000000e+01,-7.000000000000000000e+00,-6.000000000000000000e+00,-6.000000000000000000e+00,2.000000000000000000e+00,-3.090209960937500000e-01,5.242919921875000000e-02,7.629394531250000000e-01,5.653686523437500000e-01
-7.000000000000000000e+00,5.000000000000000000e+00,1.400000000000000000e+01,1.800000000000000000e+01,5.000000000000000000e+00,-8.000000000000000000e+00,-1.900000000000000000e+01,-3.000000000000000000e+00,-3.090209960937500000e-01,5.242919921875000000e-02,7.629394531250000000e-01,5.653686523437500000e-01
-2.000000000000000000e+00,-8.000000000000000000e+00,-2.300000000000000000e+01,-7.000000000000000000e+00,6.000000000000000000e+00,2.700000000000000000e+01,1.700000000000000000e+01,-2.000000000000000000e+00,-3.090209960937500000e-01,5.242919921875000000e-02,7.629394531250000000e-01,5.653686523437500000e-01
1.200000000000000000e+01,1.400000000000000000e+01,6.100000000000000000e+01,1.400000000000000000e+01,2.000000000000000000e+00,2.000000000000000000e+00,3.000000000000000000e+00,3.000000000000000000e+00,-3.090820312500000000e-01,5.261230468750000000e-02,7.630004882812500000e-01,5.651855468750000000e-01
-3.000000000000000000e+00,-1.100000000000000000e+01,-6.300000000000000000e+01,-1.000000000000000000e+00,2.000000000000000000e+00,-5.000000000000000000e+00,-1.300000000000000000e+01,-3.000000000000000000e+00,-3.090820312500000000e-01,5.261230468750000000e-02,7.630004882812500000e-01,5.651855468750000000e-01
1.200000000000000000e+01,7.000000000000000000e+00,2.600000000000000000e+01,-6.000000000000000000e+00,-5.000000000000000000e+00,-6.000000000000000000e+00,6.000000000000000000e+00,1.000000000000000000e+00,-3.090820312500000000e-01,5.261230468750000000e-02,7.630004882812500000e-01,5.651855468750000000e-01
-1.600000000000000000e+01,2.000000000000000000e+00,-9.000000000000000000e+00,6.000000000000000000e+00,0.000000000000000000e+00,3.000000000000000000e+00,4.000000000000000000e+00,-2.000000000000000000e+00,-3.090820312500000000e-01,5.261230468750000000e-02,7.630004882812500000e-01,5.651855468750000000e-01
5.000000000000000000e+00,-7.000000000000000000e+00,5.000000000000000000e+00,6.000000000000000000e+00,3.000000000000000000e+00,1.100000000000000000e+01,1.600000000000000000e+01,-2.000000000000000000e+00,-3.094482421875000000e-01,5.285644531250000000e-02,7.630004882812500000e-01,5.649414062500000000e-01
-1.000000000000000000e+00,4.000000000000000000e+00,1.900000000000000000e+01,-7.000000000000000000e+00,-6.000000000000000000e+00,-1.400000000000000000e+01,-1.400000000000000000e+01,-2.000000000000000000e+00,-3.094482421875000000e-01,5.285644531250000000e-02,7.630004882812500000e-01,5.649414062500000000e-01
-4.000000000000000000e+00,-1.000000000000000000e+00,-6.000000000000000000e+00,-1.200000000000000000e+01,1.000000000000000000e+01,1.900000000000000000e+01,1.800000000000000000e+01,4.000000000000000000e+00,-3.094482421875000000e-01,5.285644531250000000e-02,7.630004882812500000e-01,5.649414062500000000e-01
3.000000000000000000e+00,1.100000000000000000e+01,-3.000000000000000000e+00,2.100000000000000000e+01,-1.000000000000000000e+01,-2.000000000000000000e+01,-5.000000000000000000e+00,-3.000000000000000000e+00,-3.094482421875000000e-01,5.285644531250000000e-02,7.630004882812500000e-01,5.649414062500000000e-01
-7.000000000000000000e+00,0.000000000000000000e+00,4.100000000000000000e+01,-9.000000000000000000e+00,5.000000000000000000e+00,-2.000000000000000000e+00,-9.000000000000000000e+00,-3.000000000000000000e+00,-3.095092773437500000e-01,5.297851562500000000e-02,7.632446289062500000e-01,5.645751953125000000e-01
-7.000000000000000000e+00,2.000000000000000000e+01,3.800000000000000000e+01,1.600000000000000000e+01,6.000000000000000000e+00,3.000000000000000000e+00,-1.700000000000000000e+01,1.000000000000000000e+00,-3.095092773437500000e-01,5.297851562500000000e-02,7.632446289062500000e-01,5.645751953125000000e-01
1.000000000000000000e+00,-2.500000000000000000e+01,-4.100000000000000000e+01,-3.200000000000000000e+01,-1.000000000000000000e+01,-8.000000000000000000e+00,-1.200000000000000000e+01,-2.000000000000000000e+00,-3.095092773437500000e-01,5.297851562500000000e-02,7.632446289062500000e-01,5.645751953125000000e-01
1.100000000000000000e+01,-1.600000000000000000e+01,-2.200000000000000000e+01,1.000000000000000000e+01,4.000000000000000000e+00,-5.000000000000000000e+00,-1.400000000000000000e+01,-2.000000000000000000e+00,-3.095092773437500000e-01,5.297851562500000000e-02,7.632446289062500000e-01,5.645751953125000000e-01
-1.400000000000000000e+01,1.200000000000000000e+01,2.300000000000000000e+01,6.000000000000000000e+00,-3.000000000000000000e+00,6.000000000000000000e+00,1.000000000000000000e+01,3.000000000000000000e+00,-3.096313476562500000e-01,5.255126953125000000e-02,7.634277343750000000e-01,5.643310546875000000e-01
5.000000000000000000e+00,-1.000000000000000000e+00,1.100000000000000000e+01,-2.000000000000000000e+00,-1.000000000000000000e+00,2.000000000000000000e+00,6.000000000000000000e+00,-1.000000000000000000e+00,-3.096313476562500000e-01,5.255126953125000000e-02,7.634277343750000000e-01,5.643310546875000000e-01
-6.000000000000000000e+00,1.000000000000000000e+00,-2.000000000000000000e+00,-1.000000000000000000e+00,1.000000000000000000e+00,-8.000000000000000000e+00,-7.000000000000000000e+00,-2.000000000000000000e+00,-3.096313476562500000e-01,5.255126953125000000e-02,7.634277343750000000e-01,5.643310546875000000e-01
-4.000000000000000000e+00,2.000000000000000000e+00,1.700000000000000000e+01,-1.100000000000000000e+01,-6.000000000000000000e+00,-3.000000000000000000e+00,-1.900000000000000000e+01,-4.000000000000000000e+00,-3.096313476562500000e-01,5.255126953125000000e-02,7.634277343750000000e-01,5.643310546875000000e-01
2.000000000000000000e+00,-1.000000000000000000e+00,-2.300000000000000000e+01,-3.000000000000000000e+00,-4.000000000000000000e+00,8.000000000000000000e+00,1.300000000000000000e+01,0.000000000000000000e+00,-3.099365234375000000e-01,5.212402343750000000e-02,7.634277343750000000e-01,5.642089843750000000e-01
0.000000000000000000e+00,-4.000000000000000000e+00,1.800000000000000000e+01,2.500000000000000000e+01,8.000000000000000000e+00,5.000000000000000000e+00,7.000000000000000000e+00,-1.000000000000000000e+00,-3.099365234375000000e-01,5.212402343750000000e-02,7.634277343750000000e-01,5.642089843750000000e-01
-1.000000000000000000e+01,-8.000000000000000000e+00,-3.000000000000000000e+00,-2.700000000000000000e+01,-2.000000000000000000e+01,-4.000000000000000000e+00,-4.000000000000000000e+00,-2.000000000000000000e+00,-3.099365234375000000e-01,5.212402343750000000e-02,7.634277343750000000e-01,5.642089843750000000e-01
-1.100000000000000000e+01,-3.000000000000000000e+00,2.300000000000000000e+01,6.000000000000000000e+00,5.000000000000000000e+00,-1.000000000000000000e+01,-1.200000000000000000e+01,-2.000000000000000000e+00,-3.099365234375000000e-01,5.212402343750000000e-02,7.634277343750000000e-01,5.642089843750000000e-01
-1.000000000000000000e+00,1.500000000000000000e+01,1.900000000000000000e+01,4.000000000000000000e+00,1.000000000000000000e+00,5.000000000000000000e+00,-4.000000000000000000e+00,0.000000000000000000e+00,-3.099975585937500000e-01,5.255126953125000000e-02,7.634887695312500000e-01,5.640258789062500000e-01
2.000000000000000000e+00,-1.600000000000000000e+01,-7.500000000000000000e+01,-2.900000000000000000e+01,-8.000000000000000000e+00,-5.000000000000000000e+00,-4.000000000000000000e+00,0.000000000000000000e+00,-3.099975585937500000e-01,5.255126953125000000e-02,7.634887695312500000e-01,5.640258789062500000e-01
-2.000000000000000000e+00,-1.000000000000000000e+01,-2.200000000000000000e+01,1.200000000000000000e+01,0.000000000000000000e+00,-8.000000000000000000e+00,-2.400000000000000000e+01,-3.000000000000000000e+00,-3.099975585937500000e-01,5.255126953125000000e-02,7.634887695312500000e-01,5.640258789062500000e-01
-3.000000000000000000e+00,2.000000000000000000e+00,-4.300000000000000000e+01,-1.200000000000000000e+01,3.000000000000000000e+00,4.000000000000000000e+00,3.100000000000000000e+01,2.000000000000000000e+00,-3.099975585937500000e-01,5.255126953125000000e-02,7.634887695312500000e-01,5.640258789062500000e-01
-4.000000000000000000e+00,-3.000000000000000000e+00,2.700000000000000000e+01,1.200000000000000000e+01,5.000000000000000000e+00,0.000000000000000000e+00,5.000000000000000000e+00,-1.000000000000000000e+00,-3.102416992187500000e-01,5.273437500000000000e-02,7.637329101562500000e-01,5.635375976562500000e-01
7.000000000000000000e+00,-2.000000000000000000e+00,2.000000000000000000e+00,-7.000000000000000000e+00,-9.000000000000000000e+00,6.000000000000000000e+00,-1.000000000000000000e+00,2.000000000000000000e+00,-3.102416992187500000e-01,5.273437500000000000e-02,7.637329101562500000e-01,5.635375976562500000e-01
2.000000000000000000e+00,7.000000000000000000e+00,9.000000000000000000e+00,9.000000000000000000e+00,6.000000000000000000e+00,-2.000000000000000000e+00,-2.000000000000000000e+00,-1.000000000000000000e+00,-3.102416992187500000e-01,5.273437500000000000e-02,7.637329101562500000e-01,5.635375976562500000e-01
-9.000000000000000000e+00,-1.100000000000000000e+01,1.400000000000000000e+01,-1.300000000000000000e+01,-7.000000000000000000e+00,-2.000000000000000000e+00,-1.000000000000000000e+00,-1.000000000000000000e+00,-3.102416992187500000e-01,5.273437500000000000e-02,7.637329101562500000e-01,5.635375976562500000e-01
4.000000000000000000e+00,-2.000000000000000000e+00,-2.800000000000000000e+01,-8.000000000000000000e+00,2.000000000000000000e+00,-3.000000000000000000e+00,-9.000000000000000000e+00,-3.000000000000000000e+00,-3.105468750000000000e-01,5.230712890625000000e-02,7.640991210937500000e-01,5.629272460937500000e-01
3.000000000000000000e+00,1.100000000000000000e+01,6.100000000000000000e+01,3.000000000000000000e+00,-2.000000000000000000e+00,4.000000000000000000e+00,4.000000000000000000e+00,-3.000000000000000000e+00,-3.105468750000000000e-01,5.230712890625000000e-02,7.640991210937500000e-01,5.629272460937500000e-01
-2.000000000000000000e+00,-9.000000000000000000e+00,-7.200000000000000000e+01,1.000000000000000000e+00,-5.000000000000000000e+00,-6.000000000000000000e+00,3.000000000000000000e+00,-1.000000000000000000e+00,-3.105468750000000000e-01,5.230712890625000000e-02,7.640991210937500000e-01,5.629272460937500000e-01
-8.000000000000000000e+00,0.000000000000000000e+00,2.300000000000000000e+01,1.300000000000000000e+01,1.200000000000000000e+01,4.000000000000000000e+00,1.700000000000000000e+01,-2.000000000000000000e+00,-3.105468750000000000e-01,5.230712890625000000e-02,7.640991210937500000e-01,5.629272460937500000e-01
6.000000000000000000e+00,-6.000000000000000000e+00,2.900000000000000000e+01,-3.000000000000000000e+00,-1.200000000000000000e+01,-5.000000000000000000e+00,-2.500000000000000000e+01,-4.000000000000000000e+00,-3.110351562500000000e-01,5.175781250000000000e-02,7.643432617187500000e-01,5.623779296875000000e-01
-2.500000000000000000e+01,-1.600000000000000000e+01,-9.600000000000000000e+01,-2.500000000000000000e+01,-6.000000000000000000e+00,-1.300000000000000000e+01,-2.400000000000000000e+01,-3.000000000000000000e+00,-3.110351562500000000e-01,5.175781250000000000e-02,7.643432617187500000e-01,5.623779296875000000e-01
-1.000000000000000000e+00,3.000000000000000000e+00,6.000000000000000000e+01,5.000000000000000000e+00,6.000000000000000000e+00,1.600000000000000000e+01,9.000000000000000000e+00,0.000000000000000000e+00,-3.110351562500000000e-01,5.175781250000000000e-02,7.643432617187500000e-01,5.623779296875000000e-01
7.000000000000000000e+00,4.000000000000000000e+00,-2.200000000000000000e+01,-6.000000000000000000e+00,1.000000000000000000e+00,2.000000000000000000e+00,-1.000000000000000000e+00,-1.000000000000000000e+00,-3.110351562500000000e-01,5.175781250000000000e-02,7.643432617187500000e-01,5.623779296875000000e-01
-2.000000000000000000e+00,-1.300000000000000000e+01,-5.100000000000000000e+01,-1.200000000000000000e+01,-4.000000000000000000e+00,-1.000000000000000000e+01,1.000000000000000000e+00,1.000000000000000000e+00,-3.110351562500000000e-01,5.181884765625000000e-02,7.644653320312500000e-01,5.622558593750000000e-01
0.000000000000000000e+00,5.000000000000000000e+00,2.200000000000000000e+01,1.600000000000000000e+01,7.000000000000000000e+00,0.000000000000000000e+00,1.000000000000000000e+00,1.000000000000000000e+00,-3.110351562500000000e-01,5.181884765625000000e-02,7.644653320312500000e-01,5.622558593750000000e-01
6.000000000000000000e+00,1.400000000000000000e+01,1.600000000000000000e+01,1.700000000000000000e+01,4.000000000000000000e+00,-1.000000000000000000e+01,-9.000000000000000000e+00,0.000000000000000000e+00,-3.110351562500000000e-01,5.181884765625000000e-02,7.644653320312500000e-01,5.622558593750000000e-01
-1.000000000000000000e+00,-3.000000000000000000e+00,-1.000000000000000000e+00,-1.500000000000000000e+01,-1.000000000000000000e+01,7.000000000000000000e+00,-1.000000000000000000e+01,-2.000000000000000000e+00,-3.110351562500000000e-01,5.181884765625000000e-02,7.644653320312500000e-01,5.622558593750000000e-01
-4.000000000000000000e+00,-1.300000000000000000e+01,-1.400000000000000000e+01,-8.000000000000000000e+00,-4.000000000000000000e+00,2.000000000000000000e+00,-1.000000000000000000e+00,-2.000000000000000000e+00,-3.106689453125000000e-01,5.212402343750000000e-02,7.646484375000000000e-01,5.621948242187500000e-01
-2.000000000000000000e+00,3.000000000000000000e+00,-7.000000000000000000e+00,-6.000000000000000000e+00,-3.000000000000000000e+00,1.000000000000000000e+00,9.000000000000000000e+00,-1.000000000000000000e+00,-3.106689453125000000e-01,5.212402343750000000e-02,7.646484375000000000e-01,5.621948242187500000e-01
8.000000000000000000e+00,1.300000000000000000e+01,1.400000000000000000e+01,-1.000000000000000000e+01,-6.000000000000000000e+00,-3.000000000000000000e+00,-1.000000000000000000e+00,1.000000000000000000e+00,-3.106689453125000000e-01,5.212402343750000000e-02,7.646484375000000000e-01,5.621948242187500000e-01
-9.000000000000000000e+00,-1.000000000000000000e+00,4.800000000000000000e+01,1.000000000000000000e+01,-4.000000000000000000e+00,-1.300000000000000000e+01,3.000000000000000000e+00,-2.000000000000000000e+00,-3.106689453125000000e-01,5.212402343750000000e-02,7.646484375000000000e-01,5.621948242187500000e-01
-6.000000000000000000e+00,-1.100000000000000000e+01,-5.300000000000000000e+01,-1.500000000000000000e+01,-7.000000000000000000e+00,7.000000000000000000e+00,-4.100000000000000000e+01,-1.000000000000000000e+00,-3.107299804687500000e-01,5.200195312500000000e-02,7.650146484375000000e-01,5.616455078125000000e-01
0.000000000000000000e+00,1.900000000000000000e+01,7.100000000000000000e+01,9.000000000000000000e+00,0.000000000000000000e+00,2.000000000000000000e+00,1.300000000000000000e+01,-1.000000000000000000e+00,-3.107299804687500000e-01,5.200195312500000000e-02,7.650146484375000000e-01,5.616455078125000000e-01
1.000000000000000000e+00,-2.400000000000000000e+01,-6.400000000000000000e+01,0.000000000000000000e+00,-6.000000000000000000e+00,-7.000000000000000000e+00,-9.000000000000000000e+00,-3.000000000000000000e+00,-3.107299804687500000e-01,5.200195312500000000e-02,7.650146484375000000e-01,5.616455078125000000e-01
2.000000000000000000e+00,4.000000000000000000e+00,-1.900000000000000000e+01,-5.000000000000000000e+00,-1.000000000000000000e+00,-7.000000000000000000e+00,-1.300000000000000000e+01,0.000000000000000000e+00,-3.107299804687500000e-01,5.200195312500000000e-02,7.650146484375000000e-01,5.616455078125000000e-01
-5.000000000000000000e+00,-1.300000000000000000e+01,-3.200000000000000000e+01,-2.000000000000000000e+00,5.000000000000000000e+00,1.000000000000000000e+01,1.900000000000000000e+01,-1.000000000000000000e+00,-3.110961914062500000e-01,5.114746093750000000e-02,7.653198242187500000e-01,5.610351562500000000e-01
1.100000000000000000e+01,6.000000000000000000e+00,4.500000000000000000e+01,1.200000000000000000e+01,1.000000000000000000e+00,0.000000000000000000e+00,-6.000000000000000000e+00,1.000000000000000000e+00,-3.110961914062500000e-01,5.114746093750000000e-02,7.653198242187500000e-01,5.610351562500000000e-01
2.000000000000000000e+00,1.500000000000000000e+01,1.000000000000000000e+01,-7.000000000000000000e+00,0.000000000000000000e+00,3.000000000000000000e+00,2.000000000000000000e+00,-1.000000000000000000e+00,-3.110961914062500000e-01,5.114746093750000000e-02,7.653198242187500000e-01,5.610351562500000000e-01
-7.000000000000000000e+00,-7.000000000000000000e+00,1.500000000000000000e+01,-9.000000000000000000e+00,0.000000000000000000e+00,-6.000000000000000000e+00,-4.000000000000000000e+00,-1.000000000000000000e+00,-3.110961914062500000e-01,5.114746093750000000e-02,7.653198242187500000e-01,5.610351562500000000e-01
1.100000000000000000e+01,1.200000000000000000e+01,1.700000000000000000e+01,2.500000000000000000e+01,1.400000000000000000e+01,1.000000000000000000e+00,1.300000000000000000e+01,4.000000000000000000e+00,-3.110961914062500000e-01,5.078125000000000000e-02,7.655639648437500000e-01,5.607910156250000000e-01
1.000000000000000000e+01,-2.400000000000000000e+01,-9.800000000000000000e+01,-1.700000000000000000e+01,-1.300000000000000000e+01,-2.100000000000000000e+01,-6.000000000000000000e+00,-2.000000000000000000e+00,-3.110961914062500000e-01,5.078125000000000000e-02,7.655639648437500000e-01,5.607910156250000000e-01
-1.800000000000000000e+01,0.000000000000000000e+00,5.700000000000000000e+01,1.000000000000000000e+00,5.000000000000000000e+00,2.100000000000000000e+01,2.500000000000000000e+01,-2.000000000000000000e+00,-3.110961914062500000e-01,5.078125000000000000e-02,7.655639648437500000e-01,5.607910156250000000e-01
-1.000000000000000000e+00,-2.000000000000000000e+00,-2.000000000000000000e+00,4.000000000000000000e+00,4.000000000000000000e+00,9.000000000000000000e+00,-3.000000000000000000e+00,-2.000000000000000000e+00,-3.110961914062500000e-01,5.078125000000000000e-02,7.655639648437500000e-01,5.607910156250000000e-01
4.000000000000000000e+00,8.000000000000000000e+00,1.300000000000000000e+01,-1.000000000000000000e+01,-1.000000000000000000e+00,-8.000000000000000000e+00,-2.000000000000000000e+00,-1.000000000000000000e+00,-3.110961914062500000e-01,5.084228515625000000e-02,7.655639648437500000e-01,5.607910156250000000e-01
1.000000000000000000e+00,-6.000000000000000000e+00,2.200000000000000000e+01,-1.000000000000000000e+00,0.000000000000000000e+00,-2.000000000000000000e+00,-4.000000000000000000e+00,-1.000000000000000000e+00,-3.110961914062500000e-01,5.084228515625000000e-02,7.655639648437500000e-01,5.607910156250000000e-01
-1.000000000000000000e+00,-6.000000000000000000e+00,-3.500000000000000000e+01,3.000000000000000000e+00,-9.000000000000000000e+00,2.000000000000000000e+00,-3.300000000000000000e+01,-3.000000000000000000e+00,-3.110961914062500000e-01,5.084228515625000000e-02,7.655639648437500000e-01,5.607910156250000000e-01
-1.100000000000000000e+01,-1.300000000000000000e+01,9.000000000000000000e+00,-2.000000000000000000e+00,3.000000000000000000e+00,-8.000000000000000000e+00,-4.000000000000000000e+00,-4.000000000000000000e+00,-3.110961914062500000e-01,5.084228515625000000e-02,7.655639648437500000e-01,5.607910156250000000e-01
-7.000000000000000000e+00,9.000000000000000000e+00,2.000000000000000000e+01,4.000000000000000000e+00,-2.000000000000000000e+00,7.000000000000000000e+00,1.100000000000000000e+01,-1.000000000000000000e+00,-3.109741210937500000e-01,5.084228515625000000e-02,7.658081054687500000e-01,5.605468750000000000e-01
4.000000000000000000e+00,-9.000000000000000000e+00,-4.800000000000000000e+01,-9.000000000000000000e+00,0.000000000000000000e+00,-3.000000000000000000e+00,-6.000000000000000000e+00,-1.000000000000000000e+00,-3.109741210937500000e-01,5.084228515625000000e-02,7.658081054687500000e-01,5.605468750000000000e-01
-1.000000000000000000e+01,-1.200000000000000000e+01,0.000000000000000000e+00,-6.000000000000000000e+00,-5.000000000000000000e+00,-4.000000000000000000e+00,6.000000000000000000e+00,-1.000000000000000000e+00,-3.109741210937500000e-01,5.084228515625000000e-02,7.658081054687500000e-01,5.605468750000000000e-01
5.000000000000000000e+00,1.300000000000000000e+01,2.600000000000000000e+01,2.000000000000000000e+01,-2.000000000000000000e+00,1.000000000000000000e+00,5.000000000000000000e+00,0.000000000000000000e+00,-3.109741210937500000e-01,5.084228515625000000e-02,7.658081054687500000e-01,5.605468750000000000e-01
-1.600000000000000000e+01,-8.000000000000000000e+00,-6.000000000000000000e+00,-4.300000000000000000e+01,-1.600000000000000000e+01,-1.800000000000000000e+01,-1.300000000000000000e+01,-5.000000000000000000e+00,-3.110961914062500000e-01,5.078125000000000000e-02,7.660522460937500000e-01,5.601196289062500000e-01
1.000000000000000000e+01,-3.000000000000000000e+00,-3.500000000000000000e+01,-2.000000000000000000e+00,7.000000000000000000e+00,1.100000000000000000e+01,-3.000000000000000000e+00,-4.000000000000000000e+00,-3.110961914062500000e-01,5.078125000000000000e-02,7.660522460937500000e-01,5.601196289062500000e-01
4.000000000000000000e+00,1.200000000000000000e+01,7.100000000000000000e+01,1.000000000000000000e+01,6.000000000000000000e+00,-3.000000000000000000e+00,5.000000000000000000e+00,3.000000000000000000e+00,-3.110961914062500000e-01,5.078125000000000000e-02,7.660522460937500000e-01,5.601196289062500000e-01
4.000000000000000000e+00,-8.000000000000000000e+00,-5.400000000000000000e+01,-8.000000000000000000e+00,-4.000000000000000000e+00,7.000000000000000000e+00,6.000000000000000000e+00,1.000000000000000000e+00,-3.110961914062500000e-01,5.078125000000000000e-02,7.660522460937500000e-01,5.601196289062500000e-01
-7.000000000000000000e+00,1.200000000000000000e+01,5.700000000000000000e+01,7.000000000000000000e+00,-1.000000000000000000e+00,-6.000000000000000000e+00,2.000000000000000000e+00,-1.000000000000000000e+00,-3.112792968750000000e-01,5.041503906250000000e-02,7.663574218750000000e-01,5.596313476562500000e-01
1.000000000000000000e+01,-1.000000000000000000e+01,-6.600000000000000000e+01,-3.000000000000000000e+00,-2.000000000000000000e+00,-2.000000000000000000e+01,-1.200000000000000000e+01,-1.000000000000000000e+00,-3.112792968750000000e-01,5.041503906250000000e-02,7.663574218750000000e-01,5.596313476562500000e-01
-4.000000000000000000e+00,-3.000000000000000000e+00,2.000000000000000000e+01,-2.000000000000000000e+00,-6.000000000000000000e+00,3.300000000000000000e+01,2.600000000000000000e+01,1.000000000000000000e+00,-3.112792968750000000e-01,5.041503906250000000e-02,7.663574218750000000e-01,5.596313476562500000e-01
-2.000000000000000000e+00,3.000000000000000000e+00,1.900000000000000000e+01,1.700000000000000000e+01,7.000000000000000000e+00,3.000000000000000000e+00,1.000000000000000000e+00,0.000000000000000000e+00,-3.112792968750000000e-01,5.041503906250000000e-02,7.663574218750000000e-01,5.596313476562500000e-01
-4.000000000000000000e+00,-5.000000000000000000e+00,-4.000000000000000000e+00,-8.000000000000000000e+00,-1.200000000000000000e+01,-1.100000000000000000e+01,-1.000000000000000000e+01,-4.000000000000000000e+00,-3.112182617187500000e-01,5.029296875000000000e-02,7.665405273437500000e-01,5.594482421875000000e-01
-6.000000000000000000e+00,8.000000000000000000e+00,1.500000000000000000e+01,-2.000000000000000000e+00,-3.000000000000000000e+00,5.000000000000000000e+00,7.000000000000000000e+00,2.000000000000000000e+00,-3.112182617187500000e-01,5.029296875000000000e-02,7.665405273437500000e-01,5.594482421875000000e-01
9.000000000000000000e+00,1.000000000000000000e+00,6.000000000000000000e+00,1.200000000000000000e+01,-4.000000000000000000e+00,-1.900000000000000000e+01,-1.700000000000000000e+01,-1.000000000000000000e+00,-3.112182617187500000e-01,5.029296875000000000e-02,7.665405273437500000e-01,5.594482421875000000e-01
-2.800000000000000000e+01,-1.000000000000000000e+00,-2.000000000000000000e+01,-2.100000000000000000e+01,-3.000000000000000000e+00,-5.000000000000000000e+00,-5.000000000000000000e+00,-2.000000000000000000e+00,-3.112182617187500000e-01,5.029296875000000000e-02,7.665405273437500000e-01,5.594482421875000000e-01
7.000000000000000000e+00,1.000000000000000000e+00,-1.400000000000000000e+01,-1.300000000000000000e+01,0.000000000000000000e+00,8.000000000000000000e+00,-1.100000000000000000e+01,-3.000000000000000000e+00,-3.112182617187500000e-01,5.029296875000000000e-02,7.665405273437500000e-01,5.594482421875000000e-01
-3.000000000000000000e+00,-5.000000000000000000e+00,4.800000000000000000e+01,5.000000000000000000e+01,6.000000000000000000e+00,-4.000000000000000000e+00,9.000000000000000000e+00,-1.000000000000000000e+00,-3.112182617187500000e-01,5.029296875000000000e-02,7.665405273437500000e-01,5.594482421875000000e-01
2.000000000000000000e+00,-1.600000000000000000e+01,-7.800000000000000000e+01,-2.000000000000000000e+01,-6.000000000000000000e+00,-4.000000000000000000e+00,6.000000000000000000e+00,-2.000000000000000000e+00,-3.112182617187500000e-01,5.029296875000000000e-02,7.665405273437500000e-01,5.594482421875000000e-01
3.000000000000000000e+00,1.300000000000000000e+01,3.800000000000000000e+01,-6.000000000000000000e+00,2.000000000000000000e+00,6.000000000000000000e+00,-4.000000000000000000e+00,0.000000000000000000e+00,-3.112182617187500000e-01,5.029296875000000000e-02,7.665405273437500000e-01,5.594482421875000000e-01
-1.000000000000000000e+00,3.000000000000000000e+00,2.600000000000000000e+01,9.000000000000000000e+00,2.000000000000000000e+00,-1.300000000000000000e+01,-7.000000000000000000e+00,-4.000000000000000000e+00,-3.111572265625000000e-01,5.017089843750000000e-02,7.666015625000000000e-01,5.593872070312500000e-01
-9.000000000000000000e+00,4.000000000000000000e+00,1.700000000000000000e+01,-1.300000000000000000e+01,-5.000000000000000000e+00,1.000000000000000000e+00,5.000000000000000000e+00,0.000000000000000000e+00,-3.111572265625000000e-01,5.017089843750000000e-02,7.666015625000000000e-01,5.593872070312500000e-01
3.000000000000000000e+00,-4.000000000000000000e+00,4.600000000000000000e+01,9.000000000000000000e+00,3.000000000000000000e+00,-1.400000000000000000e+01,-8.000000000000000000e+00,2.000000000000000000e+00,-3.111572265625000000e-01,5.017089843750000000e-02,7.666015625000000000e-01,5.593872070312500000e-01
5.000000000000000000e+00,9.000000000000000000e+00,-7.000000000000000000e+00,-9.000000000000000000e+00,-2.000000000000000000e+00,-2.000000000000000000e+00,-2.500000000000000000e+01,-2.000000000000000000e+00,-3.111572265625000000e-01,5.017089843750000000e-02,7.666015625000000000e-01,5.593872070312500000e-01
3.000000000000000000e+00,-2.000000000000000000e+00,-3.300000000000000000e+01,1.800000000000000000e+01,9.000000000000000000e+00,2.500000000000000000e+01,4.300000000000000000e+01,6.000000000000000000e+00,-3.108520507812500000e-01,5.035400390625000000e-02,7.667846679687500000e-01,5.592651367187500000e-01
-6.000000000000000000e+00,-5.000000000000000000e+00,-2.500000000000000000e+01,-1.000000000000000000e+01,0.000000000000000000e+00,3.000000000000000000e+00,-1.000000000000000000e+00,-3.000000000000000000e+00,-3.108520507812500000e-01,5.035400390625000000e-02,7.667846679687500000e-01,5.592651367187500000e-01
-4.000000000000000000e+00,1.000000000000000000e+00,-1.500000000000000000e+01,-4.000000000000000000e+00,-2.000000000000000000e+00,-8.000000000000000000e+00,-3.000000000000000000e+00,0.000000000000000000e+00,-3.108520507812500000e-01,5.035400390625000000e-02,7.667846679687500000e-01,5.592651367187500000e-01
1.900000000000000000e+01,5.000000000000000000e+00,4.300000000000000000e+01,8.000000000000000000e+00,2.000000000000000000e+00,0.000000000000000000e+00,2.000000000000000000e+00,4.000000000000000000e+00,-3.108520507812500000e-01,5.035400390625000000e-02,7.667846679687500000e-01,5.592651367187500000e-01
4.000000000000000000e+00,-2.000000000000000000e+00,-2.300000000000000000e+01,-9.000000000000000000e+00,-8.000000000000000000e+00,-1.800000000000000000e+01,-2.600000000000000000e+01,-3.000000000000000000e+00,-3.109130859375000000e-01,5.023193359375000000e-02,7.669677734375000000e-01,5.590209960937500000e-01
-3.600000000000000000e+01,-5.000000000000000000e+00,7.300000000000000000e+01,-6.000000000000000000e+00,-2.000000000000000000e+00,4.000000000000000000e+00,1.900000000000000000e+01,2.000000000000000000e+00,-3.109130859375000000e-01,5.023193359375000000e-02,7.669677734375000000e-01,5.590209960937500000e-01
8.000000000000000000e+00,0.000000000000000000e+00,-3.700000000000000000e+01,1.000000000000000000e+01,5.000000000000000000e+00,1.200000000000000000e+01,7.000000000000000000e+00,-1.000000000000000000e+00,-3.109130859375000000e-01,5.023193359375000000e-02,7.669677734375000000e-01,5.590209960937500000e-01
8.000000000000000000e+00,-3.000000000000000000e+00,-5.200000000000000000e+01,2.000000000000000000e+00,-9.000000000000000000e+00,-6.000000000000000000e+00,3.000000000000000000e+00,-3.000000000000000000e+00,-3.109130859375000000e-01,5.023193359375000000e-02,7.669677734375000000e-01,5.590209960937500000e-01
-1.000000000000000000e+01,-2.000000000000000000e+00,1.400000000000000000e+01,1.000000000000000000e+01,8.000000000000000000e+00,0.000000000000000000e+00,2.000000000000000000e+00,1.000000000000000000e+00,-3.110961914062500000e-01,5.010986328125000000e-02,7.670898437500000000e-01,5.587158203125000000e-01
3.000000000000000000e+00,-1.300000000000000000e+01,-3.100000000000000000e+01,-5.000000000000000000e+00,-3.000000000000000000e+00,-1.000000000000000000e+00,-2.000000000000000000e+00,-3.000000000000000000e+00,-3.110961914062500000e-01,5.010986328125000000e-02,7.670898437500000000e-01,5.587158203125000000e-01
-1.100000000000000000e+01,1.000000000000000000e+00,-5.000000000000000000e+00,-1.000000000000000000e+01,-4.000000000000000000e+00,-6.000000000000000000e+00,-1.200000000000000000e+01,-2.000000000000000000e+00,-3.110961914062500000e-01,5.010986328125000000e-02,7.670898437500000000e-01,5.587158203125000000e-01
1.500000000000000000e+01,1.100000000000000000e+01,4.700000000000000000e+01,1.000000000000000000e+00,2.000000000000000000e+00,1.000000000000000000e+00,1.000000000000000000e+00,0.000000000000000000e+00,-3.110961914062500000e-01,5.010986328125000000e-02,7.670898437500000000e-01,5.587158203125000000e-01
2.000000000000000000e+00,-1.300000000000000000e+01,2.000000000000000000e+00,8.000000000000000000e+00,-4.000000000000000000e+00,2.000000000000000000e+00,8.000000000000000000e+00,0.000000000000000000e+00,-3.112182617187500000e-01,5.017089843750000000e-02,7.672729492187500000e-01,5.584716796875000000e-01
1.000000000000000000e+00,6.000000000000000000e+00,1.000000000000000000e+00,1.000000000000000000e+01,4.000000000000000000e+00,-9.000000000000000000e+00,-2.500000000000000000e+01,-3.000000000000000000e+00,-3.112182617187500000e-01,5.017089843750000000e-02,7.672729492187500000e-01,5.584716796875000000e-01
-1.200000000000000000e+01,-6.000000000000000000e+00,-5.800000000000000000e+01,-3.400000000000000000e+01,3.000000000000000000e+00,1.000000000000000000e+01,7.000000000000000000e+00,-1.000000000000000000e+00,-3.112182617187500000e-01,5.017089843750000000e-02,7.672729492187500000e-01,5.584716796875000000e-01
-4.000000000000000000e+00,-1.000000000000000000e+01,4.900000000000000000e+01,2.300000000000000000e+01,2.000000000000000000e+00,7.000000000000000000e+00,9.000000000000000000e+00,-1.000000000000000000e+00,-3.112182617187500000e-01,5.017089843750000000e-02,7.672729492187500000e-01,5.584716796875000000e-01
1.000000000000000000e+01,6.000000000000000000e+00,-4.800000000000000000e+01,-2.800000000000000000e+01,6.000000000000000000e+00,-2.000000000000000000e+00,-6.000000000000000000e+00,-1.000000000000000000e+00,-3.112182617187500000e-01,5.023193359375000000e-02,7.673950195312500000e-01,5.582885742187500000e-01
-6.000000000000000000e+00,3.000000000000000000e+00,6.200000000000000000e+01,1.200000000000000000e+01,-5.000000000000000000e+00,3.000000000000000000e+00,1.000000000000000000e+01,0.000000000000000000e+00,-3.112182617187500000e-01,5.023193359375000000e-02,7.673950195312500000e-01,5.582885742187500000e-01
7.000000000000000000e+00,6.000000000000000000e+00,1.100000000000000000e+01,2.900000000000000000e+01,8.000000000000000000e+00,-5.000000000000000000e+00,-9.000000000000000000e+00,0.000000000000000000e+00,-3.112182617187500000e-01,5.023193359375000000e-02,7.673950195312500000e-01,5.582885742187500000e-01
-7.000000000000000000e+00,-9.000000000000000000e+00,-7.000000000000000000e+00,-1.700000000000000000e+01,-6.000000000000000000e+00,1.000000000000000000e+00,1.000000000000000000e+01,1.000000000000000000e+00,-3.112182617187500000e-01,5.023193359375000000e-02,7.673950195312500000e-01,5.582885742187500000e-01
-9.000000000000000000e+00,-1.000000000000000000e+00,2.000000000000000000e+01,4.000000000000000000e+00,0.000000000000000000e+00,-5.000000000000000000e+00,3.000000000000000000e+00,-1.000000000000000000e+00,-3.110961914062500000e-01,5.041503906250000000e-02,7.675170898437500000e-01,5.581665039062500000e-01
0.000000000000000000e+00,-7.000000000000000000e+00,-4.700000000000000000e+01,-1.400000000000000000e+01,-1.500000000000000000e+01,4.000000000000000000e+00,1.800000000000000000e+01,-1.000000000000000000e+00,-3.110961914062500000e-01,5.041503906250000000e-02,7.675170898437500000e-01,5.581665039062500000e-01
7.000000000000000000e+00,1.200000000000000000e+01,4.300000000000000000e+01,1.100000000000000000e+01,8.000000000000000000e+00,-3.000000000000000000e+00,-1.200000000000000000e+01,0.000000000000000000e+00,-3.110961914062500000e-01,5.041503906250000000e-02,7.675170898437500000e-01,5.581665039062500000e-01
-1.700000000000000000e+01,-1.500000000000000000e+01,-4.500000000000000000e+01,-1.100000000000000000e+01,-3.000000000000000000e+00,2.000000000000000000e+00,1.300000000000000000e+01,-2.000000000000000000e+00,-3.110961914062500000e-01,5.041503906250000000e-02,7.675170898437500000e-01,5.581665039062500000e-01
2.000000000000000000e+00,-5.000000000000000000e+00,-2.500000000000000000e+01,0.000000000000000000e+00,-5.000000000000000000e+00,-1.600000000000000000e+01,-1.000000000000000000e+01,-5.000000000000000000e+00,-3.110961914062500000e-01,5.017089843750000000e-02,7.677001953125000000e-01,5.579223632812500000e-01
0.000000000000000000e+00,-1.100000000000000000e+01,-4.300000000000000000e+01,-1.600000000000000000e+01,0.000000000000000000e+00,1.900000000000000000e+01,1.000000000000000000e+00,-2.000000000000000000e+00,-3.110961914062500000e-01,5.017089843750000000e-02,7.677001953125000000e-01,5.579223632812500000e-01
-5.000000000000000000e+00,5.000000000000000000e+00,2.400000000000000000e+01,0.000000000000000000e+00,-4.000000000000000000e+00,-1.100000000000000000e+01,-6.000000000000000000e+00,-1.000000000000000000e+00,-3.110961914062500000e-01,5.017089843750000000e-02,7.677001953125000000e-01,5.579223632812500000e-01
-6.000000000000000000e+00,0.000000000000000000e+00,4.000000000000000000e+00,1.300000000000000000e+01,1.000000000000000000e+00,6.000000000000000000e+00,0.000000000000000000e+00,-2.000000000000000000e+00,-3.110961914062500000e-01,5.017089843750000000e-02,7.677001953125000000e-01,5.579223632812500000e-01
4.000000000000000000e+00,7.000000000000000000e+00,7.000000000000000000e+00,-9.000000000000000000e+00,-7.000000000000000000e+00,-1.400000000000000000e+01,-1.900000000000000000e+01,-5.000000000000000000e+00,-3.110351562500000000e-01,4.998779296875000000e-02,7.679443359375000000e-01,5.576782226562500000e-01
8.000000000000000000e+00,1.200000000000000000e+01,3.700000000000000000e+01,2.000000000000000000e+00,4.000000000000000000e+00,1.100000000000000000e+01,2.200000000000000000e+01,2.000000000000000000e+00,-3.110351562500000000e-01,4.998779296875000000e-02,7.679443359375000000e-01,5.576782226562500000e-01
-6.000000000000000000e+00,-1.600000000000000000e+01,-4.300000000000000000e+01,-2.100000000000000000e+01,-4.000000000000000000e+00,2.000000000000000000e+00,2.000000000000000000e+00,-2.000000000000000000e+00,-3.110351562500000000e-01,4.998779296875000000e-02,7.679443359375000000e-01,5.576782226562500000e-01
7.000000000000000000e+00,1.000000000000000000e+00,3.000000000000000000e+00,-1.000000000000000000e+00,-7.000000000000000000e+00,-1.000000000000000000e+01,-9.000000000000000000e+00,-3.000000000000000000e+00,-3.110351562500000000e-01,4.998779296875000000e-02,7.679443359375000000e-01,5.576782226562500000e-01
-7.000000000000000000e+00,-6.000000000000000000e+00,7.000000000000000000e+00,1.200000000000000000e+01,0.000000000000000000e+00,2.000000000000000000e+00,1.000000000000000000e+00,-2.000000000000000000e+00,-3.110351562500000000e-01,4.986572265625000000e-02,7.680664062500000000e-01,5.574340820312500000e-01
4.000000000000000000e+00,0.000000000000000000e+00,-3.700000000000000000e+01,-1.000000000000000000e+01,2.000000000000000000e+00,-6.000000000000000000e+00,-1.900000000000000000e+01,-3.000000000000000000e+00,-3.110351562500000000e-01,4.986572265625000000e-02,7.680664062500000000e-01,5.574340820312500000e-01
3.000000000000000000e+00,8.000000000000000000e+00,8.200000000000000000e+01,2.400000000000000000e+01,1.000000000000000000e+00,-2.000000000000000000e+00,2.000000000000000000e+00,0.000000000000000000e+00,-3.110351562500000000e-01,4.986572265625000000e-02,7.680664062500000000e-01,5.574340820312500000e-01
1.100000000000000000e+01,-5.000000000000000000e+00,-2.900000000000000000e+01,-5.000000000000000000e+00,-6.000000000000000000e+00,-1.300000000000000000e+01,2.000000000000000000e+00,1.000000000000000000e+00,-3.110351562500000000e-01,4.986572265625000000e-02,7.680664062500000000e-01,5.574340820312500000e-01
-2.900000000000000000e+01,-8.000000000000000000e+00,1.300000000000000000e+01,0.000000000000000000e+00,1.000000000000000000e+00,2.200000000000000000e+01,1.700000000000000000e+01,0.000000000000000000e+00,-3.109741210937500000e-01,4.986572265625000000e-02,7.680664062500000000e-01,5.574951171875000000e-01
-4.000000000000000000e+00,4.000000000000000000e+00,-8.000000000000000000e+00,-7.000000000000000000e+00,4.000000000000000000e+00,-9.000000000000000000e+00,-4.000000000000000000e+00,-1.000000000000000000e+00,-3.109741210937500000e-01,4.986572265625000000e-02,7.680664062500000000e-01,5.574951171875000000e-01
3.000000000000000000e+00,1.000000000000000000e+00,2.500000000000000000e+01,1.400000000000000000e+01,7.000000000000000000e+00,2.000000000000000000e+00,-1.600000000000000000e+01,-1.000000000000000000e+00,-3.109741210937500000e-01,4.986572265625000000e-02,7.680664062500000000e-01,5.574951171875000000e-01
2.000000000000000000e+00,-3.000000000000000000e+00,-4.900000000000000000e+01,-1.900000000000000000e+01,-3.000000000000000000e+00,-2.000000000000000000e+00,-3.000000000000000000e+00,0.000000000000000000e+00,-3.109741210937500000e-01,4.986572265625000000e-02,7.680664062500000000e-01,5.574951171875000000e-01
6.000000000000000000e+00,8.000000000000000000e+00,6.800000000000000000e+01,1.800000000000000000e+01,-6.000000000000000000e+00,-1.100000000000000000e+01,-2.500000000000000000e+01,-2.000000000000000000e+00,-3.107910156250000000e-01,4.998779296875000000e-02,7.682495117187500000e-01,5.573730468750000000e-01
-6.000000000000000000e+00,-7.000000000000000000e+00,-7.800000000000000000e+01,-2.400000000000000000e+01,3.000000000000000000e+00,1.400000000000000000e+01,2.000000000000000000e+01,2.000000000000000000e+00,-3.107910156250000000e-01,4.998779296875000000e-02,7.682495117187500000e-01,5.573730468750000000e-01
2.000000000000000000e+00,-4.000000000000000000e+00,1.700000000000000000e+01,1.100000000000000000e+01,-3.000000000000000000e+00,-1.100000000000000000e+01,6.000000000000000000e+00,-1.000000000000000000e+00,-3.107910156250000000e-01,4.998779296875000000e-02,7.682495117187500000e-01,5.573730468750000000e-01
-1.600000000000000000e+01,-7.000000000000000000e+00,-4.000000000000000000e+00,-7.000000000000000000e+00,3.000000000000000000e+00,9.000000000000000000e+00,2.000000000000000000e+00,-1.000000000000000000e+00,-3.107910156250000000e-01,4.998779296875000000e-02,7.682495117187500000e-01,5.573730468750000000e-01
1.100000000000000000e+01,5.000000000000000000e+00,-8.000000000000000000e+00,-5.000000000000000000e+00,-1.000000000000000000e+00,-1.400000000000000000e+01,-2.000000000000000000e+01,0.000000000000000000e+00,-3.107910156250000000e-01,4.998779296875000000e-02,7.682495117187500000e-01,5.573730468750000000e-01
1.300000000000000000e+01,1.900000000000000000e+01,7.300000000000000000e+01,2.000000000000000000e+01,-1.000000000000000000e+00,7.000000000000000000e+00,8.000000000000000000e+00,1.000000000000000000e+00,-3.107910156250000000e-01,4.998779296875000000e-02,7.682495117187500000e-01,5.573730468750000000e-01
-1.500000000000000000e+01,-3.000000000000000000e+01,-5.800000000000000000e+01,-2.100000000000000000e+01,-1.200000000000000000e+01,4.000000000000000000e+00,2.000000000000000000e+00,-4.000000000000000000e+00,-3.107910156250000000e-01,4.998779296875000000e-02,7.682495117187500000e-01,5.573730468750000000e-01
-7.000000000000000000e+00,7.000000000000000000e+00,-1.800000000000000000e+01,1.300000000000000000e+01,1.300000000000000000e+01,1.000000000000000000e+00,3.000000000000000000e+00,0.000000000000000000e+00,-3.107910156250000000e-01,4.998779296875000000e-02,7.682495117187500000e-01,5.573730468750000000e-01
-1.000000000000000000e+00,1.000000000000000000e+00,4.500000000000000000e+01,6.000000000000000000e+00,-4.000000000000000000e+00,6.000000000000000000e+00,0.000000000000000000e+00,-2.000000000000000000e+00,-3.107299804687500000e-01,4.992675781250000000e-02,7.682495117187500000e-01,5.573730468750000000e-01
2.000000000000000000e+00,-3.000000000000000000e+00,-4.200000000000000000e+01,-1.700000000000000000e+01,-5.000000000000000000e+00,-1.400000000000000000e+01,-1.700000000000000000e+01,-2.000000000000000000e+00,-3.107299804687500000e-01,4.992675781250000000e-02,7.682495117187500000e-01,5.573730468750000000e-01
1.000000000000000000e+00,1.700000000000000000e+01,-3.000000000000000000e+00,-4.000000000000000000e+00,4.000000000000000000e+00,9.000000000000000000e+00,1.100000000000000000e+01,1.000000000000000000e+00,-3.107299804687500000e-01,4.992675781250000000e-02,7.682495117187500000e-01,5.573730468750000000e-01
3.000000000000000000e+00,-5.000000000000000000e+00,4.900000000000000000e+01,1.200000000000000000e+01,-1.000000000000000000e+00,-3.000000000000000000e+00,6.000000000000000000e+00,1.000000000000000000e+00,-3.107299804687500000e-01,4.992675781250000000e-02,7.682495117187500000e-01,5.573730468750000000e-01
-9.000000000000000000e+00,-2.000000000000000000e+01,-8.800000000000000000e+01,-1.000000000000000000e+01,-5.000000000000000000e+00,7.000000000000000000e+00,-1.100000000000000000e+01,-3.000000000000000000e+00,-3.107299804687500000e-01,4.992675781250000000e-02,7.682495117187500000e-01,5.573730468750000000e-01
5.000000000000000000e+00,-1.300000000000000000e+01,-5.500000000000000000e+01,-1.100000000000000000e+01,-3.000000000000000000e+00,-1.000000000000000000e+00,-1.400000000000000000e+01,-1.000000000000000000e+00,-3.107299804687500000e-01,4.992675781250000000e-02,7.682495117187500000e-01,5.573730468750000000e-01
4.000000000000000000e+00,1.400000000000000000e+01,2.100000000000000000e+01,2.000000000000000000e+00,2.000000000000000000e+00,-5.000000000000000000e+00,-2.000000000000000000e+00,3.000000000000000000e+00,-3.107299804687500000e-01,4.992675781250000000e-02,7.682495117187500000e-01,5.573730468750000000e-01
-1.000000000000000000e+01,7.000000000000000000e+00,3.300000000000000000e+01,-3.000000000000000000e+00,3.000000000000000000e+00,1.100000000000000000e+01,-6.000000000000000000e+00,-4.000000000000000000e+00,-3.107299804687500000e-01,4.992675781250000000e-02,7.682495117187500000e-01,5.573730468750000000e-01
5.000000000000000000e+00,-1.000000000000000000e+01,-3.600000000000000000e+01,-2.000000000000000000e+00,0.000000000000000000e+00,-6.000000000000000000e+00,-1.000000000000000000e+00,0.000000000000000000e+00,-3.109130859375000000e-01,4.968261718750000000e-02,7.682495117187500000e-01,5.572509765625000000e-01
8.000000000000000000e+00,4.000000000000000000e+00,4.600000000000000000e+01,8.000000000000000000e+00,-5.000000000000000000e+00,-1.100000000000000000e+01,-2.400000000000000000e+01,-2.000000000000000000e+00,-3.109130859375000000e-01,4.968261718750000000e-02,7.682495117187500000e-01,5.572509765625000000e-01
-1.100000000000000000e+01,-7.000000000000000000e+00,-5.300000000000000000e+01,-1.300000000000000000e+01,-1.100000000000000000e+01,-3.000000000000000000e+00,5.000000000000000000e+00,-2.000000000000000000e+00,-3.109130859375000000e-01,4.968261718750000000e-02,7.682495117187500000e-01,5.572509765625000000e-01
5.000000000000000000e+00,-2.000000000000000000e+00,3.500000000000000000e+01,-1.000000000000000000e+00,-1.600000000000000000e+01,-7.000000000000000000e+00,5.000000000000000000e+00,-1.000000000000000000e+00,-3.109130859375000000e-01,4.968261718750000000e-02,7.682495117187500000e-01,5.572509765625000000e-01
