-8.000000000000000000e+00,1.900000000000000000e+01,0.000000000000000000e+00,-1.100000000000000000e+01,-1.000000000000000000e+00,-9.000000000000000000e+00,-1.400000000000000000e+01,-4.000000000000000000e+00,2.526855468750000000e-02,4.873657226562500000e-01,-2.242431640625000000e-01,8.435058593750000000e-01
3.000000000000000000e+00,-7.000000000000000000e+00,-9.000000000000000000e+00,1.000000000000000000e+00,0.000000000000000000e+00,5.000000000000000000e+00,-1.000000000000000000e+00,1.000000000000000000e+00,2.526855468750000000e-02,4.873657226562500000e-01,-2.242431640625000000e-01,8.435058593750000000e-01
1.200000000000000000e+01,1.200000000000000000e+01,-1.100000000000000000e+01,-6.000000000000000000e+00,3.000000000000000000e+00,5.000000000000000000e+00,7.000000000000000000e+00,3.000000000000000000e+00,2.526855468750000000e-02,4.873657226562500000e-01,-2.242431640625000000e-01,8.435058593750000000e-01
-5.000000000000000000e+00,1.000000000000000000e+01,1.600000000000000000e+01,-5.000000000000000000e+00,-3.000000000000000000e+00,-1.000000000000000000e+00,-9.000000000000000000e+00,1.000000000000000000e+00,2.526855468750000000e-02,4.873657226562500000e-01,-2.242431640625000000e-01,8.435058593750000000e-01
-3.000000000000000000e+00,1.000000000000000000e+00,-1.600000000000000000e+01,-5.000000000000000000e+00,-1.000000000000000000e+00,0.000000000000000000e+00,5.000000000000000000e+00,-3.000000000000000000e+00,2.447509765625000000e-02,4.871215820312500000e-01,-2.245483398437500000e-01,8.435668945312500000e-01
-1.000000000000000000e+00,-1.000000000000000000e+01,2.000000000000000000e+00,-5.000000000000000000e+00,-3.000000000000000000e+00,-1.000000000000000000e+01,-1.600000000000000000e+01,0.000000000000000000e+00,2.447509765625000000e-02,4.871215820312500000e-01,-2.245483398437500000e-01,8.435668945312500000e-01
-7.000000000000000000e+00,-9.000000000000000000e+00,2.000000000000000000e+00,1.300000000000000000e+01,1.000000000000000000e+00,1.100000000000000000e+01,5.000000000000000000e+00,-1.000000000000000000e+00,2.447509765625000000e-02,4.871215820312500000e-01,-2.245483398437500000e-01,8.435668945312500000e-01
6.000000000000000000e+00,2.300000000000000000e+01,3.000000000000000000e+00,-7.000000000000000000e+00,-2.000000000000000000e+00,8.000000000000000000e+00,1.200000000000000000e+01,1.000000000000000000e+00,2.447509765625000000e-02,4.871215820312500000e-01,-2.245483398437500000e-01,8.435668945312500000e-01
-1.400000000000000000e+01,-8.000000000000000000e+00,1.100000000000000000e+01,1.500000000000000000e+01,0.000000000000000000e+00,-9.000000000000000000e+00,0.000000000000000000e+00,-4.000000000000000000e+00,2.404785156250000000e-02,4.868164062500000000e-01,-2.250366210937500000e-01,8.436279296875000000e-01
1.200000000000000000e+01,2.200000000000000000e+01,6.000000000000000000e+00,-3.000000000000000000e+00,5.000000000000000000e+00,6.000000000000000000e+00,-1.000000000000000000e+00,5.000000000000000000e+00,2.404785156250000000e-02,4.868164062500000000e-01,-2.250366210937500000e-01,8.436279296875000000e-01
-8.000000000000000000e+00,-3.000000000000000000e+01,-7.000000000000000000e+00,1.700000000000000000e+01,-1.000000000000000000e+00,-7.000000000000000000e+00,-8.000000000000000000e+00,-2.000000000000000000e+00,2.404785156250000000e-02,4.868164062500000000e-01,-2.250366210937500000e-01,8.436279296875000000e-01
7.000000000000000000e+00,1.400000000000000000e+01,3.000000000000000000e+00,-1.800000000000000000e+01,1.000000000000000000e+00,-5.000000000000000000e+00,-1.000000000000000000e+00,-1.000000000000000000e+00,2.404785156250000000e-02,4.868164062500000000e-01,-2.250366210937500000e-01,8.436279296875000000e-01
5.000000000000000000e+00,-2.000000000000000000e+00,1.800000000000000000e+01,-2.500000000000000000e+01,-1.100000000000000000e+01,4.000000000000000000e+00,6.000000000000000000e+00,1.000000000000000000e+00,2.355957031250000000e-02,4.868164062500000000e-01,-2.253417968750000000e-01,8.435668945312500000e-01
-6.000000000000000000e+00,-7.000000000000000000e+00,-1.800000000000000000e+01,-3.000000000000000000e+00,-3.000000000000000000e+00,-3.000000000000000000e+00,-4.000000000000000000e+00,-4.000000000000000000e+00,2.355957031250000000e-02,4.868164062500000000e-01,-2.253417968750000000e-01,8.435668945312500000e-01
1.000000000000000000e+00,-4.000000000000000000e+00,-1.200000000000000000e+01,-1.500000000000000000e+01,4.000000000000000000e+00,-3.000000000000000000e+00,0.000000000000000000e+00,-1.000000000000000000e+00,2.355957031250000000e-02,4.868164062500000000e-01,-2.253417968750000000e-01,8.435668945312500000e-01
-5.000000000000000000e+00,1.200000000000000000e+01,1.900000000000000000e+01,1.600000000000000000e+01,-1.000000000000000000e+00,-2.000000000000000000e+00,-2.000000000000000000e+00,1.000000000000000000e+00,2.355957031250000000e-02,4.868164062500000000e-01,-2.253417968750000000e-01,8.435668945312500000e-01
0.000000000000000000e+00,-2.400000000000000000e+01,-1.100000000000000000e+01,7.000000000000000000e+00,7.000000000000000000e+00,3.000000000000000000e+00,-2.000000000000000000e+00,1.000000000000000000e+00,2.325439453125000000e-02,4.866333007812500000e-01,-2.255249023437500000e-01,8.436279296875000000e-01
9.000000000000000000e+00,2.400000000000000000e+01,-7.000000000000000000e+00,-3.000000000000000000e+00,-3.000000000000000000e+00,0.000000000000000000e+00,-5.000000000000000000e+00,1.000000000000000000e+00,2.325439453125000000e-02,4.866333007812500000e-01,-2.255249023437500000e-01,8.436279296875000000e-01
-1.900000000000000000e+01,-1.300000000000000000e+01,-1.200000000000000000e+01,-7.000000000000000000e+00,-6.000000000000000000e+00,-1.200000000000000000e+01,1.900000000000000000e+01,-4.000000000000000000e+00,2.325439453125000000e-02,4.866333007812500000e-01,-2.255249023437500000e-01,8.436279296875000000e-01
4.000000000000000000e+00,3.000000000000000000e+00,-1.000000000000000000e+00,4.000000000000000000e+00,7.000000000000000000e+00,2.400000000000000000e+01,1.000000000000000000e+01,-2.000000000000000000e+00,2.325439453125000000e-02,4.866333007812500000e-01,-2.255249023437500000e-01,8.436279296875000000e-01
-6.000000000000000000e+00,0.000000000000000000e+00,-4.000000000000000000e+00,-5.000000000000000000e+00,-4.000000000000000000e+00,-9.000000000000000000e+00,-1.500000000000000000e+01,3.000000000000000000e+00,2.282714843750000000e-02,4.861450195312500000e-01,-2.258300781250000000e-01,8.438720703125000000e-01
0.000000000000000000e+00,-3.000000000000000000e+01,1.300000000000000000e+01,1.000000000000000000e+00,-2.000000000000000000e+00,-5.000000000000000000e+00,-1.000000000000000000e+00,2.000000000000000000e+00,2.282714843750000000e-02,4.861450195312500000e-01,-2.258300781250000000e-01,8.438720703125000000e-01
9.000000000000000000e+00,2.600000000000000000e+01,8.000000000000000000e+00,2.200000000000000000e+01,0.000000000000000000e+00,-1.000000000000000000e+00,1.200000000000000000e+01,-1.000000000000000000e+00,2.282714843750000000e-02,4.861450195312500000e-01,-2.258300781250000000e-01,8.438720703125000000e-01
-8.000000000000000000e+00,3.000000000000000000e+00,-4.000000000000000000e+00,-1.000000000000000000e+00,-5.000000000000000000e+00,-5.000000000000000000e+00,-1.100000000000000000e+01,3.000000000000000000e+00,2.282714843750000000e-02,4.861450195312500000e-01,-2.258300781250000000e-01,8.438720703125000000e-01
3.000000000000000000e+00,7.000000000000000000e+00,1.000000000000000000e+00,-1.800000000000000000e+01,0.000000000000000000e+00,7.000000000000000000e+00,1.800000000000000000e+01,0.000000000000000000e+00,2.221679687500000000e-02,4.857788085937500000e-01,-2.257080078125000000e-01,8.441162109375000000e-01
1.000000000000000000e+00,-1.000000000000000000e+00,4.000000000000000000e+00,-8.000000000000000000e+00,-4.000000000000000000e+00,-7.000000000000000000e+00,-2.100000000000000000e+01,-2.000000000000000000e+00,2.221679687500000000e-02,4.857788085937500000e-01,-2.257080078125000000e-01,8.441162109375000000e-01
-9.000000000000000000e+00,-1.700000000000000000e+01,1.000000000000000000e+00,3.000000000000000000e+00,5.000000000000000000e+00,3.000000000000000000e+00,2.000000000000000000e+00,-2.000000000000000000e+00,2.221679687500000000e-02,4.857788085937500000e-01,-2.257080078125000000e-01,8.441162109375000000e-01
2.000000000000000000e+00,1.000000000000000000e+00,1.000000000000000000e+00,4.000000000000000000e+00,-6.000000000000000000e+00,-9.000000000000000000e+00,-4.000000000000000000e+00,-2.000000000000000000e+00,2.221679687500000000e-02,4.857788085937500000e-01,-2.257080078125000000e-01,8.441162109375000000e-01
9.000000000000000000e+00,3.200000000000000000e+01,3.000000000000000000e+00,9.000000000000000000e+00,3.000000000000000000e+00,3.000000000000000000e+00,-4.000000000000000000e+00,-3.000000000000000000e+00,2.209472656250000000e-02,4.857177734375000000e-01,-2.254028320312500000e-01,8.442382812500000000e-01
6.000000000000000000e+00,8.000000000000000000e+00,2.000000000000000000e+01,-7.000000000000000000e+00,-1.000000000000000000e+00,2.000000000000000000e+00,7.000000000000000000e+00,4.000000000000000000e+00,2.209472656250000000e-02,4.857177734375000000e-01,-2.254028320312500000e-01,8.442382812500000000e-01
-1.100000000000000000e+01,-1.400000000000000000e+01,-1.500000000000000000e+01,-9.000000000000000000e+00,-6.000000000000000000e+00,-7.000000000000000000e+00,-1.000000000000000000e+01,-3.000000000000000000e+00,2.209472656250000000e-02,4.857177734375000000e-01,-2.254028320312500000e-01,8.442382812500000000e-01
1.000000000000000000e+00,-1.700000000000000000e+01,-9.000000000000000000e+00,4.500000000000000000e+01,7.000000000000000000e+00,0.000000000000000000e+00,0.000000000000000000e+00,-1.000000000000000000e+00,2.209472656250000000e-02,4.857177734375000000e-01,-2.254028320312500000e-01,8.442382812500000000e-01
-9.000000000000000000e+00,-1.800000000000000000e+01,-2.600000000000000000e+01,-4.700000000000000000e+01,-1.200000000000000000e+01,-1.500000000000000000e+01,-1.300000000000000000e+01,-6.000000000000000000e+00,2.172851562500000000e-02,4.856567382812500000e-01,-2.249145507812500000e-01,8.444213867187500000e-01
6.000000000000000000e+00,-7.000000000000000000e+00,1.000000000000000000e+01,2.600000000000000000e+01,1.900000000000000000e+01,1.400000000000000000e+01,1.200000000000000000e+01,-1.000000000000000000e+00,2.172851562500000000e-02,4.856567382812500000e-01,-2.249145507812500000e-01,8.444213867187500000e-01
1.000000000000000000e+00,4.200000000000000000e+01,2.400000000000000000e+01,-1.400000000000000000e+01,-4.000000000000000000e+00,-1.000000000000000000e+00,-6.000000000000000000e+00,3.000000000000000000e+00,2.172851562500000000e-02,4.856567382812500000e-01,-2.249145507812500000e-01,8.444213867187500000e-01
-1.100000000000000000e+01,0.000000000000000000e+00,9.000000000000000000e+00,-3.000000000000000000e+00,3.000000000000000000e+00,5.000000000000000000e+00,1.100000000000000000e+01,0.000000000000000000e+00,2.172851562500000000e-02,4.856567382812500000e-01,-2.249145507812500000e-01,8.444213867187500000e-01
5.000000000000000000e+00,-2.000000000000000000e+01,-1.400000000000000000e+01,1.800000000000000000e+01,3.000000000000000000e+00,-7.000000000000000000e+00,-5.000000000000000000e+00,1.000000000000000000e+00,2.166748046875000000e-02,4.852294921875000000e-01,-2.247924804687500000e-01,8.446655273437500000e-01
-7.000000000000000000e+00,2.400000000000000000e+01,1.000000000000000000e+00,0.000000000000000000e+00,-8.000000000000000000e+00,0.000000000000000000e+00,8.000000000000000000e+00,-7.000000000000000000e+00,2.166748046875000000e-02,4.852294921875000000e-01,-2.247924804687500000e-01,8.446655273437500000e-01
1.000000000000000000e+01,-2.500000000000000000e+01,-5.000000000000000000e+00,-1.100000000000000000e+01,1.000000000000000000e+00,4.000000000000000000e+00,-1.300000000000000000e+01,0.000000000000000000e+00,2.166748046875000000e-02,4.852294921875000000e-01,-2.247924804687500000e-01,8.446655273437500000e-01
0.000000000000000000e+00,1.600000000000000000e+01,0.000000000000000000e+00,-1.400000000000000000e+01,-5.000000000000000000e+00,-5.000000000000000000e+00,-6.000000000000000000e+00,1.000000000000000000e+00,2.166748046875000000e-02,4.852294921875000000e-01,-2.247924804687500000e-01,8.446655273437500000e-01
7.000000000000000000e+00,5.000000000000000000e+00,5.000000000000000000e+00,2.000000000000000000e+01,4.000000000000000000e+00,-1.200000000000000000e+01,-6.000000000000000000e+00,0.000000000000000000e+00,2.215576171875000000e-02,4.846191406250000000e-01,-2.248535156250000000e-01,8.449707031250000000e-01
-1.100000000000000000e+01,-1.000000000000000000e+01,-1.600000000000000000e+01,1.000000000000000000e+00,0.000000000000000000e+00,1.600000000000000000e+01,2.300000000000000000e+01,1.000000000000000000e+00,2.215576171875000000e-02,4.846191406250000000e-01,-2.248535156250000000e-01,8.449707031250000000e-01
1.300000000000000000e+01,3.000000000000000000e+00,1.000000000000000000e+01,5.000000000000000000e+00,2.000000000000000000e+00,-6.000000000000000000e+00,-1.800000000000000000e+01,-4.000000000000000000e+00,2.215576171875000000e-02,4.846191406250000000e-01,-2.248535156250000000e-01,8.449707031250000000e-01
-9.000000000000000000e+00,-1.700000000000000000e+01,-5.000000000000000000e+00,-1.800000000000000000e+01,-5.000000000000000000e+00,4.000000000000000000e+00,3.000000000000000000e+00,-7.000000000000000000e+00,2.215576171875000000e-02,4.846191406250000000e-01,-2.248535156250000000e-01,8.449707031250000000e-01
2.000000000000000000e+00,-2.400000000000000000e+01,-1.500000000000000000e+01,-1.500000000000000000e+01,-1.000000000000000000e+00,1.000000000000000000e+00,-1.000000000000000000e+01,0.000000000000000000e+00,2.221679687500000000e-02,4.844360351562500000e-01,-2.245483398437500000e-01,8.451538085937500000e-01
-4.000000000000000000e+00,4.600000000000000000e+01,3.000000000000000000e+01,-1.000000000000000000e+00,1.000000000000000000e+00,-3.000000000000000000e+00,-8.000000000000000000e+00,-1.000000000000000000e+00,2.221679687500000000e-02,4.844360351562500000e-01,-2.245483398437500000e-01,8.451538085937500000e-01
-7.000000000000000000e+00,-3.800000000000000000e+01,-3.300000000000000000e+01,1.400000000000000000e+01,-3.000000000000000000e+00,-6.000000000000000000e+00,2.000000000000000000e+00,-3.000000000000000000e+00,2.221679687500000000e-02,4.844360351562500000e-01,-2.245483398437500000e-01,8.451538085937500000e-01
-5.000000000000000000e+00,3.200000000000000000e+01,2.200000000000000000e+01,-2.800000000000000000e+01,-5.000000000000000000e+00,-5.000000000000000000e+00,-6.000000000000000000e+00,-7.000000000000000000e+00,2.221679687500000000e-02,4.844360351562500000e-01,-2.245483398437500000e-01,8.451538085937500000e-01
1.200000000000000000e+01,-1.500000000000000000e+01,2.000000000000000000e+00,2.500000000000000000e+01,1.000000000000000000e+00,2.000000000000000000e+00,1.000000000000000000e+01,6.000000000000000000e+00,2.227783203125000000e-02,4.846191406250000000e-01,-2.238159179687500000e-01,8.452758789062500000e-01
-1.200000000000000000e+01,2.100000000000000000e+01,-2.300000000000000000e+01,-9.000000000000000000e+00,1.000000000000000000e+00,0.000000000000000000e+00,1.000000000000000000e+00,2.000000000000000000e+00,2.227783203125000000e-02,4.846191406250000000e-01,-2.238159179687500000e-01,8.452758789062500000e-01
7.000000000000000000e+00,1.100000000000000000e+01,3.500000000000000000e+01,-6.000000000000000000e+00,1.000000000000000000e+00,1.000000000000000000e+00,-6.000000000000000000e+00,1.000000000000000000e+00,2.227783203125000000e-02,4.846191406250000000e-01,-2.238159179687500000e-01,8.452758789062500000e-01
-2.000000000000000000e+01,-4.500000000000000000e+01,-5.400000000000000000e+01,-9.000000000000000000e+00,-9.000000000000000000e+00,2.000000000000000000e+00,1.000000000000000000e+00,-5.000000000000000000e+00,2.227783203125000000e-02,4.846191406250000000e-01,-2.238159179687500000e-01,8.452758789062500000e-01
-1.000000000000000000e+00,2.000000000000000000e+01,1.400000000000000000e+01,1.600000000000000000e+01,8.000000000000000000e+00,1.100000000000000000e+01,1.000000000000000000e+00,-3.000000000000000000e+00,2.209472656250000000e-02,4.848632812500000000e-01,-2.232666015625000000e-01,8.452758789062500000e-01
2.000000000000000000e+00,-2.100000000000000000e+01,-1.900000000000000000e+01,-2.400000000000000000e+01,-8.000000000000000000e+00,1.000000000000000000e+00,1.100000000000000000e+01,2.000000000000000000e+00,2.209472656250000000e-02,4.848632812500000000e-01,-2.232666015625000000e-01,8.452758789062500000e-01
-1.000000000000000000e+00,1.700000000000000000e+01,1.300000000000000000e+01,6.000000000000000000e+00,-4.000000000000000000e+00,-8.000000000000000000e+00,-3.000000000000000000e+00,-2.000000000000000000e+00,2.209472656250000000e-02,4.848632812500000000e-01,-2.232666015625000000e-01,8.452758789062500000e-01
-2.000000000000000000e+00,-9.000000000000000000e+00,8.000000000000000000e+00,3.000000000000000000e+00,1.000000000000000000e+00,-1.000000000000000000e+01,-1.100000000000000000e+01,-3.000000000000000000e+00,2.209472656250000000e-02,4.848632812500000000e-01,-2.232666015625000000e-01,8.452758789062500000e-01
3.000000000000000000e+00,-1.000000000000000000e+00,-3.000000000000000000e+00,-1.000000000000000000e+00,-1.000000000000000000e+00,1.000000000000000000e+01,7.000000000000000000e+00,-1.000000000000000000e+00,2.221679687500000000e-02,4.849853515625000000e-01,-2.229614257812500000e-01,8.452758789062500000e-01
-2.000000000000000000e+00,-1.600000000000000000e+01,-4.000000000000000000e+00,9.000000000000000000e+00,3.000000000000000000e+00,1.000000000000000000e+00,-5.000000000000000000e+00,2.000000000000000000e+00,2.221679687500000000e-02,4.849853515625000000e-01,-2.229614257812500000e-01,8.452758789062500000e-01
-1.100000000000000000e+01,-6.000000000000000000e+00,-2.000000000000000000e+01,-1.300000000000000000e+01,2.000000000000000000e+00,0.000000000000000000e+00,5.000000000000000000e+00,2.000000000000000000e+00,2.221679687500000000e-02,4.849853515625000000e-01,-2.229614257812500000e-01,8.452758789062500000e-01
2.500000000000000000e+01,6.000000000000000000e+00,1.900000000000000000e+01,2.000000000000000000e+01,-1.000000000000000000e+00,-2.100000000000000000e+01,-1.600000000000000000e+01,-2.000000000000000000e+00,2.221679687500000000e-02,4.849853515625000000e-01,-2.229614257812500000e-01,8.452758789062500000e-01
-8.000000000000000000e+00,8.000000000000000000e+00,-1.200000000000000000e+01,-4.000000000000000000e+01,-1.200000000000000000e+01,5.000000000000000000e+00,2.000000000000000000e+00,-2.000000000000000000e+00,2.233886718750000000e-02,4.855346679687500000e-01,-2.223510742187500000e-01,8.451538085937500000e-01
8.000000000000000000e+00,-2.000000000000000000e+01,1.900000000000000000e+01,4.400000000000000000e+01,1.000000000000000000e+01,4.000000000000000000e+00,-2.000000000000000000e+00,-1.000000000000000000e+00,2.233886718750000000e-02,4.855346679687500000e-01,-2.223510742187500000e-01,8.451538085937500000e-01
-1.600000000000000000e+01,3.000000000000000000e+00,-3.000000000000000000e+00,-4.500000000000000000e+01,-1.000000000000000000e+01,2.000000000000000000e+00,1.000000000000000000e+01,-1.000000000000000000e+00,2.233886718750000000e-02,4.855346679687500000e-01,-2.223510742187500000e-01,8.451538085937500000e-01
1.000000000000000000e+00,1.000000000000000000e+01,2.000000000000000000e+00,8.000000000000000000e+00,0.000000000000000000e+00,1.000000000000000000e+00,-1.000000000000000000e+00,0.000000000000000000e+00,2.233886718750000000e-02,4.855346679687500000e-01,-2.223510742187500000e-01,8.451538085937500000e-01
1.000000000000000000e+00,-8.000000000000000000e+00,4.000000000000000000e+00,1.400000000000000000e+01,3.000000000000000000e+00,-7.000000000000000000e+00,-5.000000000000000000e+00,-2.000000000000000000e+00,2.209472656250000000e-02,4.863891601562500000e-01,-2.214965820312500000e-01,8.448486328125000000e-01
-3.000000000000000000e+00,0.000000000000000000e+00,-2.200000000000000000e+01,-1.900000000000000000e+01,-1.000000000000000000e+01,-1.000000000000000000e+01,-9.000000000000000000e+00,-3.000000000000000000e+00,2.209472656250000000e-02,4.863891601562500000e-01,-2.214965820312500000e-01,8.448486328125000000e-01
4.000000000000000000e+00,-4.000000000000000000e+00,2.500000000000000000e+01,3.100000000000000000e+01,6.000000000000000000e+00,7.000000000000000000e+00,4.000000000000000000e+00,-2.000000000000000000e+00,2.209472656250000000e-02,4.863891601562500000e-01,-2.214965820312500000e-01,8.448486328125000000e-01
-2.000000000000000000e+00,-1.000000000000000000e+01,-2.000000000000000000e+00,1.400000000000000000e+01,2.000000000000000000e+00,-2.000000000000000000e+00,-3.000000000000000000e+00,0.000000000000000000e+00,2.209472656250000000e-02,4.863891601562500000e-01,-2.214965820312500000e-01,8.448486328125000000e-01
-1.100000000000000000e+01,2.600000000000000000e+01,-1.200000000000000000e+01,-4.500000000000000000e+01,-1.400000000000000000e+01,-6.000000000000000000e+00,4.000000000000000000e+00,-2.000000000000000000e+00,2.178955078125000000e-02,4.870605468750000000e-01,-2.211303710937500000e-01,8.446044921875000000e-01
4.000000000000000000e+00,-1.300000000000000000e+01,1.000000000000000000e+00,-1.100000000000000000e+01,-4.000000000000000000e+00,-7.000000000000000000e+00,-6.000000000000000000e+00,-2.000000000000000000e+00,2.178955078125000000e-02,4.870605468750000000e-01,-2.211303710937500000e-01,8.446044921875000000e-01
-2.000000000000000000e+00,-2.000000000000000000e+01,-1.000000000000000000e+00,3.000000000000000000e+00,-3.000000000000000000e+00,1.000000000000000000e+00,2.000000000000000000e+00,-1.000000000000000000e+00,2.178955078125000000e-02,4.870605468750000000e-01,-2.211303710937500000e-01,8.446044921875000000e-01
-2.000000000000000000e+00,2.100000000000000000e+01,-1.200000000000000000e+01,-4.000000000000000000e+00,0.000000000000000000e+00,0.000000000000000000e+00,-1.300000000000000000e+01,-4.000000000000000000e+00,2.178955078125000000e-02,4.870605468750000000e-01,-2.211303710937500000e-01,8.446044921875000000e-01
1.300000000000000000e+01,7.000000000000000000e+00,6.000000000000000000e+00,1.500000000000000000e+01,4.000000000000000000e+00,0.000000000000000000e+00,8.000000000000000000e+00,4.000000000000000000e+00,2.172851562500000000e-02,4.873657226562500000e-01,-2.213134765625000000e-01,8.443603515625000000e-01
-1.900000000000000000e+01,-1.500000000000000000e+01,-1.200000000000000000e+01,-8.000000000000000000e+00,-3.000000000000000000e+00,-1.500000000000000000e+01,-2.100000000000000000e+01,-6.000000000000000000e+00,2.172851562500000000e-02,4.873657226562500000e-01,-2.213134765625000000e-01,8.443603515625000000e-01
-1.100000000000000000e+01,-4.000000000000000000e+00,-1.600000000000000000e+01,-6.000000000000000000e+00,-2.000000000000000000e+00,-4.000000000000000000e+00,1.300000000000000000e+01,-2.000000000000000000e+00,2.172851562500000000e-02,4.873657226562500000e-01,-2.213134765625000000e-01,8.443603515625000000e-01
2.400000000000000000e+01,-2.000000000000000000e+00,7.000000000000000000e+00,-3.000000000000000000e+00,1.000000000000000000e+00,1.600000000000000000e+01,1.500000000000000000e+01,6.000000000000000000e+00,2.172851562500000000e-02,4.873657226562500000e-01,-2.213134765625000000e-01,8.443603515625000000e-01
2.000000000000000000e+00,-4.000000000000000000e+00,8.000000000000000000e+00,7.000000000000000000e+00,3.000000000000000000e+00,7.000000000000000000e+00,1.500000000000000000e+01,3.000000000000000000e+00,2.172851562500000000e-02,4.873657226562500000e-01,-2.212524414062500000e-01,8.443603515625000000e-01
1.100000000000000000e+01,2.400000000000000000e+01,1.500000000000000000e+01,-5.000000000000000000e+00,-2.000000000000000000e+00,-8.000000000000000000e+00,-2.300000000000000000e+01,1.000000000000000000e+00,2.172851562500000000e-02,4.873657226562500000e-01,-2.212524414062500000e-01,8.443603515625000000e-01
-1.200000000000000000e+01,-1.100000000000000000e+01,-1.300000000000000000e+01,3.700000000000000000e+01,0.000000000000000000e+00,-1.300000000000000000e+01,-1.500000000000000000e+01,-9.000000000000000000e+00,2.172851562500000000e-02,4.873657226562500000e-01,-2.212524414062500000e-01,8.443603515625000000e-01
-1.100000000000000000e+01,-2.600000000000000000e+01,-1.600000000000000000e+01,-5.200000000000000000e+01,-7.000000000000000000e+00,-4.000000000000000000e+00,-4.000000000000000000e+00,-3.000000000000000000e+00,2.172851562500000000e-02,4.873657226562500000e-01,-2.212524414062500000e-01,8.443603515625000000e-01
-6.000000000000000000e+00,-1.000000000000000000e+01,6.000000000000000000e+00,2.000000000000000000e+01,3.000000000000000000e+00,0.000000000000000000e+00,-4.000000000000000000e+00,-2.000000000000000000e+00,2.124023437500000000e-02,4.875488281250000000e-01,-2.208251953125000000e-01,8.444213867187500000e-01
-1.000000000000000000e+00,-5.000000000000000000e+00,3.000000000000000000e+00,-9.000000000000000000e+00,-4.000000000000000000e+00,3.000000000000000000e+00,1.000000000000000000e+01,0.000000000000000000e+00,2.124023437500000000e-02,4.875488281250000000e-01,-2.208251953125000000e-01,8.444213867187500000e-01
4.000000000000000000e+00,1.900000000000000000e+01,-5.000000000000000000e+00,4.000000000000000000e+00,-2.000000000000000000e+00,3.000000000000000000e+00,-2.000000000000000000e+00,2.000000000000000000e+00,2.124023437500000000e-02,4.875488281250000000e-01,-2.208251953125000000e-01,8.444213867187500000e-01
5.000000000000000000e+00,9.000000000000000000e+00,3.500000000000000000e+01,1.300000000000000000e+01,5.000000000000000000e+00,2.000000000000000000e+00,4.000000000000000000e+00,3.000000000000000000e+00,2.124023437500000000e-02,4.875488281250000000e-01,-2.208251953125000000e-01,8.444213867187500000e-01
-2.400000000000000000e+01,-2.800000000000000000e+01,-4.100000000000000000e+01,6.000000000000000000e+00,5.000000000000000000e+00,0.000000000000000000e+00,-4.000000000000000000e+00,-3.000000000000000000e+00,2.075195312500000000e-02,4.875488281250000000e-01,-2.200317382812500000e-01,8.446044921875000000e-01
-4.000000000000000000e+00,-3.200000000000000000e+01,9.000000000000000000e+00,-6.000000000000000000e+00,-5.000000000000000000e+00,-7.000000000000000000e+00,1.000000000000000000e+00,-3.000000000000000000e+00,2.075195312500000000e-02,4.875488281250000000e-01,-2.200317382812500000e-01,8.446044921875000000e-01
1.300000000000000000e+01,3.300000000000000000e+01,4.000000000000000000e+00,-5.000000000000000000e+00,0.000000000000000000e+00,3.000000000000000000e+00,-1.000000000000000000e+00,1.000000000000000000e+00,2.075195312500000000e-02,4.875488281250000000e-01,-2.200317382812500000e-01,8.446044921875000000e-01
-4.000000000000000000e+00,4.000000000000000000e+00,5.000000000000000000e+00,2.000000000000000000e+00,-4.000000000000000000e+00,-1.400000000000000000e+01,-4.000000000000000000e+00,0.000000000000000000e+00,2.075195312500000000e-02,4.875488281250000000e-01,-2.200317382812500000e-01,8.446044921875000000e-01
7.000000000000000000e+00,1.100000000000000000e+01,1.500000000000000000e+01,9.000000000000000000e+00,3.000000000000000000e+00,2.000000000000000000e+00,-2.000000000000000000e+00,2.000000000000000000e+00,2.050781250000000000e-02,4.870605468750000000e-01,-2.194213867187500000e-01,8.450317382812500000e-01
0.000000000000000000e+00,-1.300000000000000000e+01,-9.000000000000000000e+00,1.000000000000000000e+01,4.000000000000000000e+00,6.000000000000000000e+00,8.000000000000000000e+00,-2.000000000000000000e+00,2.050781250000000000e-02,4.870605468750000000e-01,-2.194213867187500000e-01,8.450317382812500000e-01
1.000000000000000000e+00,-1.400000000000000000e+01,-1.800000000000000000e+01,-3.900000000000000000e+01,-8.000000000000000000e+00,-2.000000000000000000e+00,-5.000000000000000000e+00,1.000000000000000000e+00,2.050781250000000000e-02,4.870605468750000000e-01,-2.194213867187500000e-01,8.450317382812500000e-01
3.000000000000000000e+00,1.000000000000000000e+00,-2.000000000000000000e+00,1.200000000000000000e+01,1.000000000000000000e+00,-5.000000000000000000e+00,-7.000000000000000000e+00,0.000000000000000000e+00,2.050781250000000000e-02,4.870605468750000000e-01,-2.194213867187500000e-01,8.450317382812500000e-01
4.000000000000000000e+00,4.000000000000000000e+00,1.500000000000000000e+01,-7.000000000000000000e+00,1.000000000000000000e+00,8.000000000000000000e+00,2.200000000000000000e+01,1.000000000000000000e+00,2.062988281250000000e-02,4.861450195312500000e-01,-2.193603515625000000e-01,8.456420898437500000e-01
-3.000000000000000000e+01,1.900000000000000000e+01,-1.000000000000000000e+00,1.100000000000000000e+01,0.000000000000000000e+00,-3.000000000000000000e+00,1.000000000000000000e+00,-3.000000000000000000e+00,2.062988281250000000e-02,4.861450195312500000e-01,-2.193603515625000000e-01,8.456420898437500000e-01
1.100000000000000000e+01,-4.000000000000000000e+00,5.000000000000000000e+00,5.000000000000000000e+00,2.000000000000000000e+00,1.000000000000000000e+00,-4.000000000000000000e+00,0.000000000000000000e+00,2.062988281250000000e-02,4.861450195312500000e-01,-2.193603515625000000e-01,8.456420898437500000e-01
1.000000000000000000e+00,-1.900000000000000000e+01,-3.300000000000000000e+01,-1.700000000000000000e+01,-7.000000000000000000e+00,-7.000000000000000000e+00,-7.000000000000000000e+00,-3.000000000000000000e+00,2.062988281250000000e-02,4.861450195312500000e-01,-2.193603515625000000e-01,8.456420898437500000e-01
-5.000000000000000000e+00,-3.400000000000000000e+01,-1.000000000000000000e+00,1.400000000000000000e+01,-3.000000000000000000e+00,-7.000000000000000000e+00,-1.300000000000000000e+01,-2.000000000000000000e+00,2.148437500000000000e-02,4.850463867187500000e-01,-2.192993164062500000e-01,8.461914062500000000e-01
1.500000000000000000e+01,3.100000000000000000e+01,2.700000000000000000e+01,6.000000000000000000e+00,4.000000000000000000e+00,0.000000000000000000e+00,0.000000000000000000e+00,2.000000000000000000e+00,2.148437500000000000e-02,4.850463867187500000e-01,-2.192993164062500000e-01,8.461914062500000000e-01
6.000000000000000000e+00,1.600000000000000000e+01,-6.000000000000000000e+00,-8.000000000000000000e+00,1.000000000000000000e+00,1.000000000000000000e+00,2.000000000000000000e+00,2.000000000000000000e+00,2.148437500000000000e-02,4.850463867187500000e-01,-2.192993164062500000e-01,8.461914062500000000e-01
-1.600000000000000000e+01,-2.300000000000000000e+01,-9.000000000000000000e+00,-4.000000000000000000e+00,-2.000000000000000000e+00,2.000000000000000000e+00,0.000000000000000000e+00,-4.000000000000000000e+00,2.148437500000000000e-02,4.850463867187500000e-01,-2.192993164062500000e-01,8.461914062500000000e-01
1.000000000000000000e+00,1.500000000000000000e+01,-1.200000000000000000e+01,-1.800000000000000000e+01,-4.000000000000000000e+00,2.000000000000000000e+00,-4.000000000000000000e+00,-2.000000000000000000e+00,2.178955078125000000e-02,4.842529296875000000e-01,-2.189331054687500000e-01,8.467407226562500000e-01
2.000000000000000000e+00,-9.000000000000000000e+00,-5.000000000000000000e+00,-1.500000000000000000e+01,-6.000000000000000000e+00,-1.100000000000000000e+01,-5.000000000000000000e+00,0.000000000000000000e+00,2.178955078125000000e-02,4.842529296875000000e-01,-2.189331054687500000e-01,8.467407226562500000e-01
-2.000000000000000000e+00,-3.500000000000000000e+01,-7.000000000000000000e+00,1.000000000000000000e+01,2.000000000000000000e+00,5.000000000000000000e+00,0.000000000000000000e+00,0.000000000000000000e+00,2.178955078125000000e-02,4.842529296875000000e-01,-2.189331054687500000e-01,8.467407226562500000e-01
8.000000000000000000e+00,3.600000000000000000e+01,2.100000000000000000e+01,2.300000000000000000e+01,-1.000000000000000000e+00,2.000000000000000000e+00,6.000000000000000000e+00,-2.000000000000000000e+00,2.178955078125000000e-02,4.842529296875000000e-01,-2.189331054687500000e-01,8.467407226562500000e-01
-2.200000000000000000e+01,1.000000000000000000e+00,8.000000000000000000e+00,-4.000000000000000000e+00,-3.000000000000000000e+00,-8.000000000000000000e+00,-1.300000000000000000e+01,-4.000000000000000000e+00,2.191162109375000000e-02,4.835815429687500000e-01,-2.182617187500000000e-01,8.473510742187500000e-01
-3.000000000000000000e+00,-1.800000000000000000e+01,-1.900000000000000000e+01,-1.300000000000000000e+01,-4.000000000000000000e+00,-2.000000000000000000e+00,-4.000000000000000000e+00,-5.000000000000000000e+00,2.191162109375000000e-02,4.835815429687500000e-01,-2.182617187500000000e-01,8.473510742187500000e-01
1.000000000000000000e+00,0.000000000000000000e+00,4.000000000000000000e+00,1.900000000000000000e+01,1.000000000000000000e+00,2.000000000000000000e+00,2.200000000000000000e+01,4.000000000000000000e+00,2.191162109375000000e-02,4.835815429687500000e-01,-2.182617187500000000e-01,8.473510742187500000e-01
5.000000000000000000e+00,-5.000000000000000000e+00,-4.000000000000000000e+00,1.700000000000000000e+01,1.000000000000000000e+00,1.100000000000000000e+01,8.000000000000000000e+00,4.000000000000000000e+00,2.191162109375000000e-02,4.835815429687500000e-01,-2.182617187500000000e-01,8.473510742187500000e-01
0.000000000000000000e+00,5.000000000000000000e+00,-1.300000000000000000e+01,-2.400000000000000000e+01,-4.000000000000000000e+00,-8.000000000000000000e+00,-3.000000000000000000e+00,-2.000000000000000000e+00,2.197265625000000000e-02,4.829711914062500000e-01,-2.179565429687500000e-01,8.477172851562500000e-01
0.000000000000000000e+00,-2.000000000000000000e+00,-3.000000000000000000e+00,-1.200000000000000000e+01,-7.000000000000000000e+00,-4.000000000000000000e+00,-5.000000000000000000e+00,2.000000000000000000e+00,2.197265625000000000e-02,4.829711914062500000e-01,-2.179565429687500000e-01,8.477172851562500000e-01
-3.000000000000000000e+00,-2.200000000000000000e+01,-1.000000000000000000e+00,1.000000000000000000e+00,-2.000000000000000000e+00,-4.000000000000000000e+00,-9.000000000000000000e+00,-2.000000000000000000e+00,2.197265625000000000e-02,4.829711914062500000e-01,-2.179565429687500000e-01,8.477172851562500000e-01
-1.100000000000000000e+01,2.800000000000000000e+01,2.000000000000000000e+00,-2.400000000000000000e+01,-1.000000000000000000e+00,6.000000000000000000e+00,3.000000000000000000e+00,-1.000000000000000000e+00,2.197265625000000000e-02,4.829711914062500000e-01,-2.179565429687500000e-01,8.477172851562500000e-01
1.300000000000000000e+01,2.000000000000000000e+00,8.000000000000000000e+00,1.800000000000000000e+01,4.000000000000000000e+00,6.000000000000000000e+00,1.400000000000000000e+01,2.000000000000000000e+00,2.215576171875000000e-02,4.828491210937500000e-01,-2.178955078125000000e-01,8.478393554687500000e-01
-2.200000000000000000e+01,-2.100000000000000000e+01,-3.000000000000000000e+00,-2.000000000000000000e+00,-1.000000000000000000e+00,-5.000000000000000000e+00,-1.100000000000000000e+01,-7.000000000000000000e+00,2.215576171875000000e-02,4.828491210937500000e-01,-2.178955078125000000e-01,8.478393554687500000e-01
1.100000000000000000e+01,3.000000000000000000e+00,-1.500000000000000000e+01,4.000000000000000000e+00,1.000000000000000000e+00,1.000000000000000000e+00,3.000000000000000000e+00,3.000000000000000000e+00,2.215576171875000000e-02,4.828491210937500000e-01,-2.178955078125000000e-01,8.478393554687500000e-01
-1.000000000000000000e+01,-1.500000000000000000e+01,1.300000000000000000e+01,2.000000000000000000e+00,1.000000000000000000e+00,-6.000000000000000000e+00,1.000000000000000000e+00,1.000000000000000000e+00,2.215576171875000000e-02,4.828491210937500000e-01,-2.178955078125000000e-01,8.478393554687500000e-01
1.300000000000000000e+01,-1.000000000000000000e+00,-2.700000000000000000e+01,1.800000000000000000e+01,3.000000000000000000e+00,-4.000000000000000000e+00,-1.000000000000000000e+01,0.000000000000000000e+00,2.258300781250000000e-02,4.830932617187500000e-01,-2.178344726562500000e-01,8.477172851562500000e-01
4.000000000000000000e+00,1.700000000000000000e+01,0.000000000000000000e+00,2.000000000000000000e+00,-7.000000000000000000e+00,2.000000000000000000e+00,9.000000000000000000e+00,-2.000000000000000000e+00,2.258300781250000000e-02,4.830932617187500000e-01,-2.178344726562500000e-01,8.477172851562500000e-01
-2.200000000000000000e+01,-1.300000000000000000e+01,3.000000000000000000e+00,-3.100000000000000000e+01,-6.000000000000000000e+00,-8.000000000000000000e+00,-1.900000000000000000e+01,-5.000000000000000000e+00,2.258300781250000000e-02,4.830932617187500000e-01,-2.178344726562500000e-01,8.477172851562500000e-01
6.000000000000000000e+00,-1.000000000000000000e+01,-1.700000000000000000e+01,7.000000000000000000e+00,4.000000000000000000e+00,0.000000000000000000e+00,0.000000000000000000e+00,-1.000000000000000000e+00,2.258300781250000000e-02,4.830932617187500000e-01,-2.178344726562500000e-01,8.477172851562500000e-01
-2.000000000000000000e+00,-5.000000000000000000e+00,0.000000000000000000e+00,7.000000000000000000e+00,-4.000000000000000000e+00,6.000000000000000000e+00,1.200000000000000000e+01,-1.000000000000000000e+00,2.221679687500000000e-02,4.837036132812500000e-01,-2.175292968750000000e-01,8.474121093750000000e-01
1.300000000000000000e+01,1.700000000000000000e+01,9.000000000000000000e+00,-1.900000000000000000e+01,-3.000000000000000000e+00,3.000000000000000000e+00,9.000000000000000000e+00,5.000000000000000000e+00,2.221679687500000000e-02,4.837036132812500000e-01,-2.175292968750000000e-01,8.474121093750000000e-01
-5.000000000000000000e+00,1.400000000000000000e+01,-6.000000000000000000e+00,1.300000000000000000e+01,4.000000000000000000e+00,-1.300000000000000000e+01,-3.000000000000000000e+00,-1.000000000000000000e+00,2.221679687500000000e-02,4.837036132812500000e-01,-2.175292968750000000e-01,8.474121093750000000e-01
-1.500000000000000000e+01,-1.500000000000000000e+01,-1.100000000000000000e+01,-6.000000000000000000e+00,-5.000000000000000000e+00,-2.000000000000000000e+00,-1.800000000000000000e+01,-6.000000000000000000e+00,2.221679687500000000e-02,4.837036132812500000e-01,-2.175292968750000000e-01,8.474121093750000000e-01
5.000000000000000000e+00,1.500000000000000000e+01,2.500000000000000000e+01,1.400000000000000000e+01,1.000000000000000000e+01,2.000000000000000000e+01,7.000000000000000000e+00,0.000000000000000000e+00,2.203369140625000000e-02,4.841308593750000000e-01,-2.173461914062500000e-01,8.472290039062500000e-01
-1.400000000000000000e+01,-7.000000000000000000e+00,-2.200000000000000000e+01,2.400000000000000000e+01,4.000000000000000000e+00,-6.000000000000000000e+00,-1.100000000000000000e+01,-2.000000000000000000e+00,2.203369140625000000e-02,4.841308593750000000e-01,-2.173461914062500000e-01,8.472290039062500000e-01
4.000000000000000000e+00,-3.000000000000000000e+00,0.000000000000000000e+00,-4.000000000000000000e+01,-9.000000000000000000e+00,-4.000000000000000000e+00,-1.000000000000000000e+00,-5.000000000000000000e+00,2.203369140625000000e-02,4.841308593750000000e-01,-2.173461914062500000e-01,8.472290039062500000e-01
1.000000000000000000e+00,2.000000000000000000e+00,1.000000000000000000e+01,-8.000000000000000000e+00,-1.000000000000000000e+00,2.000000000000000000e+00,1.100000000000000000e+01,5.000000000000000000e+00,2.203369140625000000e-02,4.841308593750000000e-01,-2.173461914062500000e-01,8.472290039062500000e-01
3.000000000000000000e+00,9.000000000000000000e+00,-4.000000000000000000e+00,7.000000000000000000e+00,0.000000000000000000e+00,-8.000000000000000000e+00,-9.000000000000000000e+00,0.000000000000000000e+00,2.215576171875000000e-02,4.843139648437500000e-01,-2.175903320312500000e-01,8.471069335937500000e-01
7.000000000000000000e+00,-8.000000000000000000e+00,-8.000000000000000000e+00,-5.000000000000000000e+00,-3.000000000000000000e+00,-1.000000000000000000e+00,7.000000000000000000e+00,-4.000000000000000000e+00,2.215576171875000000e-02,4.843139648437500000e-01,-2.175903320312500000e-01,8.471069335937500000e-01
5.000000000000000000e+00,1.200000000000000000e+01,1.700000000000000000e+01,2.500000000000000000e+01,1.000000000000000000e+00,-3.000000000000000000e+00,-1.700000000000000000e+01,1.000000000000000000e+00,2.215576171875000000e-02,4.843139648437500000e-01,-2.175903320312500000e-01,8.471069335937500000e-01
-6.000000000000000000e+00,1.500000000000000000e+01,1.100000000000000000e+01,-9.000000000000000000e+00,1.000000000000000000e+00,1.300000000000000000e+01,2.000000000000000000e+01,1.000000000000000000e+00,2.215576171875000000e-02,4.843139648437500000e-01,-2.175903320312500000e-01,8.471069335937500000e-01
1.200000000000000000e+01,-1.000000000000000000e+01,0.000000000000000000e+00,-1.100000000000000000e+01,-5.000000000000000000e+00,-7.000000000000000000e+00,-5.000000000000000000e+00,-4.000000000000000000e+00,2.233886718750000000e-02,4.845581054687500000e-01,-2.178344726562500000e-01,8.468627929687500000e-01
-2.900000000000000000e+01,-1.100000000000000000e+01,-5.000000000000000000e+00,1.100000000000000000e+01,1.000000000000000000e+01,7.000000000000000000e+00,2.000000000000000000e+00,-1.000000000000000000e+00,2.233886718750000000e-02,4.845581054687500000e-01,-2.178344726562500000e-01,8.468627929687500000e-01
5.000000000000000000e+00,3.400000000000000000e+01,1.700000000000000000e+01,9.000000000000000000e+00,-3.000000000000000000e+00,-9.000000000000000000e+00,-7.000000000000000000e+00,-2.000000000000000000e+00,2.233886718750000000e-02,4.845581054687500000e-01,-2.178344726562500000e-01,8.468627929687500000e-01
-2.000000000000000000e+00,-1.600000000000000000e+01,-1.500000000000000000e+01,-1.600000000000000000e+01,-3.000000000000000000e+00,-4.000000000000000000e+00,-4.000000000000000000e+00,1.000000000000000000e+00,2.233886718750000000e-02,4.845581054687500000e-01,-2.178344726562500000e-01,8.468627929687500000e-01
-4.000000000000000000e+00,-8.000000000000000000e+00,-6.000000000000000000e+00,2.300000000000000000e+01,2.000000000000000000e+00,-3.000000000000000000e+00,-1.000000000000000000e+00,2.000000000000000000e+00,2.282714843750000000e-02,4.848022460937500000e-01,-2.180786132812500000e-01,8.466186523437500000e-01
6.000000000000000000e+00,1.900000000000000000e+01,5.000000000000000000e+00,-1.300000000000000000e+01,-6.000000000000000000e+00,-6.000000000000000000e+00,-8.000000000000000000e+00,-2.000000000000000000e+00,2.282714843750000000e-02,4.848022460937500000e-01,-2.180786132812500000e-01,8.466186523437500000e-01
-5.000000000000000000e+00,-3.700000000000000000e+01,1.000000000000000000e+01,-9.000000000000000000e+00,5.000000000000000000e+00,1.200000000000000000e+01,9.000000000000000000e+00,2.000000000000000000e+00,2.282714843750000000e-02,4.848022460937500000e-01,-2.180786132812500000e-01,8.466186523437500000e-01
1.000000000000000000e+00,3.500000000000000000e+01,3.000000000000000000e+00,3.000000000000000000e+00,0.000000000000000000e+00,-9.000000000000000000e+00,1.000000000000000000e+00,-1.000000000000000000e+00,2.282714843750000000e-02,4.848022460937500000e-01,-2.180786132812500000e-01,8.466186523437500000e-01
-1.700000000000000000e+01,-2.200000000000000000e+01,-1.800000000000000000e+01,-1.300000000000000000e+01,-8.000000000000000000e+00,-3.000000000000000000e+00,-1.200000000000000000e+01,-6.000000000000000000e+00,2.288818359375000000e-02,4.849243164062500000e-01,-2.180786132812500000e-01,8.466186523437500000e-01
1.200000000000000000e+01,-1.100000000000000000e+01,-6.000000000000000000e+00,1.300000000000000000e+01,3.000000000000000000e+00,1.000000000000000000e+00,3.000000000000000000e+00,2.000000000000000000e+00,2.288818359375000000e-02,4.849243164062500000e-01,-2.180786132812500000e-01,8.466186523437500000e-01
0.000000000000000000e+00,-4.000000000000000000e+00,-1.800000000000000000e+01,-2.000000000000000000e+00,1.000000000000000000e+00,-1.000000000000000000e+00,-1.000000000000000000e+00,-3.000000000000000000e+00,2.288818359375000000e-02,4.849243164062500000e-01,-2.180786132812500000e-01,8.466186523437500000e-01
-3.000000000000000000e+00,5.000000000000000000e+00,7.000000000000000000e+00,0.000000000000000000e+00,-4.000000000000000000e+00,-4.000000000000000000e+00,-1.300000000000000000e+01,-2.000000000000000000e+00,2.288818359375000000e-02,4.849243164062500000e-01,-2.180786132812500000e-01,8.466186523437500000e-01
-3.000000000000000000e+00,1.600000000000000000e+01,2.700000000000000000e+01,2.500000000000000000e+01,2.000000000000000000e+00,-9.000000000000000000e+00,-3.000000000000000000e+00,-3.000000000000000000e+00,2.282714843750000000e-02,4.849243164062500000e-01,-2.181396484375000000e-01,8.465576171875000000e-01
-7.000000000000000000e+00,-1.100000000000000000e+01,-3.000000000000000000e+00,-5.000000000000000000e+00,1.000000000000000000e+00,1.800000000000000000e+01,1.900000000000000000e+01,1.000000000000000000e+00,2.282714843750000000e-02,4.849243164062500000e-01,-2.181396484375000000e-01,8.465576171875000000e-01
1.900000000000000000e+01,4.000000000000000000e+00,-1.500000000000000000e+01,-2.900000000000000000e+01,-2.000000000000000000e+00,9.000000000000000000e+00,3.000000000000000000e+01,4.000000000000000000e+00,2.282714843750000000e-02,4.849243164062500000e-01,-2.181396484375000000e-01,8.465576171875000000e-01
3.000000000000000000e+00,-1.300000000000000000e+01,9.000000000000000000e+00,3.900000000000000000e+01,2.000000000000000000e+00,-2.000000000000000000e+01,-3.400000000000000000e+01,0.000000000000000000e+00,2.282714843750000000e-02,4.849243164062500000e-01,-2.181396484375000000e-01,8.465576171875000000e-01
8.000000000000000000e+00,1.100000000000000000e+01,1.000000000000000000e+00,-3.800000000000000000e+01,-6.000000000000000000e+00,1.000000000000000000e+01,1.500000000000000000e+01,2.000000000000000000e+00,2.276611328125000000e-02,4.849243164062500000e-01,-2.181396484375000000e-01,8.465576171875000000e-01
-8.000000000000000000e+00,2.000000000000000000e+00,3.500000000000000000e+01,-3.000000000000000000e+00,-1.000000000000000000e+00,-3.000000000000000000e+00,-1.300000000000000000e+01,-3.000000000000000000e+00,2.276611328125000000e-02,4.849243164062500000e-01,-2.181396484375000000e-01,8.465576171875000000e-01
6.000000000000000000e+00,-1.100000000000000000e+01,-3.300000000000000000e+01,9.000000000000000000e+00,-1.000000000000000000e+00,5.000000000000000000e+00,2.000000000000000000e+00,-2.000000000000000000e+00,2.276611328125000000e-02,4.849243164062500000e-01,-2.181396484375000000e-01,8.465576171875000000e-01
4.000000000000000000e+00,-1.600000000000000000e+01,-1.400000000000000000e+01,0.000000000000000000e+00,2.000000000000000000e+00,-5.000000000000000000e+00,2.000000000000000000e+00,-2.000000000000000000e+00,2.276611328125000000e-02,4.849243164062500000e-01,-2.181396484375000000e-01,8.465576171875000000e-01
-7.000000000000000000e+00,1.100000000000000000e+01,-4.000000000000000000e+00,7.000000000000000000e+00,-1.000000000000000000e+00,-3.000000000000000000e+00,-7.000000000000000000e+00,-2.000000000000000000e+00,2.282714843750000000e-02,4.851074218750000000e-01,-2.182617187500000000e-01,8.464355468750000000e-01
8.000000000000000000e+00,-3.100000000000000000e+01,-1.200000000000000000e+01,-3.000000000000000000e+00,-2.000000000000000000e+00,-3.000000000000000000e+00,2.000000000000000000e+00,-2.000000000000000000e+00,2.282714843750000000e-02,4.851074218750000000e-01,-2.182617187500000000e-01,8.464355468750000000e-01
-9.000000000000000000e+00,4.400000000000000000e+01,3.200000000000000000e+01,3.000000000000000000e+00,-3.000000000000000000e+00,-4.000000000000000000e+00,-9.000000000000000000e+00,-1.000000000000000000e+00,2.282714843750000000e-02,4.851074218750000000e-01,-2.182617187500000000e-01,8.464355468750000000e-01
3.000000000000000000e+00,1.000000000000000000e+00,9.000000000000000000e+00,1.700000000000000000e+01,2.000000000000000000e+00,4.000000000000000000e+00,4.000000000000000000e+00,-1.000000000000000000e+00,2.282714843750000000e-02,4.851074218750000000e-01,-2.182617187500000000e-01,8.464355468750000000e-01
-7.000000000000000000e+00,-1.300000000000000000e+01,-5.000000000000000000e+00,-3.100000000000000000e+01,-7.000000000000000000e+00,-4.000000000000000000e+00,-8.000000000000000000e+00,-2.000000000000000000e+00,2.282714843750000000e-02,4.851684570312500000e-01,-2.182617187500000000e-01,8.464355468750000000e-01
9.000000000000000000e+00,6.000000000000000000e+00,9.000000000000000000e+00,1.700000000000000000e+01,1.000000000000000000e+01,2.000000000000000000e+00,3.000000000000000000e+00,-1.000000000000000000e+00,2.282714843750000000e-02,4.851684570312500000e-01,-2.182617187500000000e-01,8.464355468750000000e-01
-2.000000000000000000e+00,-1.200000000000000000e+01,-2.000000000000000000e+01,1.000000000000000000e+00,-3.000000000000000000e+00,-4.000000000000000000e+00,-7.000000000000000000e+00,-1.000000000000000000e+00,2.282714843750000000e-02,4.851684570312500000e-01,-2.182617187500000000e-01,8.464355468750000000e-01
-1.000000000000000000e+00,1.200000000000000000e+01,9.000000000000000000e+00,2.000000000000000000e+00,-3.000000000000000000e+00,4.000000000000000000e+00,8.000000000000000000e+00,3.000000000000000000e+00,2.282714843750000000e-02,4.851684570312500000e-01,-2.182617187500000000e-01,8.464355468750000000e-01
-1.000000000000000000e+00,-2.600000000000000000e+01,-1.900000000000000000e+01,-3.300000000000000000e+01,-6.000000000000000000e+00,-1.100000000000000000e+01,-7.000000000000000000e+00,-3.000000000000000000e+00,2.282714843750000000e-02,4.851684570312500000e-01,-2.182617187500000000e-01,8.463745117187500000e-01
1.000000000000000000e+00,1.000000000000000000e+00,-2.700000000000000000e+01,-2.000000000000000000e+00,-3.000000000000000000e+00,-1.400000000000000000e+01,-1.500000000000000000e+01,1.000000000000000000e+00,2.282714843750000000e-02,4.851684570312500000e-01,-2.182617187500000000e-01,8.463745117187500000e-01
-7.000000000000000000e+00,-5.000000000000000000e+00,1.800000000000000000e+01,3.000000000000000000e+00,0.000000000000000000e+00,2.100000000000000000e+01,1.900000000000000000e+01,-1.000000000000000000e+00,2.282714843750000000e-02,4.851684570312500000e-01,-2.182617187500000000e-01,8.463745117187500000e-01
1.200000000000000000e+01,1.100000000000000000e+01,-2.400000000000000000e+01,3.100000000000000000e+01,4.000000000000000000e+00,4.000000000000000000e+00,1.600000000000000000e+01,4.000000000000000000e+00,2.282714843750000000e-02,4.851684570312500000e-01,-2.182617187500000000e-01,8.463745117187500000e-01
-2.300000000000000000e+01,-2.400000000000000000e+01,-4.000000000000000000e+00,-3.400000000000000000e+01,-8.000000000000000000e+00,-6.000000000000000000e+00,-4.000000000000000000e+00,-5.000000000000000000e+00,2.276611328125000000e-02,4.851684570312500000e-01,-2.179565429687500000e-01,8.464355468750000000e-01
1.500000000000000000e+01,2.000000000000000000e+01,6.000000000000000000e+00,-1.200000000000000000e+01,-6.000000000000000000e+00,0.000000000000000000e+00,-3.000000000000000000e+00,-3.000000000000000000e+00,2.276611328125000000e-02,4.851684570312500000e-01,-2.179565429687500000e-01,8.464355468750000000e-01
-2.200000000000000000e+01,-1.000000000000000000e+00,8.000000000000000000e+00,-3.000000000000000000e+00,1.000000000000000000e+00,-7.000000000000000000e+00,-1.600000000000000000e+01,-6.000000000000000000e+00,2.276611328125000000e-02,4.851684570312500000e-01,-2.179565429687500000e-01,8.464355468750000000e-01
3.000000000000000000e+00,-1.800000000000000000e+01,-2.000000000000000000e+00,-4.000000000000000000e+00,-3.000000000000000000e+00,0.000000000000000000e+00,-1.000000000000000000e+00,0.000000000000000000e+00,2.276611328125000000e-02,4.851684570312500000e-01,-2.179565429687500000e-01,8.464355468750000000e-01
2.000000000000000000e+00,1.200000000000000000e+01,6.000000000000000000e+00,3.000000000000000000e+01,4.000000000000000000e+00,-2.000000000000000000e+00,-1.000000000000000000e+00,2.000000000000000000e+00,2.239990234375000000e-02,4.849853515625000000e-01,-2.177734375000000000e-01,8.466186523437500000e-01
-7.000000000000000000e+00,-1.900000000000000000e+01,-1.200000000000000000e+01,-1.000000000000000000e+00,-1.000000000000000000e+00,-3.000000000000000000e+00,-3.000000000000000000e+00,0.000000000000000000e+00,2.239990234375000000e-02,4.849853515625000000e-01,-2.177734375000000000e-01,8.466186523437500000e-01
8.000000000000000000e+00,2.100000000000000000e+01,1.300000000000000000e+01,-3.000000000000000000e+00,1.000000000000000000e+00,-1.000000000000000000e+00,-1.000000000000000000e+00,0.000000000000000000e+00,2.239990234375000000e-02,4.849853515625000000e-01,-2.177734375000000000e-01,8.466186523437500000e-01
-1.200000000000000000e+01,-2.300000000000000000e+01,-1.500000000000000000e+01,-1.800000000000000000e+01,-5.000000000000000000e+00,1.000000000000000000e+00,2.000000000000000000e+00,-5.000000000000000000e+00,2.239990234375000000e-02,4.849853515625000000e-01,-2.177734375000000000e-01,8.466186523437500000e-01
0.000000000000000000e+00,2.900000000000000000e+01,2.800000000000000000e+01,3.600000000000000000e+01,7.000000000000000000e+00,-3.000000000000000000e+00,-2.000000000000000000e+00,1.000000000000000000e+00,2.215576171875000000e-02,4.846191406250000000e-01,-2.177124023437500000e-01,8.468627929687500000e-01
1.000000000000000000e+00,-2.000000000000000000e+00,4.000000000000000000e+00,-1.200000000000000000e+01,-6.000000000000000000e+00,-1.000000000000000000e+00,0.000000000000000000e+00,-2.000000000000000000e+00,2.215576171875000000e-02,4.846191406250000000e-01,-2.177124023437500000e-01,8.468627929687500000e-01
-2.000000000000000000e+00,-1.800000000000000000e+01,-8.000000000000000000e+00,9.000000000000000000e+00,4.000000000000000000e+00,1.000000000000000000e+00,0.000000000000000000e+00,1.000000000000000000e+00,2.215576171875000000e-02,4.846191406250000000e-01,-2.177124023437500000e-01,8.468627929687500000e-01
-2.000000000000000000e+00,-6.000000000000000000e+00,-3.000000000000000000e+00,-2.000000000000000000e+00,-1.000000000000000000e+00,-3.000000000000000000e+00,-2.000000000000000000e+00,-2.000000000000000000e+00,2.215576171875000000e-02,4.846191406250000000e-01,-2.177124023437500000e-01,8.468627929687500000e-01
1.100000000000000000e+01,0.000000000000000000e+00,2.000000000000000000e+00,-1.400000000000000000e+01,1.000000000000000000e+00,4.000000000000000000e+00,-1.000000000000000000e+00,1.000000000000000000e+00,2.203369140625000000e-02,4.842529296875000000e-01,-2.176513671875000000e-01,8.471069335937500000e-01
-3.000000000000000000e+01,-3.000000000000000000e+00,-6.000000000000000000e+00,1.000000000000000000e+01,-2.000000000000000000e+00,-1.500000000000000000e+01,-1.300000000000000000e+01,-6.000000000000000000e+00,2.203369140625000000e-02,4.842529296875000000e-01,-2.176513671875000000e-01,8.471069335937500000e-01
6.000000000000000000e+00,5.000000000000000000e+00,-1.000000000000000000e+00,1.300000000000000000e+01,0.000000000000000000e+00,-9.000000000000000000e+00,-1.100000000000000000e+01,-2.000000000000000000e+00,2.203369140625000000e-02,4.842529296875000000e-01,-2.176513671875000000e-01,8.471069335937500000e-01
-1.100000000000000000e+01,-1.200000000000000000e+01,-1.100000000000000000e+01,-2.100000000000000000e+01,1.000000000000000000e+00,2.800000000000000000e+01,3.600000000000000000e+01,-2.000000000000000000e+00,2.203369140625000000e-02,4.842529296875000000e-01,-2.176513671875000000e-01,8.471069335937500000e-01
1.200000000000000000e+01,1.300000000000000000e+01,4.000000000000000000e+00,-2.000000000000000000e+00,-3.000000000000000000e+00,0.000000000000000000e+00,1.000000000000000000e+01,3.000000000000000000e+00,2.191162109375000000e-02,4.835815429687500000e-01,-2.177124023437500000e-01,8.474731445312500000e-01
1.000000000000000000e+01,6.000000000000000000e+00,9.000000000000000000e+00,6.000000000000000000e+00,2.000000000000000000e+00,-1.000000000000000000e+00,-3.000000000000000000e+00,4.000000000000000000e+00,2.191162109375000000e-02,4.835815429687500000e-01,-2.177124023437500000e-01,8.474731445312500000e-01
-1.100000000000000000e+01,-1.000000000000000000e+01,-1.500000000000000000e+01,0.000000000000000000e+00,-3.000000000000000000e+00,-6.000000000000000000e+00,-2.000000000000000000e+00,-2.000000000000000000e+00,2.191162109375000000e-02,4.835815429687500000e-01,-2.177124023437500000e-01,8.474731445312500000e-01
1.300000000000000000e+01,1.800000000000000000e+01,5.000000000000000000e+00,-2.900000000000000000e+01,-1.000000000000000000e+01,-1.000000000000000000e+01,-1.400000000000000000e+01,-2.000000000000000000e+00,2.191162109375000000e-02,4.835815429687500000e-01,-2.177124023437500000e-01,8.474731445312500000e-01
-7.000000000000000000e+00,-1.000000000000000000e+01,-8.000000000000000000e+00,-2.000000000000000000e+00,-1.000000000000000000e+00,4.000000000000000000e+00,-2.000000000000000000e+00,-1.000000000000000000e+00,2.154541015625000000e-02,4.828491210937500000e-01,-2.177734375000000000e-01,8.479003906250000000e-01
1.000000000000000000e+00,-4.000000000000000000e+00,-2.000000000000000000e+00,4.000000000000000000e+00,0.000000000000000000e+00,1.000000000000000000e+00,3.000000000000000000e+00,-1.000000000000000000e+00,2.154541015625000000e-02,4.828491210937500000e-01,-2.177734375000000000e-01,8.479003906250000000e-01
-2.000000000000000000e+00,1.000000000000000000e+00,-1.600000000000000000e+01,-4.000000000000000000e+00,-5.000000000000000000e+00,-7.000000000000000000e+00,-5.000000000000000000e+00,-2.000000000000000000e+00,2.154541015625000000e-02,4.828491210937500000e-01,-2.177734375000000000e-01,8.479003906250000000e-01
2.000000000000000000e+00,2.000000000000000000e+00,2.000000000000000000e+00,6.000000000000000000e+00,4.000000000000000000e+00,1.000000000000000000e+00,-3.000000000000000000e+00,0.000000000000000000e+00,2.154541015625000000e-02,4.828491210937500000e-01,-2.177734375000000000e-01,8.479003906250000000e-01
-6.000000000000000000e+00,-1.400000000000000000e+01,1.400000000000000000e+01,1.000000000000000000e+00,1.000000000000000000e+00,-2.000000000000000000e+00,0.000000000000000000e+00,1.000000000000000000e+00,2.124023437500000000e-02,4.822998046875000000e-01,-2.178955078125000000e-01,8.482055664062500000e-01
6.000000000000000000e+00,2.800000000000000000e+01,-1.800000000000000000e+01,-6.000000000000000000e+00,-2.000000000000000000e+00,0.000000000000000000e+00,-2.000000000000000000e+00,1.000000000000000000e+00,2.124023437500000000e-02,4.822998046875000000e-01,-2.178955078125000000e-01,8.482055664062500000e-01
4.000000000000000000e+00,-3.000000000000000000e+01,-7.000000000000000000e+00,-1.200000000000000000e+01,-7.000000000000000000e+00,2.000000000000000000e+00,2.000000000000000000e+00,-4.000000000000000000e+00,2.124023437500000000e-02,4.822998046875000000e-01,-2.178955078125000000e-01,8.482055664062500000e-01
-1.200000000000000000e+01,-5.000000000000000000e+00,-4.000000000000000000e+00,-5.000000000000000000e+00,-1.000000000000000000e+00,-6.000000000000000000e+00,-9.000000000000000000e+00,-5.000000000000000000e+00,2.124023437500000000e-02,4.822998046875000000e-01,-2.178955078125000000e-01,8.482055664062500000e-01
-1.100000000000000000e+01,-5.000000000000000000e+00,-2.000000000000000000e+00,1.400000000000000000e+01,-2.000000000000000000e+00,-9.000000000000000000e+00,-1.800000000000000000e+01,-5.000000000000000000e+00,2.081298828125000000e-02,4.819335937500000000e-01,-2.178344726562500000e-01,8.483886718750000000e-01
4.000000000000000000e+00,-3.000000000000000000e+00,7.000000000000000000e+00,1.000000000000000000e+00,5.000000000000000000e+00,1.000000000000000000e+01,3.000000000000000000e+01,5.000000000000000000e+00,2.081298828125000000e-02,4.819335937500000000e-01,-2.178344726562500000e-01,8.483886718750000000e-01
1.000000000000000000e+00,-7.000000000000000000e+00,-6.000000000000000000e+00,-1.100000000000000000e+01,6.000000000000000000e+00,3.100000000000000000e+01,1.600000000000000000e+01,5.000000000000000000e+00,2.081298828125000000e-02,4.819335937500000000e-01,-2.178344726562500000e-01,8.483886718750000000e-01
4.000000000000000000e+00,1.000000000000000000e+01,2.000000000000000000e+00,-6.000000000000000000e+00,3.000000000000000000e+00,-2.000000000000000000e+00,-7.000000000000000000e+00,0.000000000000000000e+00,2.081298828125000000e-02,4.819335937500000000e-01,-2.178344726562500000e-01,8.483886718750000000e-01
4.000000000000000000e+00,7.000000000000000000e+00,-1.000000000000000000e+00,8.000000000000000000e+00,-3.000000000000000000e+00,1.000000000000000000e+00,1.300000000000000000e+01,3.000000000000000000e+00,2.032470703125000000e-02,4.815673828125000000e-01,-2.178344726562500000e-01,8.486328125000000000e-01
2.000000000000000000e+00,0.000000000000000000e+00,-8.000000000000000000e+00,-2.400000000000000000e+01,-1.500000000000000000e+01,-1.300000000000000000e+01,-2.300000000000000000e+01,-4.000000000000000000e+00,2.032470703125000000e-02,4.815673828125000000e-01,-2.178344726562500000e-01,8.486328125000000000e-01
-3.000000000000000000e+00,9.000000000000000000e+00,1.000000000000000000e+01,1.400000000000000000e+01,6.000000000000000000e+00,1.000000000000000000e+00,2.000000000000000000e+00,1.000000000000000000e+00,2.032470703125000000e-02,4.815673828125000000e-01,-2.178344726562500000e-01,8.486328125000000000e-01
-1.900000000000000000e+01,-2.000000000000000000e+01,-1.700000000000000000e+01,-9.000000000000000000e+00,-1.000000000000000000e+00,-1.200000000000000000e+01,-1.100000000000000000e+01,-5.000000000000000000e+00,2.032470703125000000e-02,4.815673828125000000e-01,-2.178344726562500000e-01,8.486328125000000000e-01
5.000000000000000000e+00,-1.000000000000000000e+00,-7.000000000000000000e+00,5.000000000000000000e+00,3.000000000000000000e+00,9.000000000000000000e+00,1.100000000000000000e+01,1.000000000000000000e+00,1.983642578125000000e-02,4.812622070312500000e-01,-2.180175781250000000e-01,8.487548828125000000e-01
-1.100000000000000000e+01,-4.000000000000000000e+00,9.000000000000000000e+00,6.000000000000000000e+00,-3.000000000000000000e+00,-5.000000000000000000e+00,-9.000000000000000000e+00,-3.000000000000000000e+00,1.983642578125000000e-02,4.812622070312500000e-01,-2.180175781250000000e-01,8.487548828125000000e-01
8.000000000000000000e+00,-1.700000000000000000e+01,3.000000000000000000e+00,-1.300000000000000000e+01,-5.000000000000000000e+00,-9.000000000000000000e+00,-1.000000000000000000e+00,2.000000000000000000e+00,1.983642578125000000e-02,4.812622070312500000e-01,-2.180175781250000000e-01,8.487548828125000000e-01
-6.000000000000000000e+00,2.300000000000000000e+01,-1.000000000000000000e+00,-5.000000000000000000e+00,-5.000000000000000000e+00,-3.000000000000000000e+00,-7.000000000000000000e+00,-1.000000000000000000e+00,1.983642578125000000e-02,4.812622070312500000e-01,-2.180175781250000000e-01,8.487548828125000000e-01
1.000000000000000000e+01,-2.000000000000000000e+00,7.000000000000000000e+00,2.500000000000000000e+01,3.000000000000000000e+00,-2.000000000000000000e+00,-5.000000000000000000e+00,-3.000000000000000000e+00,1.959228515625000000e-02,4.810180664062500000e-01,-2.181396484375000000e-01,8.488769531250000000e-01
-9.000000000000000000e+00,5.000000000000000000e+00,-1.300000000000000000e+01,-3.400000000000000000e+01,-5.000000000000000000e+00,0.000000000000000000e+00,-3.000000000000000000e+00,-4.000000000000000000e+00,1.959228515625000000e-02,4.810180664062500000e-01,-2.181396484375000000e-01,8.488769531250000000e-01
5.000000000000000000e+00,8.000000000000000000e+00,1.700000000000000000e+01,1.200000000000000000e+01,5.000000000000000000e+00,-5.000000000000000000e+00,-6.000000000000000000e+00,-1.000000000000000000e+00,1.959228515625000000e-02,4.810180664062500000e-01,-2.181396484375000000e-01,8.488769531250000000e-01
2.000000000000000000e+00,-3.000000000000000000e+01,-1.000000000000000000e+00,-8.000000000000000000e+00,0.000000000000000000e+00,8.000000000000000000e+00,9.000000000000000000e+00,1.000000000000000000e+00,1.959228515625000000e-02,4.810180664062500000e-01,-2.181396484375000000e-01,8.488769531250000000e-01
-2.000000000000000000e+00,2.500000000000000000e+01,-1.100000000000000000e+01,-1.400000000000000000e+01,-3.000000000000000000e+00,-1.000000000000000000e+00,0.000000000000000000e+00,-2.000000000000000000e+00,1.928710937500000000e-02,4.810791015625000000e-01,-2.179565429687500000e-01,8.488769531250000000e-01
5.000000000000000000e+00,-1.500000000000000000e+01,3.000000000000000000e+00,2.600000000000000000e+01,7.000000000000000000e+00,-1.100000000000000000e+01,3.000000000000000000e+00,0.000000000000000000e+00,1.928710937500000000e-02,4.810791015625000000e-01,-2.179565429687500000e-01,8.488769531250000000e-01
-1.300000000000000000e+01,-3.000000000000000000e+00,-1.100000000000000000e+01,-1.200000000000000000e+01,-5.000000000000000000e+00,4.000000000000000000e+00,-1.900000000000000000e+01,-5.000000000000000000e+00,1.928710937500000000e-02,4.810791015625000000e-01,-2.179565429687500000e-01,8.488769531250000000e-01
1.000000000000000000e+01,6.000000000000000000e+00,-1.000000000000000000e+00,0.000000000000000000e+00,-4.000000000000000000e+00,-9.000000000000000000e+00,-9.000000000000000000e+00,-4.000000000000000000e+00,1.928710937500000000e-02,4.810791015625000000e-01,-2.179565429687500000e-01,8.488769531250000000e-01
-1.500000000000000000e+01,-3.000000000000000000e+00,3.000000000000000000e+00,4.000000000000000000e+00,2.000000000000000000e+00,3.000000000000000000e+00,1.800000000000000000e+01,1.000000000000000000e+00,1.861572265625000000e-02,4.812011718750000000e-01,-2.177734375000000000e-01,8.488769531250000000e-01
2.000000000000000000e+00,-1.100000000000000000e+01,-9.000000000000000000e+00,4.000000000000000000e+00,4.000000000000000000e+00,-1.000000000000000000e+00,-1.400000000000000000e+01,2.000000000000000000e+00,1.861572265625000000e-02,4.812011718750000000e-01,-2.177734375000000000e-01,8.488769531250000000e-01
0.000000000000000000e+00,-1.000000000000000000e+01,1.200000000000000000e+01,-1.100000000000000000e+01,-5.000000000000000000e+00,-5.000000000000000000e+00,8.000000000000000000e+00,2.000000000000000000e+00,1.861572265625000000e-02,4.812011718750000000e-01,-2.177734375000000000e-01,8.488769531250000000e-01
9.000000000000000000e+00,1.800000000000000000e+01,4.000000000000000000e+00,-8.000000000000000000e+00,-3.000000000000000000e+00,-2.000000000000000000e+00,1.000000000000000000e+00,-1.000000000000000000e+00,1.861572265625000000e-02,4.812011718750000000e-01,-2.177734375000000000e-01,8.488769531250000000e-01
-2.000000000000000000e+00,1.600000000000000000e+01,1.000000000000000000e+00,-9.000000000000000000e+00,-5.000000000000000000e+00,-5.000000000000000000e+00,-1.500000000000000000e+01,-3.000000000000000000e+00,1.806640625000000000e-02,4.813842773437500000e-01,-2.178344726562500000e-01,8.488159179687500000e-01
6.000000000000000000e+00,9.000000000000000000e+00,1.700000000000000000e+01,2.100000000000000000e+01,2.000000000000000000e+00,3.000000000000000000e+00,6.000000000000000000e+00,-1.000000000000000000e+00,1.806640625000000000e-02,4.813842773437500000e-01,-2.178344726562500000e-01,8.488159179687500000e-01
-6.000000000000000000e+00,-1.300000000000000000e+01,-1.100000000000000000e+01,-1.300000000000000000e+01,-5.000000000000000000e+00,-7.000000000000000000e+00,-5.000000000000000000e+00,-2.000000000000000000e+00,1.806640625000000000e-02,4.813842773437500000e-01,-2.178344726562500000e-01,8.488159179687500000e-01
-1.000000000000000000e+01,-1.200000000000000000e+01,5.000000000000000000e+00,-2.000000000000000000e+00,-6.000000000000000000e+00,-1.000000000000000000e+00,-6.000000000000000000e+00,-4.000000000000000000e+00,1.806640625000000000e-02,4.813842773437500000e-01,-2.178344726562500000e-01,8.488159179687500000e-01
1.400000000000000000e+01,1.000000000000000000e+00,-6.000000000000000000e+00,0.000000000000000000e+00,4.000000000000000000e+00,0.000000000000000000e+00,-5.000000000000000000e+00,-1.000000000000000000e+00,1.824951171875000000e-02,4.813842773437500000e-01,-2.179565429687500000e-01,8.486938476562500000e-01
-2.300000000000000000e+01,-2.800000000000000000e+01,-8.000000000000000000e+00,-1.000000000000000000e+00,-2.000000000000000000e+00,4.000000000000000000e+00,5.000000000000000000e+00,0.000000000000000000e+00,1.824951171875000000e-02,4.813842773437500000e-01,-2.179565429687500000e-01,8.486938476562500000e-01
9.000000000000000000e+00,4.800000000000000000e+01,2.700000000000000000e+01,5.000000000000000000e+00,-4.000000000000000000e+00,-2.000000000000000000e+00,-2.000000000000000000e+00,0.000000000000000000e+00,1.824951171875000000e-02,4.813842773437500000e-01,-2.179565429687500000e-01,8.486938476562500000e-01
3.000000000000000000e+00,-5.000000000000000000e+00,1.000000000000000000e+00,0.000000000000000000e+00,2.000000000000000000e+00,0.000000000000000000e+00,3.000000000000000000e+00,1.000000000000000000e+00,1.824951171875000000e-02,4.813842773437500000e-01,-2.179565429687500000e-01,8.486938476562500000e-01
-1.400000000000000000e+01,-5.000000000000000000e+00,-9.000000000000000000e+00,-1.100000000000000000e+01,-6.000000000000000000e+00,-7.000000000000000000e+00,-1.500000000000000000e+01,-3.000000000000000000e+00,1.831054687500000000e-02,4.813232421875000000e-01,-2.177124023437500000e-01,8.488769531250000000e-01
8.000000000000000000e+00,-3.400000000000000000e+01,-1.800000000000000000e+01,-1.000000000000000000e+00,-8.000000000000000000e+00,3.000000000000000000e+00,7.000000000000000000e+00,-6.000000000000000000e+00,1.831054687500000000e-02,4.813232421875000000e-01,-2.177124023437500000e-01,8.488769531250000000e-01
3.000000000000000000e+00,1.800000000000000000e+01,1.800000000000000000e+01,4.000000000000000000e+00,5.000000000000000000e+00,-7.000000000000000000e+00,-4.000000000000000000e+00,3.000000000000000000e+00,1.831054687500000000e-02,4.813232421875000000e-01,-2.177124023437500000e-01,8.488769531250000000e-01
-8.000000000000000000e+00,1.600000000000000000e+01,7.000000000000000000e+00,1.700000000000000000e+01,-2.000000000000000000e+00,-2.000000000000000000e+00,-1.700000000000000000e+01,-6.000000000000000000e+00,1.831054687500000000e-02,4.813232421875000000e-01,-2.177124023437500000e-01,8.488769531250000000e-01
0.000000000000000000e+00,-4.300000000000000000e+01,-2.000000000000000000e+01,-1.200000000000000000e+01,4.000000000000000000e+00,9.000000000000000000e+00,2.200000000000000000e+01,0.000000000000000000e+00,1.800537109375000000e-02,4.812622070312500000e-01,-2.171630859375000000e-01,8.489990234375000000e-01
1.000000000000000000e+01,3.900000000000000000e+01,3.600000000000000000e+01,2.000000000000000000e+00,2.000000000000000000e+00,5.000000000000000000e+00,1.300000000000000000e+01,4.000000000000000000e+00,1.800537109375000000e-02,4.812622070312500000e-01,-2.171630859375000000e-01,8.489990234375000000e-01
-1.400000000000000000e+01,-2.000000000000000000e+01,-2.500000000000000000e+01,7.000000000000000000e+00,0.000000000000000000e+00,-8.000000000000000000e+00,-1.400000000000000000e+01,-5.000000000000000000e+00,1.800537109375000000e-02,4.812622070312500000e-01,-2.171630859375000000e-01,8.489990234375000000e-01
9.000000000000000000e+00,9.000000000000000000e+00,2.000000000000000000e+00,-1.700000000000000000e+01,-3.000000000000000000e+00,-2.000000000000000000e+00,1.000000000000000000e+01,1.000000000000000000e+00,1.800537109375000000e-02,4.812622070312500000e-01,-2.171630859375000000e-01,8.489990234375000000e-01
-2.000000000000000000e+00,1.000000000000000000e+00,-1.100000000000000000e+01,8.000000000000000000e+00,-1.000000000000000000e+00,-5.000000000000000000e+00,-1.600000000000000000e+01,0.000000000000000000e+00,1.733398437500000000e-02,4.812622070312500000e-01,-2.167358398437500000e-01,8.491210937500000000e-01
3.000000000000000000e+00,2.000000000000000000e+00,5.000000000000000000e+00,-1.000000000000000000e+01,-3.000000000000000000e+00,4.000000000000000000e+00,-5.000000000000000000e+00,-3.000000000000000000e+00,1.733398437500000000e-02,4.812622070312500000e-01,-2.167358398437500000e-01,8.491210937500000000e-01
-4.000000000000000000e+00,8.000000000000000000e+00,-7.000000000000000000e+00,9.000000000000000000e+00,2.000000000000000000e+00,-2.000000000000000000e+00,9.000000000000000000e+00,-3.000000000000000000e+00,1.733398437500000000e-02,4.812622070312500000e-01,-2.167358398437500000e-01,8.491210937500000000e-01
-4.000000000000000000e+00,-1.400000000000000000e+01,-5.000000000000000000e+00,2.000000000000000000e+01,5.000000000000000000e+00,2.000000000000000000e+00,-4.000000000000000000e+00,1.000000000000000000e+00,1.733398437500000000e-02,4.812622070312500000e-01,-2.167358398437500000e-01,8.491210937500000000e-01
8.000000000000000000e+00,1.300000000000000000e+01,1.800000000000000000e+01,-4.400000000000000000e+01,-7.000000000000000000e+00,0.000000000000000000e+00,2.000000000000000000e+00,2.000000000000000000e+00,1.739501953125000000e-02,4.813232421875000000e-01,-2.167358398437500000e-01,8.491210937500000000e-01
1.000000000000000000e+00,-1.200000000000000000e+01,-1.900000000000000000e+01,0.000000000000000000e+00,-4.000000000000000000e+00,-2.000000000000000000e+00,1.000000000000000000e+00,-3.000000000000000000e+00,1.739501953125000000e-02,4.813232421875000000e-01,-2.167358398437500000e-01,8.491210937500000000e-01
0.000000000000000000e+00,2.200000000000000000e+01,-7.000000000000000000e+00,0.000000000000000000e+00,-5.000000000000000000e+00,-7.000000000000000000e+00,-6.000000000000000000e+00,-3.000000000000000000e+00,1.739501953125000000e-02,4.813232421875000000e-01,-2.167358398437500000e-01,8.491210937500000000e-01
-1.200000000000000000e+01,-3.000000000000000000e+01,2.000000000000000000e+00,7.000000000000000000e+00,5.000000000000000000e+00,0.000000000000000000e+00,0.000000000000000000e+00,-2.000000000000000000e+00,1.739501953125000000e-02,4.813232421875000000e-01,-2.167358398437500000e-01,8.491210937500000000e-01
2.000000000000000000e+00,1.000000000000000000e+01,7.000000000000000000e+00,7.000000000000000000e+00,1.000000000000000000e+00,-1.400000000000000000e+01,-2.100000000000000000e+01,1.000000000000000000e+00,1.806640625000000000e-02,4.811401367187500000e-01,-2.170410156250000000e-01,8.491210937500000000e-01
-6.000000000000000000e+00,2.000000000000000000e+00,1.400000000000000000e+01,-1.700000000000000000e+01,-4.000000000000000000e+00,1.400000000000000000e+01,2.100000000000000000e+01,1.000000000000000000e+00,1.806640625000000000e-02,4.811401367187500000e-01,-2.170410156250000000e-01,8.491210937500000000e-01
1.900000000000000000e+01,-1.000000000000000000e+01,-1.000000000000000000e+01,7.000000000000000000e+00,3.000000000000000000e+00,9.000000000000000000e+00,8.000000000000000000e+00,0.000000000000000000e+00,1.806640625000000000e-02,4.811401367187500000e-01,-2.170410156250000000e-01,8.491210937500000000e-01
-5.000000000000000000e+00,3.000000000000000000e+00,-3.000000000000000000e+00,-7.000000000000000000e+00,-5.000000000000000000e+00,-7.000000000000000000e+00,-2.000000000000000000e+00,-2.000000000000000000e+00,1.806640625000000000e-02,4.811401367187500000e-01,-2.170410156250000000e-01,8.491210937500000000e-01
-1.000000000000000000e+00,6.000000000000000000e+00,-1.000000000000000000e+00,8.000000000000000000e+00,0.000000000000000000e+00,-2.000000000000000000e+00,-1.000000000000000000e+01,-3.000000000000000000e+00,1.855468750000000000e-02,4.807739257812500000e-01,-2.169189453125000000e-01,8.493652343750000000e-01
3.000000000000000000e+00,5.000000000000000000e+00,-7.000000000000000000e+00,3.000000000000000000e+00,4.000000000000000000e+00,-1.300000000000000000e+01,-2.500000000000000000e+01,1.000000000000000000e+00,1.855468750000000000e-02,4.807739257812500000e-01,-2.169189453125000000e-01,8.493652343750000000e-01
-1.000000000000000000e+01,-3.700000000000000000e+01,1.000000000000000000e+00,1.000000000000000000e+01,-2.000000000000000000e+00,3.000000000000000000e+00,1.700000000000000000e+01,-1.000000000000000000e+00,1.855468750000000000e-02,4.807739257812500000e-01,-2.169189453125000000e-01,8.493652343750000000e-01
4.000000000000000000e+00,5.300000000000000000e+01,3.000000000000000000e+00,-2.400000000000000000e+01,-1.000000000000000000e+00,1.000000000000000000e+00,2.000000000000000000e+00,3.000000000000000000e+00,1.855468750000000000e-02,4.807739257812500000e-01,-2.169189453125000000e-01,8.493652343750000000e-01
4.000000000000000000e+00,-3.600000000000000000e+01,1.300000000000000000e+01,-1.100000000000000000e+01,-7.000000000000000000e+00,-8.000000000000000000e+00,-6.000000000000000000e+00,-3.000000000000000000e+00,1.831054687500000000e-02,4.806518554687500000e-01,-2.163085937500000000e-01,8.495483398437500000e-01
-4.000000000000000000e+00,2.500000000000000000e+01,1.200000000000000000e+01,1.600000000000000000e+01,7.000000000000000000e+00,1.300000000000000000e+01,9.000000000000000000e+00,0.000000000000000000e+00,1.831054687500000000e-02,4.806518554687500000e-01,-2.163085937500000000e-01,8.495483398437500000e-01
