3.000000000000000000e+01,-1.800000000000000000e+01,-7.200000000000000000e+01,-2.700000000000000000e+01,-5.000000000000000000e+00,6.000000000000000000e+00,8.000000000000000000e+00,-9.000000000000000000e+00,-3.067626953125000000e-01,4.391479492187500000e-01,4.229125976562500000e-01,7.308349609375000000e-01
3.700000000000000000e+01,1.000000000000000000e+01,6.000000000000000000e+00,3.800000000000000000e+01,5.000000000000000000e+00,-4.000000000000000000e+00,-1.300000000000000000e+01,6.000000000000000000e+00,-3.067626953125000000e-01,4.391479492187500000e-01,4.229125976562500000e-01,7.308349609375000000e-01
-2.600000000000000000e+01,-6.000000000000000000e+00,-1.500000000000000000e+01,-4.300000000000000000e+01,-6.000000000000000000e+00,-5.000000000000000000e+00,-4.000000000000000000e+00,-2.000000000000000000e+00,-3.067626953125000000e-01,4.391479492187500000e-01,4.229125976562500000e-01,7.308349609375000000e-01
-7.000000000000000000e+00,3.000000000000000000e+00,4.300000000000000000e+01,1.800000000000000000e+01,5.000000000000000000e+00,3.000000000000000000e+00,4.000000000000000000e+00,0.000000000000000000e+00,-3.067626953125000000e-01,4.391479492187500000e-01,4.229125976562500000e-01,7.308349609375000000e-01
1.600000000000000000e+01,1.100000000000000000e+01,-1.200000000000000000e+01,-2.900000000000000000e+01,-2.000000000000000000e+00,-1.000000000000000000e+00,-5.000000000000000000e+00,2.000000000000000000e+00,-3.047485351562500000e-01,4.401245117187500000e-01,4.255371093750000000e-01,7.295532226562500000e-01
-8.000000000000000000e+00,-1.100000000000000000e+01,7.000000000000000000e+00,1.200000000000000000e+01,-6.000000000000000000e+00,-3.000000000000000000e+00,-2.000000000000000000e+00,-3.000000000000000000e+00,-3.047485351562500000e-01,4.401245117187500000e-01,4.255371093750000000e-01,7.295532226562500000e-01
1.900000000000000000e+01,-1.000000000000000000e+00,8.000000000000000000e+00,-1.000000000000000000e+00,-4.000000000000000000e+00,-4.000000000000000000e+00,-5.000000000000000000e+00,-7.000000000000000000e+00,-3.047485351562500000e-01,4.401245117187500000e-01,4.255371093750000000e-01,7.295532226562500000e-01
1.900000000000000000e+01,3.000000000000000000e+00,-1.000000000000000000e+00,1.800000000000000000e+01,0.000000000000000000e+00,1.000000000000000000e+00,2.000000000000000000e+00,1.000000000000000000e+00,-3.047485351562500000e-01,4.401245117187500000e-01,4.255371093750000000e-01,7.295532226562500000e-01
-9.000000000000000000e+00,-8.000000000000000000e+00,-2.000000000000000000e+00,6.000000000000000000e+00,5.000000000000000000e+00,-1.000000000000000000e+00,-3.000000000000000000e+00,-3.000000000000000000e+00,-3.027343750000000000e-01,4.420776367187500000e-01,4.277954101562500000e-01,7.279052734375000000e-01
7.000000000000000000e+00,0.000000000000000000e+00,-1.300000000000000000e+01,-2.300000000000000000e+01,-3.000000000000000000e+00,-1.000000000000000000e+00,2.000000000000000000e+00,-1.000000000000000000e+00,-3.027343750000000000e-01,4.420776367187500000e-01,4.277954101562500000e-01,7.279052734375000000e-01
-1.200000000000000000e+01,2.000000000000000000e+00,-1.000000000000000000e+01,-7.000000000000000000e+00,-5.000000000000000000e+00,-3.000000000000000000e+00,-6.000000000000000000e+00,-1.000000000000000000e+00,-3.027343750000000000e-01,4.420776367187500000e-01,4.277954101562500000e-01,7.279052734375000000e-01
-1.400000000000000000e+01,-7.000000000000000000e+00,1.000000000000000000e+00,-8.000000000000000000e+00,-3.000000000000000000e+00,-3.000000000000000000e+00,-1.000000000000000000e+00,-3.000000000000000000e+00,-3.027343750000000000e-01,4.420776367187500000e-01,4.277954101562500000e-01,7.279052734375000000e-01
1.300000000000000000e+01,-1.000000000000000000e+00,1.600000000000000000e+01,2.000000000000000000e+01,2.000000000000000000e+00,-3.000000000000000000e+00,-2.000000000000000000e+00,-1.000000000000000000e+00,-3.000488281250000000e-01,4.446411132812500000e-01,4.295043945312500000e-01,7.264404296875000000e-01
2.800000000000000000e+01,3.000000000000000000e+00,-8.000000000000000000e+00,-2.600000000000000000e+01,-3.000000000000000000e+00,-3.000000000000000000e+00,9.000000000000000000e+00,3.000000000000000000e+00,-3.000488281250000000e-01,4.446411132812500000e-01,4.295043945312500000e-01,7.264404296875000000e-01
-1.600000000000000000e+01,-1.000000000000000000e+00,-3.000000000000000000e+00,5.000000000000000000e+00,0.000000000000000000e+00,5.000000000000000000e+00,-1.100000000000000000e+01,3.000000000000000000e+00,-3.000488281250000000e-01,4.446411132812500000e-01,4.295043945312500000e-01,7.264404296875000000e-01
-4.300000000000000000e+01,-7.000000000000000000e+00,-1.900000000000000000e+01,-8.000000000000000000e+00,-4.000000000000000000e+00,-9.000000000000000000e+00,-6.000000000000000000e+00,-1.400000000000000000e+01,-3.000488281250000000e-01,4.446411132812500000e-01,4.295043945312500000e-01,7.264404296875000000e-01
7.000000000000000000e+00,-2.000000000000000000e+00,4.100000000000000000e+01,2.700000000000000000e+01,5.000000000000000000e+00,5.000000000000000000e+00,0.000000000000000000e+00,-3.000000000000000000e+00,-2.969970703125000000e-01,4.473266601562500000e-01,4.313964843750000000e-01,7.249145507812500000e-01
1.100000000000000000e+01,3.000000000000000000e+00,-8.000000000000000000e+00,-1.100000000000000000e+01,-2.000000000000000000e+00,4.000000000000000000e+00,5.000000000000000000e+00,7.000000000000000000e+00,-2.969970703125000000e-01,4.473266601562500000e-01,4.313964843750000000e-01,7.249145507812500000e-01
2.000000000000000000e+00,-3.000000000000000000e+00,-6.000000000000000000e+00,4.000000000000000000e+00,0.000000000000000000e+00,-1.000000000000000000e+00,-2.000000000000000000e+00,-5.000000000000000000e+00,-2.969970703125000000e-01,4.473266601562500000e-01,4.313964843750000000e-01,7.249145507812500000e-01
1.300000000000000000e+01,-1.000000000000000000e+00,2.300000000000000000e+01,3.900000000000000000e+01,3.000000000000000000e+00,2.000000000000000000e+00,3.000000000000000000e+00,0.000000000000000000e+00,-2.969970703125000000e-01,4.473266601562500000e-01,4.313964843750000000e-01,7.249145507812500000e-01
-5.000000000000000000e+00,-1.000000000000000000e+01,-4.600000000000000000e+01,-5.100000000000000000e+01,-9.000000000000000000e+00,-9.000000000000000000e+00,-6.000000000000000000e+00,-4.000000000000000000e+00,-2.938232421875000000e-01,4.502563476562500000e-01,4.331054687500000000e-01,7.233886718750000000e-01
-1.600000000000000000e+01,3.000000000000000000e+00,1.300000000000000000e+01,1.200000000000000000e+01,-1.000000000000000000e+00,0.000000000000000000e+00,-3.000000000000000000e+00,-2.000000000000000000e+00,-2.938232421875000000e-01,4.502563476562500000e-01,4.331054687500000000e-01,7.233886718750000000e-01
1.500000000000000000e+01,5.000000000000000000e+00,3.000000000000000000e+00,8.000000000000000000e+00,4.000000000000000000e+00,2.000000000000000000e+00,5.000000000000000000e+00,2.000000000000000000e+00,-2.938232421875000000e-01,4.502563476562500000e-01,4.331054687500000000e-01,7.233886718750000000e-01
3.000000000000000000e+00,-9.000000000000000000e+00,-3.500000000000000000e+01,-3.700000000000000000e+01,-3.000000000000000000e+00,0.000000000000000000e+00,-3.000000000000000000e+00,-1.000000000000000000e+00,-2.938232421875000000e-01,4.502563476562500000e-01,4.331054687500000000e-01,7.233886718750000000e-01
3.000000000000000000e+00,5.000000000000000000e+00,2.400000000000000000e+01,1.600000000000000000e+01,-2.000000000000000000e+00,-3.000000000000000000e+00,1.000000000000000000e+00,0.000000000000000000e+00,-2.904052734375000000e-01,4.534912109375000000e-01,4.346313476562500000e-01,7.218627929687500000e-01
-5.000000000000000000e+00,1.000000000000000000e+00,3.000000000000000000e+00,-7.000000000000000000e+00,-1.000000000000000000e+00,-1.000000000000000000e+00,-3.000000000000000000e+00,-4.000000000000000000e+00,-2.904052734375000000e-01,4.534912109375000000e-01,4.346313476562500000e-01,7.218627929687500000e-01
-9.000000000000000000e+00,-4.000000000000000000e+00,-2.700000000000000000e+01,0.000000000000000000e+00,0.000000000000000000e+00,0.000000000000000000e+00,-1.000000000000000000e+00,-2.000000000000000000e+00,-2.904052734375000000e-01,4.534912109375000000e-01,4.346313476562500000e-01,7.218627929687500000e-01
9.000000000000000000e+00,5.000000000000000000e+00,1.000000000000000000e+01,1.000000000000000000e+01,1.000000000000000000e+00,0.000000000000000000e+00,1.000000000000000000e+00,5.000000000000000000e+00,-2.904052734375000000e-01,4.534912109375000000e-01,4.346313476562500000e-01,7.218627929687500000e-01
3.000000000000000000e+00,1.000000000000000000e+00,-2.000000000000000000e+00,-4.000000000000000000e+00,-1.000000000000000000e+00,1.000000000000000000e+00,3.000000000000000000e+00,2.000000000000000000e+00,-2.876586914062500000e-01,4.558715820312500000e-01,4.358520507812500000e-01,7.207031250000000000e-01
2.300000000000000000e+01,-1.000000000000000000e+00,-2.000000000000000000e+00,0.000000000000000000e+00,-5.000000000000000000e+00,-6.000000000000000000e+00,-9.000000000000000000e+00,-3.000000000000000000e+00,-2.876586914062500000e-01,4.558715820312500000e-01,4.358520507812500000e-01,7.207031250000000000e-01
-2.000000000000000000e+01,1.000000000000000000e+00,2.300000000000000000e+01,2.000000000000000000e+01,7.000000000000000000e+00,0.000000000000000000e+00,5.000000000000000000e+00,4.000000000000000000e+00,-2.876586914062500000e-01,4.558715820312500000e-01,4.358520507812500000e-01,7.207031250000000000e-01
-4.400000000000000000e+01,-3.000000000000000000e+00,-9.000000000000000000e+00,-1.300000000000000000e+01,-5.000000000000000000e+00,-1.000000000000000000e+00,-1.000000000000000000e+01,-1.100000000000000000e+01,-2.876586914062500000e-01,4.558715820312500000e-01,4.358520507812500000e-01,7.207031250000000000e-01
-7.000000000000000000e+00,-1.900000000000000000e+01,-2.300000000000000000e+01,-1.300000000000000000e+01,-1.000000000000000000e+00,3.000000000000000000e+00,5.000000000000000000e+00,4.000000000000000000e+00,-2.858886718750000000e-01,4.568481445312500000e-01,4.368896484375000000e-01,7.201538085937500000e-01
-2.400000000000000000e+01,8.000000000000000000e+00,1.000000000000000000e+01,1.300000000000000000e+01,1.000000000000000000e+00,1.000000000000000000e+00,8.000000000000000000e+00,-3.000000000000000000e+00,-2.858886718750000000e-01,4.568481445312500000e-01,4.368896484375000000e-01,7.201538085937500000e-01
1.700000000000000000e+01,-2.000000000000000000e+00,9.000000000000000000e+00,0.000000000000000000e+00,0.000000000000000000e+00,0.000000000000000000e+00,-7.000000000000000000e+00,-2.000000000000000000e+00,-2.858886718750000000e-01,4.568481445312500000e-01,4.368896484375000000e-01,7.201538085937500000e-01
3.600000000000000000e+01,8.000000000000000000e+00,-1.800000000000000000e+01,-2.000000000000000000e+00,-1.000000000000000000e+00,-6.000000000000000000e+00,-3.000000000000000000e+00,7.000000000000000000e+00,-2.858886718750000000e-01,4.568481445312500000e-01,4.368896484375000000e-01,7.201538085937500000e-01
-3.800000000000000000e+01,-1.200000000000000000e+01,-1.000000000000000000e+01,-5.000000000000000000e+00,-2.000000000000000000e+00,-1.000000000000000000e+00,-6.000000000000000000e+00,-4.000000000000000000e+00,-2.845458984375000000e-01,4.572753906250000000e-01,4.380493164062500000e-01,7.196655273437500000e-01
-5.000000000000000000e+00,5.000000000000000000e+00,2.100000000000000000e+01,7.000000000000000000e+00,2.000000000000000000e+00,2.000000000000000000e+00,0.000000000000000000e+00,-1.000000000000000000e+00,-2.845458984375000000e-01,4.572753906250000000e-01,4.380493164062500000e-01,7.196655273437500000e-01
6.000000000000000000e+00,-1.000000000000000000e+00,-5.000000000000000000e+00,1.300000000000000000e+01,1.000000000000000000e+00,-3.000000000000000000e+00,-2.000000000000000000e+00,1.000000000000000000e+00,-2.845458984375000000e-01,4.572753906250000000e-01,4.380493164062500000e-01,7.196655273437500000e-01
-2.000000000000000000e+00,-2.000000000000000000e+00,-9.000000000000000000e+00,-3.300000000000000000e+01,-2.000000000000000000e+00,-1.000000000000000000e+00,3.000000000000000000e+00,-1.000000000000000000e+00,-2.845458984375000000e-01,4.572753906250000000e-01,4.380493164062500000e-01,7.196655273437500000e-01
1.000000000000000000e+01,2.000000000000000000e+00,2.200000000000000000e+01,2.700000000000000000e+01,-2.000000000000000000e+00,-3.000000000000000000e+00,-5.000000000000000000e+00,0.000000000000000000e+00,-2.843017578125000000e-01,4.564208984375000000e-01,4.394531250000000000e-01,7.194824218750000000e-01
-1.000000000000000000e+00,-1.200000000000000000e+01,-2.500000000000000000e+01,-1.300000000000000000e+01,-4.000000000000000000e+00,5.000000000000000000e+00,4.000000000000000000e+00,2.000000000000000000e+00,-2.843017578125000000e-01,4.564208984375000000e-01,4.394531250000000000e-01,7.194824218750000000e-01
-1.300000000000000000e+01,4.000000000000000000e+00,1.200000000000000000e+01,-1.000000000000000000e+01,-1.000000000000000000e+00,-4.000000000000000000e+00,-5.000000000000000000e+00,-6.000000000000000000e+00,-2.843017578125000000e-01,4.564208984375000000e-01,4.394531250000000000e-01,7.194824218750000000e-01
-1.100000000000000000e+01,-2.000000000000000000e+00,-5.000000000000000000e+00,-4.000000000000000000e+00,-1.000000000000000000e+01,-6.000000000000000000e+00,0.000000000000000000e+00,0.000000000000000000e+00,-2.843017578125000000e-01,4.564208984375000000e-01,4.394531250000000000e-01,7.194824218750000000e-01
2.500000000000000000e+01,1.000000000000000000e+01,2.000000000000000000e+00,9.000000000000000000e+00,4.000000000000000000e+00,1.000000000000000000e+00,-1.000000000000000000e+00,-2.000000000000000000e+00,-2.849121093750000000e-01,4.539794921875000000e-01,4.403686523437500000e-01,7.202148437500000000e-01
-7.000000000000000000e+00,-1.000000000000000000e+00,2.000000000000000000e+01,-1.100000000000000000e+01,-4.000000000000000000e+00,-5.000000000000000000e+00,-7.000000000000000000e+00,-3.000000000000000000e+00,-2.849121093750000000e-01,4.539794921875000000e-01,4.403686523437500000e-01,7.202148437500000000e-01
1.000000000000000000e+00,-8.000000000000000000e+00,-3.700000000000000000e+01,-1.000000000000000000e+01,-7.000000000000000000e+00,-1.000000000000000000e+00,-2.000000000000000000e+00,-2.000000000000000000e+00,-2.849121093750000000e-01,4.539794921875000000e-01,4.403686523437500000e-01,7.202148437500000000e-01
-3.000000000000000000e+00,3.000000000000000000e+00,-1.400000000000000000e+01,9.000000000000000000e+00,3.000000000000000000e+00,2.000000000000000000e+00,6.000000000000000000e+00,2.000000000000000000e+00,-2.849121093750000000e-01,4.539794921875000000e-01,4.403686523437500000e-01,7.202148437500000000e-01
2.900000000000000000e+01,2.000000000000000000e+00,1.500000000000000000e+01,-7.000000000000000000e+00,1.000000000000000000e+00,-2.000000000000000000e+00,-6.000000000000000000e+00,4.000000000000000000e+00,-2.854614257812500000e-01,4.502563476562500000e-01,4.404907226562500000e-01,7.222900390625000000e-01
-1.200000000000000000e+01,-5.000000000000000000e+00,-1.000000000000000000e+01,6.000000000000000000e+00,-5.000000000000000000e+00,-7.000000000000000000e+00,-8.000000000000000000e+00,-1.200000000000000000e+01,-2.854614257812500000e-01,4.502563476562500000e-01,4.404907226562500000e-01,7.222900390625000000e-01
-9.000000000000000000e+00,-3.000000000000000000e+00,-7.000000000000000000e+00,-2.000000000000000000e+01,4.000000000000000000e+00,1.400000000000000000e+01,1.500000000000000000e+01,2.000000000000000000e+00,-2.854614257812500000e-01,4.502563476562500000e-01,4.404907226562500000e-01,7.222900390625000000e-01
3.900000000000000000e+01,-9.000000000000000000e+00,0.000000000000000000e+00,6.000000000000000000e+00,3.000000000000000000e+00,0.000000000000000000e+00,1.000000000000000000e+00,7.000000000000000000e+00,-2.854614257812500000e-01,4.502563476562500000e-01,4.404907226562500000e-01,7.222900390625000000e-01
-3.200000000000000000e+01,1.300000000000000000e+01,-1.000000000000000000e+01,1.400000000000000000e+01,-1.000000000000000000e+00,-3.000000000000000000e+00,6.000000000000000000e+00,-1.000000000000000000e+00,-2.855224609375000000e-01,4.458007812500000000e-01,4.403076171875000000e-01,7.250976562500000000e-01
2.700000000000000000e+01,-6.000000000000000000e+00,-8.000000000000000000e+00,1.800000000000000000e+01,3.000000000000000000e+00,-3.000000000000000000e+00,-1.400000000000000000e+01,-5.000000000000000000e+00,-2.855224609375000000e-01,4.458007812500000000e-01,4.403076171875000000e-01,7.250976562500000000e-01
1.500000000000000000e+01,1.300000000000000000e+01,3.700000000000000000e+01,-2.200000000000000000e+01,2.000000000000000000e+00,-5.000000000000000000e+00,-3.000000000000000000e+00,-7.000000000000000000e+00,-2.855224609375000000e-01,4.458007812500000000e-01,4.403076171875000000e-01,7.250976562500000000e-01
2.000000000000000000e+00,-5.000000000000000000e+00,-5.500000000000000000e+01,-4.500000000000000000e+01,-1.400000000000000000e+01,-4.000000000000000000e+00,-2.000000000000000000e+00,-2.000000000000000000e+00,-2.855224609375000000e-01,4.458007812500000000e-01,4.403076171875000000e-01,7.250976562500000000e-01
2.000000000000000000e+00,-8.000000000000000000e+00,-1.000000000000000000e+00,-2.000000000000000000e+00,1.000000000000000000e+00,-1.000000000000000000e+00,0.000000000000000000e+00,4.000000000000000000e+00,-2.866210937500000000e-01,4.403076171875000000e-01,4.400634765625000000e-01,7.281494140625000000e-01
2.000000000000000000e+00,5.000000000000000000e+00,-6.000000000000000000e+00,-7.000000000000000000e+00,2.000000000000000000e+00,2.000000000000000000e+00,2.000000000000000000e+00,5.000000000000000000e+00,-2.866210937500000000e-01,4.403076171875000000e-01,4.400634765625000000e-01,7.281494140625000000e-01
-9.000000000000000000e+00,-6.000000000000000000e+00,5.000000000000000000e+00,1.500000000000000000e+01,-3.000000000000000000e+00,-3.000000000000000000e+00,-2.000000000000000000e+00,-2.000000000000000000e+00,-2.866210937500000000e-01,4.403076171875000000e-01,4.400634765625000000e-01,7.281494140625000000e-01
-4.000000000000000000e+00,4.000000000000000000e+00,1.200000000000000000e+01,9.000000000000000000e+00,1.000000000000000000e+01,6.000000000000000000e+00,2.000000000000000000e+00,3.000000000000000000e+00,-2.866210937500000000e-01,4.403076171875000000e-01,4.400634765625000000e-01,7.281494140625000000e-01
1.700000000000000000e+01,0.000000000000000000e+00,1.800000000000000000e+01,2.400000000000000000e+01,1.000000000000000000e+00,-6.000000000000000000e+00,-5.000000000000000000e+00,-4.000000000000000000e+00,-2.881469726562500000e-01,4.349975585937500000e-01,4.393310546875000000e-01,7.312011718750000000e-01
-2.800000000000000000e+01,-4.000000000000000000e+00,-3.500000000000000000e+01,-2.000000000000000000e+01,-6.000000000000000000e+00,-1.000000000000000000e+00,2.000000000000000000e+00,-1.000000000000000000e+00,-2.881469726562500000e-01,4.349975585937500000e-01,4.393310546875000000e-01,7.312011718750000000e-01
1.700000000000000000e+01,-2.000000000000000000e+00,-1.300000000000000000e+01,1.000000000000000000e+00,0.000000000000000000e+00,-1.000000000000000000e+00,-1.000000000000000000e+00,-1.000000000000000000e+00,-2.881469726562500000e-01,4.349975585937500000e-01,4.393310546875000000e-01,7.312011718750000000e-01
4.000000000000000000e+00,7.000000000000000000e+00,3.400000000000000000e+01,1.700000000000000000e+01,-3.000000000000000000e+00,-4.000000000000000000e+00,-3.000000000000000000e+00,-1.000000000000000000e+00,-2.881469726562500000e-01,4.349975585937500000e-01,4.393310546875000000e-01,7.312011718750000000e-01
2.000000000000000000e+00,-5.000000000000000000e+00,-2.500000000000000000e+01,-1.900000000000000000e+01,0.000000000000000000e+00,6.000000000000000000e+00,0.000000000000000000e+00,2.000000000000000000e+00,-2.896118164062500000e-01,4.300537109375000000e-01,4.386596679687500000e-01,7.339477539062500000e-01
-1.000000000000000000e+00,-7.000000000000000000e+00,2.000000000000000000e+00,2.200000000000000000e+01,8.000000000000000000e+00,4.000000000000000000e+00,2.000000000000000000e+00,-2.000000000000000000e+00,-2.896118164062500000e-01,4.300537109375000000e-01,4.386596679687500000e-01,7.339477539062500000e-01
-2.000000000000000000e+01,-1.000000000000000000e+00,8.000000000000000000e+00,-4.000000000000000000e+00,-1.000000000000000000e+00,-3.000000000000000000e+00,0.000000000000000000e+00,-3.000000000000000000e+00,-2.896118164062500000e-01,4.300537109375000000e-01,4.386596679687500000e-01,7.339477539062500000e-01
5.000000000000000000e+00,6.000000000000000000e+00,2.200000000000000000e+01,1.300000000000000000e+01,-1.000000000000000000e+00,-1.000000000000000000e+00,-2.000000000000000000e+00,-1.000000000000000000e+00,-2.896118164062500000e-01,4.300537109375000000e-01,4.386596679687500000e-01,7.339477539062500000e-01
-8.000000000000000000e+00,5.000000000000000000e+00,-3.000000000000000000e+00,-2.500000000000000000e+01,-8.000000000000000000e+00,-3.000000000000000000e+00,-2.000000000000000000e+00,-2.000000000000000000e+00,-2.916870117187500000e-01,4.251708984375000000e-01,4.382934570312500000e-01,7.362060546875000000e-01
3.000000000000000000e+00,-3.000000000000000000e+00,1.700000000000000000e+01,1.300000000000000000e+01,-3.000000000000000000e+00,-4.000000000000000000e+00,-1.000000000000000000e+00,1.000000000000000000e+00,-2.916870117187500000e-01,4.251708984375000000e-01,4.382934570312500000e-01,7.362060546875000000e-01
1.500000000000000000e+01,-5.000000000000000000e+00,-2.900000000000000000e+01,-8.000000000000000000e+00,-3.000000000000000000e+00,-1.000000000000000000e+00,-1.000000000000000000e+00,3.000000000000000000e+00,-2.916870117187500000e-01,4.251708984375000000e-01,4.382934570312500000e-01,7.362060546875000000e-01
1.000000000000000000e+00,-5.000000000000000000e+00,6.000000000000000000e+00,5.100000000000000000e+01,5.000000000000000000e+00,0.000000000000000000e+00,-2.000000000000000000e+00,-5.000000000000000000e+00,-2.916870117187500000e-01,4.251708984375000000e-01,4.382934570312500000e-01,7.362060546875000000e-01
-3.300000000000000000e+01,2.000000000000000000e+00,3.900000000000000000e+01,-1.300000000000000000e+01,-5.000000000000000000e+00,-6.000000000000000000e+00,-5.000000000000000000e+00,-3.000000000000000000e+00,-2.930297851562500000e-01,4.213867187500000000e-01,4.378662109375000000e-01,7.380981445312500000e-01
1.000000000000000000e+00,0.000000000000000000e+00,-2.500000000000000000e+01,-3.600000000000000000e+01,-3.000000000000000000e+00,0.000000000000000000e+00,0.000000000000000000e+00,-1.000000000000000000e+00,-2.930297851562500000e-01,4.213867187500000000e-01,4.378662109375000000e-01,7.380981445312500000e-01
-1.100000000000000000e+01,-2.200000000000000000e+01,-1.100000000000000000e+01,-8.000000000000000000e+00,-1.700000000000000000e+01,-7.000000000000000000e+00,-5.000000000000000000e+00,-4.000000000000000000e+00,-2.930297851562500000e-01,4.213867187500000000e-01,4.378662109375000000e-01,7.380981445312500000e-01
-4.000000000000000000e+00,2.400000000000000000e+01,5.000000000000000000e+00,2.900000000000000000e+01,5.000000000000000000e+00,4.000000000000000000e+00,0.000000000000000000e+00,-2.000000000000000000e+00,-2.930297851562500000e-01,4.213867187500000000e-01,4.378662109375000000e-01,7.380981445312500000e-01
6.000000000000000000e+00,1.000000000000000000e+00,-2.000000000000000000e+00,-2.600000000000000000e+01,0.000000000000000000e+00,-2.000000000000000000e+00,-2.000000000000000000e+00,-1.000000000000000000e+00,-2.920532226562500000e-01,4.208374023437500000e-01,4.374389648437500000e-01,7.390136718750000000e-01
-1.300000000000000000e+01,-3.000000000000000000e+00,2.600000000000000000e+01,1.400000000000000000e+01,-9.000000000000000000e+00,-4.000000000000000000e+00,2.000000000000000000e+00,4.000000000000000000e+00,-2.920532226562500000e-01,4.208374023437500000e-01,4.374389648437500000e-01,7.390136718750000000e-01
-1.000000000000000000e+00,6.000000000000000000e+00,0.000000000000000000e+00,-1.000000000000000000e+01,3.000000000000000000e+00,0.000000000000000000e+00,-3.000000000000000000e+00,-6.000000000000000000e+00,-2.920532226562500000e-01,4.208374023437500000e-01,4.374389648437500000e-01,7.390136718750000000e-01
2.000000000000000000e+00,-1.900000000000000000e+01,-2.100000000000000000e+01,-2.300000000000000000e+01,-7.000000000000000000e+00,-3.000000000000000000e+00,-2.000000000000000000e+00,-3.000000000000000000e+00,-2.920532226562500000e-01,4.208374023437500000e-01,4.374389648437500000e-01,7.390136718750000000e-01
7.000000000000000000e+01,1.000000000000000000e+00,-4.000000000000000000e+00,2.300000000000000000e+01,3.000000000000000000e+00,1.000000000000000000e+00,2.000000000000000000e+00,1.000000000000000000e+01,-2.905273437500000000e-01,4.212646484375000000e-01,4.390258789062500000e-01,7.384643554687500000e-01
-6.600000000000000000e+01,-2.000000000000000000e+00,8.000000000000000000e+00,1.100000000000000000e+01,3.000000000000000000e+00,-1.000000000000000000e+00,-3.000000000000000000e+00,-1.300000000000000000e+01,-2.905273437500000000e-01,4.212646484375000000e-01,4.390258789062500000e-01,7.384643554687500000e-01
3.400000000000000000e+01,1.000000000000000000e+01,-6.000000000000000000e+00,-2.500000000000000000e+01,-4.000000000000000000e+00,-3.000000000000000000e+00,-2.000000000000000000e+00,1.000000000000000000e+00,-2.905273437500000000e-01,4.212646484375000000e-01,4.390258789062500000e-01,7.384643554687500000e-01
-2.000000000000000000e+00,2.000000000000000000e+00,-2.000000000000000000e+00,3.000000000000000000e+00,5.000000000000000000e+00,1.000000000000000000e+00,0.000000000000000000e+00,0.000000000000000000e+00,-2.905273437500000000e-01,4.212646484375000000e-01,4.390258789062500000e-01,7.384643554687500000e-01
3.000000000000000000e+00,-2.000000000000000000e+00,7.000000000000000000e+00,-1.800000000000000000e+01,-1.000000000000000000e+01,-5.000000000000000000e+00,-2.000000000000000000e+00,0.000000000000000000e+00,-2.885742187500000000e-01,4.211425781250000000e-01,4.415893554687500000e-01,7.377929687500000000e-01
1.800000000000000000e+01,-6.000000000000000000e+00,-2.600000000000000000e+01,6.000000000000000000e+00,2.000000000000000000e+00,-2.000000000000000000e+00,-1.000000000000000000e+00,1.000000000000000000e+00,-2.885742187500000000e-01,4.211425781250000000e-01,4.415893554687500000e-01,7.377929687500000000e-01
0.000000000000000000e+00,0.000000000000000000e+00,1.000000000000000000e+00,4.100000000000000000e+01,5.000000000000000000e+00,-1.000000000000000000e+00,1.000000000000000000e+00,2.000000000000000000e+00,-2.885742187500000000e-01,4.211425781250000000e-01,4.415893554687500000e-01,7.377929687500000000e-01
-3.000000000000000000e+00,-8.000000000000000000e+00,3.000000000000000000e+00,-1.000000000000000000e+01,-2.000000000000000000e+00,-3.000000000000000000e+00,0.000000000000000000e+00,-2.000000000000000000e+00,-2.885742187500000000e-01,4.211425781250000000e-01,4.415893554687500000e-01,7.377929687500000000e-01
-2.700000000000000000e+01,-6.000000000000000000e+00,-1.800000000000000000e+01,-6.000000000000000000e+00,1.000000000000000000e+00,3.000000000000000000e+00,-3.000000000000000000e+00,0.000000000000000000e+00,-2.847900390625000000e-01,4.227294921875000000e-01,4.433593750000000000e-01,7.372436523437500000e-01
2.500000000000000000e+01,1.800000000000000000e+01,2.900000000000000000e+01,1.900000000000000000e+01,3.000000000000000000e+00,2.000000000000000000e+00,2.000000000000000000e+00,6.000000000000000000e+00,-2.847900390625000000e-01,4.227294921875000000e-01,4.433593750000000000e-01,7.372436523437500000e-01
-2.100000000000000000e+01,-6.000000000000000000e+00,5.000000000000000000e+00,8.000000000000000000e+00,0.000000000000000000e+00,1.000000000000000000e+00,-3.000000000000000000e+00,-1.400000000000000000e+01,-2.847900390625000000e-01,4.227294921875000000e-01,4.433593750000000000e-01,7.372436523437500000e-01
-2.900000000000000000e+01,2.000000000000000000e+00,-4.000000000000000000e+00,-7.000000000000000000e+00,0.000000000000000000e+00,1.000000000000000000e+00,0.000000000000000000e+00,0.000000000000000000e+00,-2.847900390625000000e-01,4.227294921875000000e-01,4.433593750000000000e-01,7.372436523437500000e-01
-1.600000000000000000e+01,-6.000000000000000000e+00,3.000000000000000000e+00,1.900000000000000000e+01,2.000000000000000000e+00,0.000000000000000000e+00,3.000000000000000000e+00,-3.000000000000000000e+00,-2.797241210937500000e-01,4.255371093750000000e-01,4.461059570312500000e-01,7.359008789062500000e-01
-1.100000000000000000e+01,-6.000000000000000000e+00,-1.500000000000000000e+01,-2.300000000000000000e+01,1.000000000000000000e+00,0.000000000000000000e+00,-3.000000000000000000e+00,-3.000000000000000000e+00,-2.797241210937500000e-01,4.255371093750000000e-01,4.461059570312500000e-01,7.359008789062500000e-01
2.400000000000000000e+01,-3.000000000000000000e+00,-6.000000000000000000e+00,-3.000000000000000000e+00,4.000000000000000000e+00,-2.000000000000000000e+00,0.000000000000000000e+00,8.000000000000000000e+00,-2.797241210937500000e-01,4.255371093750000000e-01,4.461059570312500000e-01,7.359008789062500000e-01
7.000000000000000000e+00,-1.000000000000000000e+00,1.800000000000000000e+01,1.200000000000000000e+01,-4.000000000000000000e+00,-2.000000000000000000e+00,4.000000000000000000e+00,0.000000000000000000e+00,-2.797241210937500000e-01,4.255371093750000000e-01,4.461059570312500000e-01,7.359008789062500000e-01
-4.000000000000000000e+00,3.000000000000000000e+00,-1.800000000000000000e+01,-1.000000000000000000e+01,2.000000000000000000e+00,-1.000000000000000000e+00,-1.000000000000000000e+00,-2.000000000000000000e+00,-2.772827148437500000e-01,4.265747070312500000e-01,4.490356445312500000e-01,7.344360351562500000e-01
1.600000000000000000e+01,5.000000000000000000e+00,2.600000000000000000e+01,-2.000000000000000000e+00,1.000000000000000000e+00,0.000000000000000000e+00,-1.000000000000000000e+00,-2.000000000000000000e+00,-2.772827148437500000e-01,4.265747070312500000e-01,4.490356445312500000e-01,7.344360351562500000e-01
6.000000000000000000e+00,-7.000000000000000000e+00,-3.800000000000000000e+01,-4.200000000000000000e+01,-1.200000000000000000e+01,-2.000000000000000000e+00,1.000000000000000000e+00,1.000000000000000000e+00,-2.772827148437500000e-01,4.265747070312500000e-01,4.490356445312500000e-01,7.344360351562500000e-01
3.000000000000000000e+00,6.000000000000000000e+00,-1.000000000000000000e+00,-1.000000000000000000e+01,-1.000000000000000000e+00,-3.000000000000000000e+00,-2.000000000000000000e+00,-4.000000000000000000e+00,-2.772827148437500000e-01,4.265747070312500000e-01,4.490356445312500000e-01,7.344360351562500000e-01
-6.000000000000000000e+00,-5.000000000000000000e+00,1.100000000000000000e+01,2.900000000000000000e+01,4.000000000000000000e+00,2.000000000000000000e+00,1.000000000000000000e+00,-1.000000000000000000e+00,-2.744750976562500000e-01,4.282836914062500000e-01,4.498291015625000000e-01,7.340698242187500000e-01
1.300000000000000000e+01,-3.000000000000000000e+00,0.000000000000000000e+00,-2.000000000000000000e+00,-6.000000000000000000e+00,-8.000000000000000000e+00,-1.000000000000000000e+01,-6.000000000000000000e+00,-2.744750976562500000e-01,4.282836914062500000e-01,4.498291015625000000e-01,7.340698242187500000e-01
6.000000000000000000e+00,4.000000000000000000e+00,1.400000000000000000e+01,1.000000000000000000e+00,0.000000000000000000e+00,6.000000000000000000e+00,1.000000000000000000e+01,5.000000000000000000e+00,-2.744750976562500000e-01,4.282836914062500000e-01,4.498291015625000000e-01,7.340698242187500000e-01
-2.100000000000000000e+01,-7.000000000000000000e+00,6.000000000000000000e+00,1.000000000000000000e+00,2.000000000000000000e+00,1.000000000000000000e+00,5.000000000000000000e+00,-1.000000000000000000e+00,-2.744750976562500000e-01,4.282836914062500000e-01,4.498291015625000000e-01,7.340698242187500000e-01
6.400000000000000000e+01,0.000000000000000000e+00,-2.500000000000000000e+01,-1.200000000000000000e+01,-7.000000000000000000e+00,-2.000000000000000000e+00,-8.000000000000000000e+00,5.000000000000000000e+00,-2.715454101562500000e-01,4.309082031250000000e-01,4.494628906250000000e-01,7.338256835937500000e-01
-5.700000000000000000e+01,-2.300000000000000000e+01,-1.500000000000000000e+01,-3.000000000000000000e+00,6.000000000000000000e+00,7.000000000000000000e+00,4.000000000000000000e+00,-9.000000000000000000e+00,-2.715454101562500000e-01,4.309082031250000000e-01,4.494628906250000000e-01,7.338256835937500000e-01
-1.300000000000000000e+01,1.800000000000000000e+01,3.100000000000000000e+01,7.100000000000000000e+01,1.200000000000000000e+01,1.000000000000000000e+00,-2.000000000000000000e+00,7.000000000000000000e+00,-2.715454101562500000e-01,4.309082031250000000e-01,4.494628906250000000e-01,7.338256835937500000e-01
2.000000000000000000e+01,-4.000000000000000000e+00,-4.000000000000000000e+01,-6.300000000000000000e+01,-1.200000000000000000e+01,-4.000000000000000000e+00,-2.000000000000000000e+00,-7.000000000000000000e+00,-2.715454101562500000e-01,4.309082031250000000e-01,4.494628906250000000e-01,7.338256835937500000e-01
-4.300000000000000000e+01,-2.000000000000000000e+00,-5.000000000000000000e+00,0.000000000000000000e+00,-2.000000000000000000e+00,-7.000000000000000000e+00,-2.000000000000000000e+00,2.000000000000000000e+00,-2.706298828125000000e-01,4.316406250000000000e-01,4.488525390625000000e-01,7.340698242187500000e-01
1.900000000000000000e+01,-8.000000000000000000e+00,8.000000000000000000e+00,-7.000000000000000000e+00,-7.000000000000000000e+00,-2.000000000000000000e+00,-3.000000000000000000e+00,3.000000000000000000e+00,-2.706298828125000000e-01,4.316406250000000000e-01,4.488525390625000000e-01,7.340698242187500000e-01
-1.100000000000000000e+01,-4.000000000000000000e+00,-1.900000000000000000e+01,-3.100000000000000000e+01,-7.000000000000000000e+00,-1.000000000000000000e+00,-1.000000000000000000e+00,0.000000000000000000e+00,-2.706298828125000000e-01,4.316406250000000000e-01,4.488525390625000000e-01,7.340698242187500000e-01
2.000000000000000000e+00,0.000000000000000000e+00,2.000000000000000000e+01,2.600000000000000000e+01,7.000000000000000000e+00,1.000000000000000000e+00,-5.000000000000000000e+00,1.000000000000000000e+00,-2.706298828125000000e-01,4.316406250000000000e-01,4.488525390625000000e-01,7.340698242187500000e-01
5.000000000000000000e+00,0.000000000000000000e+00,-6.000000000000000000e+00,4.000000000000000000e+00,0.000000000000000000e+00,-2.000000000000000000e+00,1.000000000000000000e+00,-4.000000000000000000e+00,-2.713012695312500000e-01,4.309082031250000000e-01,4.479370117187500000e-01,7.348022460937500000e-01
2.000000000000000000e+00,3.000000000000000000e+00,-1.000000000000000000e+00,-5.000000000000000000e+00,-3.000000000000000000e+00,-3.000000000000000000e+00,-2.000000000000000000e+00,-1.000000000000000000e+00,-2.713012695312500000e-01,4.309082031250000000e-01,4.479370117187500000e-01,7.348022460937500000e-01
0.000000000000000000e+00,-1.000000000000000000e+00,-8.000000000000000000e+00,-1.400000000000000000e+01,-3.000000000000000000e+00,0.000000000000000000e+00,-1.000000000000000000e+00,-1.000000000000000000e+00,-2.713012695312500000e-01,4.309082031250000000e-01,4.479370117187500000e-01,7.348022460937500000e-01
1.100000000000000000e+01,7.000000000000000000e+00,6.000000000000000000e+00,1.600000000000000000e+01,1.000000000000000000e+00,-2.000000000000000000e+00,-3.000000000000000000e+00,0.000000000000000000e+00,-2.713012695312500000e-01,4.309082031250000000e-01,4.479370117187500000e-01,7.348022460937500000e-01
-2.500000000000000000e+01,-2.000000000000000000e+00,5.000000000000000000e+00,1.700000000000000000e+01,2.000000000000000000e+00,-1.000000000000000000e+00,2.000000000000000000e+00,-4.000000000000000000e+00,-2.722778320312500000e-01,4.301147460937500000e-01,4.467773437500000000e-01,7.355957031250000000e-01
1.100000000000000000e+01,-4.000000000000000000e+00,7.000000000000000000e+00,-2.300000000000000000e+01,0.000000000000000000e+00,-3.000000000000000000e+00,4.000000000000000000e+00,3.000000000000000000e+00,-2.722778320312500000e-01,4.301147460937500000e-01,4.467773437500000000e-01,7.355957031250000000e-01
3.700000000000000000e+01,3.000000000000000000e+00,5.000000000000000000e+00,-1.300000000000000000e+01,-3.000000000000000000e+00,-2.000000000000000000e+00,-3.000000000000000000e+00,1.000000000000000000e+00,-2.722778320312500000e-01,4.301147460937500000e-01,4.467773437500000000e-01,7.355957031250000000e-01
-2.900000000000000000e+01,-1.200000000000000000e+01,-9.000000000000000000e+00,6.000000000000000000e+00,0.000000000000000000e+00,1.000000000000000000e+00,-3.000000000000000000e+00,-1.000000000000000000e+00,-2.722778320312500000e-01,4.301147460937500000e-01,4.467773437500000000e-01,7.355957031250000000e-01
6.000000000000000000e+00,7.000000000000000000e+00,6.400000000000000000e+01,1.000000000000000000e+01,2.000000000000000000e+00,0.000000000000000000e+00,2.000000000000000000e+00,-4.000000000000000000e+00,-2.743530273437500000e-01,4.284057617187500000e-01,4.460449218750000000e-01,7.363281250000000000e-01
-6.000000000000000000e+00,2.000000000000000000e+00,-7.000000000000000000e+00,2.300000000000000000e+01,0.000000000000000000e+00,-3.000000000000000000e+00,-4.000000000000000000e+00,-4.000000000000000000e+00,-2.743530273437500000e-01,4.284057617187500000e-01,4.460449218750000000e-01,7.363281250000000000e-01
6.000000000000000000e+00,-4.000000000000000000e+00,-7.000000000000000000e+00,-1.300000000000000000e+01,-9.000000000000000000e+00,-1.300000000000000000e+01,-8.000000000000000000e+00,0.000000000000000000e+00,-2.743530273437500000e-01,4.284057617187500000e-01,4.460449218750000000e-01,7.363281250000000000e-01
1.400000000000000000e+01,-3.000000000000000000e+00,-1.600000000000000000e+01,-5.000000000000000000e+00,8.000000000000000000e+00,8.000000000000000000e+00,4.000000000000000000e+00,3.000000000000000000e+00,-2.743530273437500000e-01,4.284057617187500000e-01,4.460449218750000000e-01,7.363281250000000000e-01
-1.000000000000000000e+00,1.800000000000000000e+01,3.600000000000000000e+01,3.400000000000000000e+01,5.000000000000000000e+00,6.000000000000000000e+00,2.000000000000000000e+00,-2.000000000000000000e+00,-2.761230468750000000e-01,4.259033203125000000e-01,4.457397460937500000e-01,7.373046875000000000e-01
2.900000000000000000e+01,9.000000000000000000e+00,3.000000000000000000e+00,6.000000000000000000e+00,9.000000000000000000e+00,9.000000000000000000e+00,4.000000000000000000e+00,6.000000000000000000e+00,-2.761230468750000000e-01,4.259033203125000000e-01,4.457397460937500000e-01,7.373046875000000000e-01
-2.100000000000000000e+01,-1.100000000000000000e+01,-7.000000000000000000e+00,-2.300000000000000000e+01,-7.000000000000000000e+00,-5.000000000000000000e+00,-5.000000000000000000e+00,-7.000000000000000000e+00,-2.761230468750000000e-01,4.259033203125000000e-01,4.457397460937500000e-01,7.373046875000000000e-01
3.300000000000000000e+01,3.000000000000000000e+00,6.000000000000000000e+00,1.300000000000000000e+01,-1.000000000000000000e+00,-4.000000000000000000e+00,-2.000000000000000000e+00,4.000000000000000000e+00,-2.761230468750000000e-01,4.259033203125000000e-01,4.457397460937500000e-01,7.373046875000000000e-01
-5.100000000000000000e+01,-1.700000000000000000e+01,-3.600000000000000000e+01,-3.800000000000000000e+01,-6.000000000000000000e+00,-3.000000000000000000e+00,5.000000000000000000e+00,-7.000000000000000000e+00,-2.777099609375000000e-01,4.226684570312500000e-01,4.450073242187500000e-01,7.389526367187500000e-01
1.200000000000000000e+01,0.000000000000000000e+00,1.100000000000000000e+01,2.000000000000000000e+01,0.000000000000000000e+00,-1.000000000000000000e+00,-2.000000000000000000e+00,1.000000000000000000e+00,-2.777099609375000000e-01,4.226684570312500000e-01,4.450073242187500000e-01,7.389526367187500000e-01
-3.700000000000000000e+01,6.000000000000000000e+00,5.000000000000000000e+00,-3.000000000000000000e+00,4.000000000000000000e+00,1.000000000000000000e+00,-2.000000000000000000e+00,-1.700000000000000000e+01,-2.777099609375000000e-01,4.226684570312500000e-01,4.450073242187500000e-01,7.389526367187500000e-01
1.100000000000000000e+01,4.000000000000000000e+00,7.000000000000000000e+00,-2.600000000000000000e+01,-9.000000000000000000e+00,-4.000000000000000000e+00,2.000000000000000000e+00,3.000000000000000000e+00,-2.777099609375000000e-01,4.226684570312500000e-01,4.450073242187500000e-01,7.389526367187500000e-01
2.800000000000000000e+01,-7.000000000000000000e+00,-1.000000000000000000e+00,3.000000000000000000e+00,-1.000000000000000000e+00,-3.000000000000000000e+00,-7.000000000000000000e+00,-6.000000000000000000e+00,-2.794189453125000000e-01,4.195556640625000000e-01,4.433593750000000000e-01,7.411499023437500000e-01
-2.600000000000000000e+01,-5.000000000000000000e+00,-2.300000000000000000e+01,-8.000000000000000000e+00,-3.000000000000000000e+00,-1.000000000000000000e+00,-1.000000000000000000e+00,-3.000000000000000000e+00,-2.794189453125000000e-01,4.195556640625000000e-01,4.433593750000000000e-01,7.411499023437500000e-01
-1.000000000000000000e+00,-3.000000000000000000e+00,1.000000000000000000e+01,2.800000000000000000e+01,5.000000000000000000e+00,3.000000000000000000e+00,1.000000000000000000e+00,2.000000000000000000e+00,-2.794189453125000000e-01,4.195556640625000000e-01,4.433593750000000000e-01,7.411499023437500000e-01
9.000000000000000000e+00,-3.000000000000000000e+00,-1.100000000000000000e+01,1.000000000000000000e+00,-4.000000000000000000e+00,-2.000000000000000000e+00,0.000000000000000000e+00,1.000000000000000000e+00,-2.794189453125000000e-01,4.195556640625000000e-01,4.433593750000000000e-01,7.411499023437500000e-01
-3.000000000000000000e+00,-1.000000000000000000e+01,8.000000000000000000e+00,-9.000000000000000000e+00,-2.000000000000000000e+00,4.000000000000000000e+00,-1.000000000000000000e+00,-4.000000000000000000e+00,-2.802734375000000000e-01,4.177246093750000000e-01,4.415283203125000000e-01,7.429199218750000000e-01
7.000000000000000000e+00,9.000000000000000000e+00,9.000000000000000000e+00,-1.400000000000000000e+01,-4.000000000000000000e+00,-6.000000000000000000e+00,0.000000000000000000e+00,4.000000000000000000e+00,-2.802734375000000000e-01,4.177246093750000000e-01,4.415283203125000000e-01,7.429199218750000000e-01
1.500000000000000000e+01,3.000000000000000000e+00,-1.300000000000000000e+01,2.100000000000000000e+01,8.000000000000000000e+00,-2.000000000000000000e+00,-4.000000000000000000e+00,-1.000000000000000000e+00,-2.802734375000000000e-01,4.177246093750000000e-01,4.415283203125000000e-01,7.429199218750000000e-01
-1.400000000000000000e+01,-7.000000000000000000e+00,2.000000000000000000e+00,1.600000000000000000e+01,0.000000000000000000e+00,-3.000000000000000000e+00,-2.000000000000000000e+00,-2.000000000000000000e+00,-2.802734375000000000e-01,4.177246093750000000e-01,4.415283203125000000e-01,7.429199218750000000e-01
-5.000000000000000000e+00,0.000000000000000000e+00,-1.900000000000000000e+01,-4.800000000000000000e+01,-1.400000000000000000e+01,-2.000000000000000000e+00,-1.000000000000000000e+00,2.000000000000000000e+00,-2.811279296875000000e-01,4.161987304687500000e-01,4.406738281250000000e-01,7.439575195312500000e-01
-3.000000000000000000e+00,-2.000000000000000000e+00,-1.800000000000000000e+01,1.700000000000000000e+01,8.000000000000000000e+00,6.000000000000000000e+00,2.000000000000000000e+00,-2.000000000000000000e+00,-2.811279296875000000e-01,4.161987304687500000e-01,4.406738281250000000e-01,7.439575195312500000e-01
1.000000000000000000e+00,-1.600000000000000000e+01,4.500000000000000000e+01,-9.000000000000000000e+00,-8.000000000000000000e+00,-6.000000000000000000e+00,-2.000000000000000000e+00,5.000000000000000000e+00,-2.811279296875000000e-01,4.161987304687500000e-01,4.406738281250000000e-01,7.439575195312500000e-01
1.000000000000000000e+00,1.700000000000000000e+01,1.000000000000000000e+01,-1.000000000000000000e+01,-1.100000000000000000e+01,-1.100000000000000000e+01,-1.100000000000000000e+01,-1.200000000000000000e+01,-2.811279296875000000e-01,4.161987304687500000e-01,4.406738281250000000e-01,7.439575195312500000e-01
-1.800000000000000000e+01,-1.200000000000000000e+01,-3.100000000000000000e+01,-1.000000000000000000e+00,-4.000000000000000000e+00,-1.000000000000000000e+00,-4.000000000000000000e+00,0.000000000000000000e+00,-2.834472656250000000e-01,4.133300781250000000e-01,4.405517578125000000e-01,7.447509765625000000e-01
1.600000000000000000e+01,1.000000000000000000e+00,-1.900000000000000000e+01,-2.100000000000000000e+01,-5.000000000000000000e+00,3.000000000000000000e+00,5.000000000000000000e+00,-1.000000000000000000e+00,-2.834472656250000000e-01,4.133300781250000000e-01,4.405517578125000000e-01,7.447509765625000000e-01
2.000000000000000000e+01,2.000000000000000000e+00,-1.100000000000000000e+01,-7.000000000000000000e+00,-2.000000000000000000e+00,2.000000000000000000e+00,5.000000000000000000e+00,7.000000000000000000e+00,-2.834472656250000000e-01,4.133300781250000000e-01,4.405517578125000000e-01,7.447509765625000000e-01
7.000000000000000000e+00,3.000000000000000000e+00,2.300000000000000000e+01,2.900000000000000000e+01,4.000000000000000000e+00,0.000000000000000000e+00,-6.000000000000000000e+00,-7.000000000000000000e+00,-2.834472656250000000e-01,4.133300781250000000e-01,4.405517578125000000e-01,7.447509765625000000e-01
-1.300000000000000000e+01,1.000000000000000000e+00,-5.000000000000000000e+00,9.000000000000000000e+00,-3.000000000000000000e+00,-4.000000000000000000e+00,-5.000000000000000000e+00,-1.100000000000000000e+01,-2.857666015625000000e-01,4.109497070312500000e-01,4.398193359375000000e-01,7.456054687500000000e-01
-6.000000000000000000e+00,3.000000000000000000e+00,0.000000000000000000e+00,-2.200000000000000000e+01,-3.000000000000000000e+00,-3.000000000000000000e+00,2.000000000000000000e+00,2.000000000000000000e+00,-2.857666015625000000e-01,4.109497070312500000e-01,4.398193359375000000e-01,7.456054687500000000e-01
4.600000000000000000e+01,5.000000000000000000e+00,-9.000000000000000000e+00,-1.200000000000000000e+01,-3.000000000000000000e+00,-3.000000000000000000e+00,-8.000000000000000000e+00,-3.000000000000000000e+00,-2.857666015625000000e-01,4.109497070312500000e-01,4.398193359375000000e-01,7.456054687500000000e-01
-4.100000000000000000e+01,-1.900000000000000000e+01,-1.000000000000000000e+00,1.000000000000000000e+01,0.000000000000000000e+00,2.000000000000000000e+00,4.000000000000000000e+00,9.000000000000000000e+00,-2.857666015625000000e-01,4.109497070312500000e-01,4.398193359375000000e-01,7.456054687500000000e-01
2.700000000000000000e+01,5.000000000000000000e+00,0.000000000000000000e+00,-5.000000000000000000e+00,-1.000000000000000000e+00,-3.000000000000000000e+00,-2.000000000000000000e+00,0.000000000000000000e+00,-2.868652343750000000e-01,4.103393554687500000e-01,4.382324218750000000e-01,7.464599609375000000e-01
-3.000000000000000000e+01,-8.000000000000000000e+00,-2.200000000000000000e+01,8.000000000000000000e+00,7.000000000000000000e+00,-1.000000000000000000e+00,-2.000000000000000000e+00,-3.000000000000000000e+00,-2.868652343750000000e-01,4.103393554687500000e-01,4.382324218750000000e-01,7.464599609375000000e-01
-1.000000000000000000e+01,2.000000000000000000e+00,5.000000000000000000e+01,2.900000000000000000e+01,0.000000000000000000e+00,-1.000000000000000000e+00,0.000000000000000000e+00,0.000000000000000000e+00,-2.872924804687500000e-01,4.112548828125000000e-01,4.376220703125000000e-01,7.461547851562500000e-01
-1.600000000000000000e+01,-2.000000000000000000e+00,-3.000000000000000000e+01,-6.000000000000000000e+00,-1.000000000000000000e+00,6.000000000000000000e+00,7.000000000000000000e+00,-3.000000000000000000e+00,-2.872924804687500000e-01,4.112548828125000000e-01,4.376220703125000000e-01,7.461547851562500000e-01
1.000000000000000000e+00,4.000000000000000000e+00,-3.000000000000000000e+00,-4.600000000000000000e+01,-9.000000000000000000e+00,-8.000000000000000000e+00,-2.000000000000000000e+00,-2.000000000000000000e+00,-2.872924804687500000e-01,4.112548828125000000e-01,4.376220703125000000e-01,7.461547851562500000e-01
3.000000000000000000e+00,-1.000000000000000000e+00,-2.000000000000000000e+00,-5.000000000000000000e+00,-3.000000000000000000e+00,0.000000000000000000e+00,-5.000000000000000000e+00,2.000000000000000000e+00,-2.872924804687500000e-01,4.112548828125000000e-01,4.376220703125000000e-01,7.461547851562500000e-01
-3.200000000000000000e+01,-1.400000000000000000e+01,-3.000000000000000000e+00,-1.000000000000000000e+01,0.000000000000000000e+00,-4.000000000000000000e+00,-7.000000000000000000e+00,-6.000000000000000000e+00,-2.868652343750000000e-01,4.132690429687500000e-01,4.384155273437500000e-01,7.446899414062500000e-01
-4.000000000000000000e+00,3.000000000000000000e+00,-1.100000000000000000e+01,-2.200000000000000000e+01,-5.000000000000000000e+00,0.000000000000000000e+00,0.000000000000000000e+00,-1.000000000000000000e+00,-2.868652343750000000e-01,4.132690429687500000e-01,4.384155273437500000e-01,7.446899414062500000e-01
4.000000000000000000e+00,1.000000000000000000e+00,-1.300000000000000000e+01,3.700000000000000000e+01,7.000000000000000000e+00,3.000000000000000000e+00,3.000000000000000000e+00,9.000000000000000000e+00,-2.868652343750000000e-01,4.132690429687500000e-01,4.384155273437500000e-01,7.446899414062500000e-01
2.000000000000000000e+00,6.000000000000000000e+00,3.000000000000000000e+01,-5.000000000000000000e+00,-4.000000000000000000e+00,-2.000000000000000000e+00,-1.000000000000000000e+00,-6.000000000000000000e+00,-2.868652343750000000e-01,4.132690429687500000e-01,4.384155273437500000e-01,7.446899414062500000e-01
-1.000000000000000000e+01,-5.000000000000000000e+00,2.200000000000000000e+01,1.100000000000000000e+01,2.000000000000000000e+00,4.000000000000000000e+00,0.000000000000000000e+00,-2.000000000000000000e+00,-2.869262695312500000e-01,4.142456054687500000e-01,4.401245117187500000e-01,7.431640625000000000e-01
8.500000000000000000e+01,-7.000000000000000000e+00,-2.900000000000000000e+01,3.500000000000000000e+01,2.000000000000000000e+00,0.000000000000000000e+00,-2.000000000000000000e+00,1.300000000000000000e+01,-2.869262695312500000e-01,4.142456054687500000e-01,4.401245117187500000e-01,7.431640625000000000e-01
-9.000000000000000000e+01,-2.100000000000000000e+01,1.400000000000000000e+01,-1.400000000000000000e+01,-6.000000000000000000e+00,-2.000000000000000000e+00,3.000000000000000000e+00,-1.700000000000000000e+01,-2.869262695312500000e-01,4.142456054687500000e-01,4.401245117187500000e-01,7.431640625000000000e-01
6.900000000000000000e+01,1.200000000000000000e+01,8.000000000000000000e+00,9.000000000000000000e+00,-4.000000000000000000e+00,-7.000000000000000000e+00,-6.000000000000000000e+00,-6.000000000000000000e+00,-2.869262695312500000e-01,4.142456054687500000e-01,4.401245117187500000e-01,7.431640625000000000e-01
-2.400000000000000000e+01,8.000000000000000000e+00,-1.400000000000000000e+01,5.000000000000000000e+00,-1.000000000000000000e+01,3.000000000000000000e+00,5.000000000000000000e+00,-4.000000000000000000e+00,-2.861328125000000000e-01,4.153442382812500000e-01,4.411010742187500000e-01,7.422485351562500000e-01
1.900000000000000000e+01,8.000000000000000000e+00,1.500000000000000000e+01,-2.000000000000000000e+01,-5.000000000000000000e+00,-6.000000000000000000e+00,2.000000000000000000e+00,1.100000000000000000e+01,-2.861328125000000000e-01,4.153442382812500000e-01,4.411010742187500000e-01,7.422485351562500000e-01
9.000000000000000000e+00,-8.000000000000000000e+00,-1.000000000000000000e+01,4.000000000000000000e+00,5.000000000000000000e+00,-3.000000000000000000e+00,-1.300000000000000000e+01,-2.000000000000000000e+00,-2.861328125000000000e-01,4.153442382812500000e-01,4.411010742187500000e-01,7.422485351562500000e-01
-2.600000000000000000e+01,-6.000000000000000000e+00,-4.000000000000000000e+00,1.500000000000000000e+01,7.000000000000000000e+00,3.000000000000000000e+00,-1.000000000000000000e+00,1.000000000000000000e+00,-2.861328125000000000e-01,4.153442382812500000e-01,4.411010742187500000e-01,7.422485351562500000e-01
-2.900000000000000000e+01,-1.000000000000000000e+00,-1.500000000000000000e+01,-2.700000000000000000e+01,1.000000000000000000e+00,5.000000000000000000e+00,8.000000000000000000e+00,0.000000000000000000e+00,-2.834472656250000000e-01,4.174194335937500000e-01,4.417724609375000000e-01,7.417602539062500000e-01
-2.400000000000000000e+01,-8.000000000000000000e+00,-1.000000000000000000e+00,-1.000000000000000000e+01,1.000000000000000000e+00,-3.000000000000000000e+00,-8.000000000000000000e+00,-9.000000000000000000e+00,-2.834472656250000000e-01,4.174194335937500000e-01,4.417724609375000000e-01,7.417602539062500000e-01
3.300000000000000000e+01,1.100000000000000000e+01,1.200000000000000000e+01,3.300000000000000000e+01,7.000000000000000000e+00,3.000000000000000000e+00,8.000000000000000000e+00,7.000000000000000000e+00,-2.834472656250000000e-01,4.174194335937500000e-01,4.417724609375000000e-01,7.417602539062500000e-01
-1.700000000000000000e+01,-9.000000000000000000e+00,-5.000000000000000000e+00,-4.800000000000000000e+01,-6.000000000000000000e+00,-5.000000000000000000e+00,-3.000000000000000000e+00,0.000000000000000000e+00,-2.834472656250000000e-01,4.174194335937500000e-01,4.417724609375000000e-01,7.417602539062500000e-01
1.600000000000000000e+01,-3.000000000000000000e+00,-3.500000000000000000e+01,1.800000000000000000e+01,4.000000000000000000e+00,-3.000000000000000000e+00,-6.000000000000000000e+00,-3.000000000000000000e+00,-2.806396484375000000e-01,4.193725585937500000e-01,4.430541992187500000e-01,7.409057617187500000e-01
-1.300000000000000000e+01,0.000000000000000000e+00,1.000000000000000000e+01,-1.200000000000000000e+01,2.000000000000000000e+00,1.000000000000000000e+00,3.000000000000000000e+00,-1.000000000000000000e+00,-2.806396484375000000e-01,4.193725585937500000e-01,4.430541992187500000e-01,7.409057617187500000e-01
1.200000000000000000e+01,2.000000000000000000e+00,-1.500000000000000000e+01,1.000000000000000000e+01,-3.000000000000000000e+00,0.000000000000000000e+00,-1.000000000000000000e+00,4.000000000000000000e+00,-2.806396484375000000e-01,4.193725585937500000e-01,4.430541992187500000e-01,7.409057617187500000e-01
0.000000000000000000e+00,8.000000000000000000e+00,2.600000000000000000e+01,1.000000000000000000e+00,-8.000000000000000000e+00,-6.000000000000000000e+00,-3.000000000000000000e+00,-1.000000000000000000e+00,-2.806396484375000000e-01,4.193725585937500000e-01,4.430541992187500000e-01,7.409057617187500000e-01
-8.000000000000000000e+00,-1.200000000000000000e+01,-2.700000000000000000e+01,-2.900000000000000000e+01,-5.000000000000000000e+00,-5.000000000000000000e+00,-1.000000000000000000e+00,-1.000000000000000000e+00,-2.797851562500000000e-01,4.205932617187500000e-01,4.441528320312500000e-01,7.399291992187500000e-01
-9.000000000000000000e+00,6.000000000000000000e+00,1.300000000000000000e+01,-1.700000000000000000e+01,2.000000000000000000e+00,2.000000000000000000e+00,-3.000000000000000000e+00,-6.000000000000000000e+00,-2.797851562500000000e-01,4.205932617187500000e-01,4.441528320312500000e-01,7.399291992187500000e-01
-1.000000000000000000e+00,-1.000000000000000000e+00,-1.900000000000000000e+01,1.900000000000000000e+01,6.000000000000000000e+00,3.000000000000000000e+00,1.000000000000000000e+00,1.000000000000000000e+00,-2.797851562500000000e-01,4.205932617187500000e-01,4.441528320312500000e-01,7.399291992187500000e-01
9.000000000000000000e+00,-1.000000000000000000e+00,-1.800000000000000000e+01,5.000000000000000000e+00,-3.000000000000000000e+00,-1.000000000000000000e+00,2.000000000000000000e+00,4.000000000000000000e+00,-2.797851562500000000e-01,4.205932617187500000e-01,4.441528320312500000e-01,7.399291992187500000e-01
-2.000000000000000000e+01,1.000000000000000000e+00,1.000000000000000000e+01,-1.800000000000000000e+01,-5.000000000000000000e+00,2.000000000000000000e+00,0.000000000000000000e+00,-6.000000000000000000e+00,-2.791748046875000000e-01,4.215698242187500000e-01,4.438476562500000000e-01,7.397460937500000000e-01
2.900000000000000000e+01,-2.000000000000000000e+00,1.000000000000000000e+00,9.000000000000000000e+00,-3.000000000000000000e+00,-4.000000000000000000e+00,-1.000000000000000000e+00,4.000000000000000000e+00,-2.791748046875000000e-01,4.215698242187500000e-01,4.438476562500000000e-01,7.397460937500000000e-01
-3.300000000000000000e+01,-5.000000000000000000e+00,-5.000000000000000000e+00,-4.000000000000000000e+00,-7.000000000000000000e+00,-2.000000000000000000e+00,-2.000000000000000000e+00,-1.200000000000000000e+01,-2.791748046875000000e-01,4.215698242187500000e-01,4.438476562500000000e-01,7.397460937500000000e-01
-8.000000000000000000e+00,-8.000000000000000000e+00,1.800000000000000000e+01,8.000000000000000000e+00,-2.000000000000000000e+00,-1.000000000000000000e+00,1.000000000000000000e+00,2.000000000000000000e+00,-2.791748046875000000e-01,4.215698242187500000e-01,4.438476562500000000e-01,7.397460937500000000e-01
1.100000000000000000e+01,3.000000000000000000e+00,-2.300000000000000000e+01,-2.000000000000000000e+00,1.000000000000000000e+00,0.000000000000000000e+00,-2.000000000000000000e+00,1.000000000000000000e+00,-2.793579101562500000e-01,4.218139648437500000e-01,4.432983398437500000e-01,7.398681640625000000e-01
-6.000000000000000000e+00,8.000000000000000000e+00,8.000000000000000000e+00,1.600000000000000000e+01,-1.000000000000000000e+00,-2.000000000000000000e+00,-2.000000000000000000e+00,-6.000000000000000000e+00,-2.793579101562500000e-01,4.218139648437500000e-01,4.432983398437500000e-01,7.398681640625000000e-01
7.000000000000000000e+00,4.000000000000000000e+00,-2.000000000000000000e+00,0.000000000000000000e+00,6.000000000000000000e+00,4.000000000000000000e+00,0.000000000000000000e+00,8.000000000000000000e+00,-2.793579101562500000e-01,4.218139648437500000e-01,4.432983398437500000e-01,7.398681640625000000e-01
6.000000000000000000e+00,-5.000000000000000000e+00,0.000000000000000000e+00,-5.000000000000000000e+00,2.000000000000000000e+00,0.000000000000000000e+00,0.000000000000000000e+00,-8.000000000000000000e+00,-2.793579101562500000e-01,4.218139648437500000e-01,4.432983398437500000e-01,7.398681640625000000e-01
1.100000000000000000e+01,2.000000000000000000e+00,-5.000000000000000000e+00,9.000000000000000000e+00,5.000000000000000000e+00,-2.000000000000000000e+00,1.000000000000000000e+00,5.000000000000000000e+00,-2.804565429687500000e-01,4.218750000000000000e-01,4.428100585937500000e-01,7.396850585937500000e-01
-1.700000000000000000e+01,3.000000000000000000e+00,-1.100000000000000000e+01,-4.100000000000000000e+01,-7.000000000000000000e+00,0.000000000000000000e+00,-1.000000000000000000e+00,-6.000000000000000000e+00,-2.804565429687500000e-01,4.218750000000000000e-01,4.428100585937500000e-01,7.396850585937500000e-01
1.900000000000000000e+01,-3.000000000000000000e+00,-1.600000000000000000e+01,-1.000000000000000000e+01,2.000000000000000000e+00,0.000000000000000000e+00,1.000000000000000000e+00,2.000000000000000000e+00,-2.804565429687500000e-01,4.218750000000000000e-01,4.428100585937500000e-01,7.396850585937500000e-01
-6.000000000000000000e+00,-5.000000000000000000e+00,-1.000000000000000000e+00,2.300000000000000000e+01,5.000000000000000000e+00,0.000000000000000000e+00,-3.000000000000000000e+00,-2.000000000000000000e+00,-2.804565429687500000e-01,4.218750000000000000e-01,4.428100585937500000e-01,7.396850585937500000e-01
2.000000000000000000e+00,-4.000000000000000000e+00,-2.700000000000000000e+01,-1.200000000000000000e+01,3.000000000000000000e+00,0.000000000000000000e+00,-1.000000000000000000e+00,3.000000000000000000e+00,-2.834472656250000000e-01,4.218139648437500000e-01,4.421386718750000000e-01,7.390136718750000000e-01
-5.000000000000000000e+00,-1.100000000000000000e+01,1.000000000000000000e+01,5.500000000000000000e+01,8.000000000000000000e+00,2.000000000000000000e+00,1.000000000000000000e+00,-1.000000000000000000e+00,-2.834472656250000000e-01,4.218139648437500000e-01,4.421386718750000000e-01,7.390136718750000000e-01
8.000000000000000000e+00,1.200000000000000000e+01,3.300000000000000000e+01,-4.900000000000000000e+01,-6.000000000000000000e+00,-5.000000000000000000e+00,-1.000000000000000000e+00,4.000000000000000000e+00,-2.834472656250000000e-01,4.218139648437500000e-01,4.421386718750000000e-01,7.390136718750000000e-01
2.800000000000000000e+01,-2.000000000000000000e+00,-8.000000000000000000e+00,9.000000000000000000e+00,-8.000000000000000000e+00,-4.000000000000000000e+00,-3.000000000000000000e+00,-7.000000000000000000e+00,-2.834472656250000000e-01,4.218139648437500000e-01,4.421386718750000000e-01,7.390136718750000000e-01
5.000000000000000000e+00,-1.000000000000000000e+00,1.500000000000000000e+01,-4.000000000000000000e+00,-4.000000000000000000e+00,-2.000000000000000000e+00,-6.000000000000000000e+00,-2.000000000000000000e+00,-2.866821289062500000e-01,4.214477539062500000e-01,4.409179687500000000e-01,7.387084960937500000e-01
-1.600000000000000000e+01,-2.000000000000000000e+00,-1.000000000000000000e+01,-8.000000000000000000e+00,-4.000000000000000000e+00,-1.000000000000000000e+00,-7.000000000000000000e+00,-5.000000000000000000e+00,-2.866821289062500000e-01,4.214477539062500000e-01,4.409179687500000000e-01,7.387084960937500000e-01
7.000000000000000000e+00,-4.000000000000000000e+00,2.000000000000000000e+00,1.400000000000000000e+01,0.000000000000000000e+00,2.000000000000000000e+00,-3.000000000000000000e+00,-2.000000000000000000e+00,-2.866821289062500000e-01,4.214477539062500000e-01,4.409179687500000000e-01,7.387084960937500000e-01
4.000000000000000000e+00,1.000000000000000000e+00,1.100000000000000000e+01,2.700000000000000000e+01,1.000000000000000000e+00,1.000000000000000000e+00,-1.000000000000000000e+00,6.000000000000000000e+00,-2.866821289062500000e-01,4.214477539062500000e-01,4.409179687500000000e-01,7.387084960937500000e-01
1.500000000000000000e+01,-5.000000000000000000e+00,-3.000000000000000000e+00,-4.300000000000000000e+01,-5.000000000000000000e+00,-2.000000000000000000e+00,1.000000000000000000e+00,-4.000000000000000000e+00,-2.886962890625000000e-01,4.212646484375000000e-01,4.393920898437500000e-01,7.389526367187500000e-01
-4.900000000000000000e+01,-6.000000000000000000e+00,-1.200000000000000000e+01,0.000000000000000000e+00,-2.000000000000000000e+00,-3.000000000000000000e+00,2.000000000000000000e+00,-9.000000000000000000e+00,-2.886962890625000000e-01,4.212646484375000000e-01,4.393920898437500000e-01,7.389526367187500000e-01
2.900000000000000000e+01,5.000000000000000000e+00,8.000000000000000000e+00,8.000000000000000000e+00,-2.000000000000000000e+00,-2.000000000000000000e+00,4.000000000000000000e+00,7.000000000000000000e+00,-2.886962890625000000e-01,4.212646484375000000e-01,4.393920898437500000e-01,7.389526367187500000e-01
-3.000000000000000000e+01,-1.900000000000000000e+01,-1.300000000000000000e+01,-2.300000000000000000e+01,-5.000000000000000000e+00,0.000000000000000000e+00,1.000000000000000000e+00,-5.000000000000000000e+00,-2.886962890625000000e-01,4.212646484375000000e-01,4.393920898437500000e-01,7.389526367187500000e-01
-1.700000000000000000e+01,1.900000000000000000e+01,2.700000000000000000e+01,3.700000000000000000e+01,-4.000000000000000000e+00,-3.000000000000000000e+00,1.000000000000000000e+00,-2.000000000000000000e+00,-2.902832031250000000e-01,4.213867187500000000e-01,4.384765625000000000e-01,7.387695312500000000e-01
1.800000000000000000e+01,-2.000000000000000000e+00,-3.900000000000000000e+01,-4.700000000000000000e+01,-2.000000000000000000e+00,2.000000000000000000e+00,1.000000000000000000e+00,5.000000000000000000e+00,-2.902832031250000000e-01,4.213867187500000000e-01,4.384765625000000000e-01,7.387695312500000000e-01
5.000000000000000000e+00,3.000000000000000000e+00,-4.000000000000000000e+00,1.100000000000000000e+01,0.000000000000000000e+00,-4.000000000000000000e+00,-2.000000000000000000e+00,-1.500000000000000000e+01,-2.902832031250000000e-01,4.213867187500000000e-01,4.384765625000000000e-01,7.387695312500000000e-01
0.000000000000000000e+00,9.000000000000000000e+00,-4.000000000000000000e+00,-1.000000000000000000e+00,2.000000000000000000e+00,-1.000000000000000000e+00,3.000000000000000000e+00,6.000000000000000000e+00,-2.902832031250000000e-01,4.213867187500000000e-01,4.384765625000000000e-01,7.387695312500000000e-01
-9.000000000000000000e+00,-1.900000000000000000e+01,-1.100000000000000000e+01,1.000000000000000000e+01,2.000000000000000000e+00,1.000000000000000000e+00,1.000000000000000000e+00,1.000000000000000000e+00,-2.919921875000000000e-01,4.210205078125000000e-01,4.385986328125000000e-01,7.382812500000000000e-01
2.000000000000000000e+00,-7.000000000000000000e+00,1.500000000000000000e+01,-1.900000000000000000e+01,-2.000000000000000000e+00,-4.000000000000000000e+00,-1.000000000000000000e+00,-9.000000000000000000e+00,-2.919921875000000000e-01,4.210205078125000000e-01,4.385986328125000000e-01,7.382812500000000000e-01
4.000000000000000000e+00,7.000000000000000000e+00,5.300000000000000000e+01,3.000000000000000000e+01,-6.000000000000000000e+00,-4.000000000000000000e+00,-1.000000000000000000e+00,5.000000000000000000e+00,-2.919921875000000000e-01,4.210205078125000000e-01,4.385986328125000000e-01,7.382812500000000000e-01
1.000000000000000000e+00,-2.000000000000000000e+00,-2.600000000000000000e+01,-1.000000000000000000e+01,-5.000000000000000000e+00,-3.000000000000000000e+00,-4.000000000000000000e+00,-4.000000000000000000e+00,-2.919921875000000000e-01,4.210205078125000000e-01,4.385986328125000000e-01,7.382812500000000000e-01
-6.000000000000000000e+00,4.000000000000000000e+00,-5.000000000000000000e+00,9.000000000000000000e+00,2.000000000000000000e+00,2.000000000000000000e+00,1.000000000000000000e+00,-2.000000000000000000e+00,-2.935791015625000000e-01,4.200439453125000000e-01,4.392089843750000000e-01,7.377929687500000000e-01
1.000000000000000000e+01,0.000000000000000000e+00,1.400000000000000000e+01,-4.000000000000000000e+00,-1.000000000000000000e+00,1.000000000000000000e+00,2.000000000000000000e+00,4.000000000000000000e+00,-2.935791015625000000e-01,4.200439453125000000e-01,4.392089843750000000e-01,7.377929687500000000e-01
-5.000000000000000000e+00,-4.000000000000000000e+00,-5.000000000000000000e+00,1.700000000000000000e+01,2.000000000000000000e+00,2.000000000000000000e+00,0.000000000000000000e+00,3.000000000000000000e+00,-2.935791015625000000e-01,4.200439453125000000e-01,4.392089843750000000e-01,7.377929687500000000e-01
-1.400000000000000000e+01,-3.000000000000000000e+00,1.000000000000000000e+00,-1.400000000000000000e+01,-4.000000000000000000e+00,-2.000000000000000000e+00,-3.000000000000000000e+00,-5.000000000000000000e+00,-2.935791015625000000e-01,4.200439453125000000e-01,4.392089843750000000e-01,7.377929687500000000e-01
1.100000000000000000e+01,6.000000000000000000e+00,1.200000000000000000e+01,1.600000000000000000e+01,0.000000000000000000e+00,0.000000000000000000e+00,-1.000000000000000000e+00,0.000000000000000000e+00,-2.942504882812500000e-01,4.195556640625000000e-01,4.395751953125000000e-01,7.376098632812500000e-01
2.000000000000000000e+00,-2.000000000000000000e+00,-1.900000000000000000e+01,3.000000000000000000e+00,0.000000000000000000e+00,0.000000000000000000e+00,0.000000000000000000e+00,-1.000000000000000000e+00,-2.942504882812500000e-01,4.195556640625000000e-01,4.395751953125000000e-01,7.376098632812500000e-01
-3.000000000000000000e+01,-1.800000000000000000e+01,-1.000000000000000000e+01,-4.000000000000000000e+00,1.000000000000000000e+00,0.000000000000000000e+00,-3.000000000000000000e+00,-4.000000000000000000e+00,-2.942504882812500000e-01,4.195556640625000000e-01,4.395751953125000000e-01,7.376098632812500000e-01
4.000000000000000000e+00,-5.000000000000000000e+00,1.100000000000000000e+01,4.700000000000000000e+01,7.000000000000000000e+00,5.000000000000000000e+00,0.000000000000000000e+00,0.000000000000000000e+00,-2.942504882812500000e-01,4.195556640625000000e-01,4.395751953125000000e-01,7.376098632812500000e-01
1.200000000000000000e+01,2.400000000000000000e+01,-1.000000000000000000e+01,-5.000000000000000000e+01,-9.000000000000000000e+00,-5.000000000000000000e+00,-3.000000000000000000e+00,7.000000000000000000e+00,-2.939453125000000000e-01,4.194946289062500000e-01,4.401855468750000000e-01,7.374267578125000000e-01
-3.300000000000000000e+01,-3.000000000000000000e+00,1.600000000000000000e+01,3.400000000000000000e+01,6.000000000000000000e+00,2.000000000000000000e+00,0.000000000000000000e+00,-6.000000000000000000e+00,-2.939453125000000000e-01,4.194946289062500000e-01,4.401855468750000000e-01,7.374267578125000000e-01
1.400000000000000000e+01,3.000000000000000000e+00,-2.200000000000000000e+01,-4.500000000000000000e+01,-5.000000000000000000e+00,-3.000000000000000000e+00,-2.000000000000000000e+00,-1.000000000000000000e+00,-2.939453125000000000e-01,4.194946289062500000e-01,4.401855468750000000e-01,7.374267578125000000e-01
-1.000000000000000000e+00,1.000000000000000000e+00,2.100000000000000000e+01,1.700000000000000000e+01,5.000000000000000000e+00,1.000000000000000000e+00,4.000000000000000000e+00,4.000000000000000000e+00,-2.939453125000000000e-01,4.194946289062500000e-01,4.401855468750000000e-01,7.374267578125000000e-01
-3.500000000000000000e+01,-1.600000000000000000e+01,1.200000000000000000e+01,1.800000000000000000e+01,2.000000000000000000e+00,0.000000000000000000e+00,0.000000000000000000e+00,-4.000000000000000000e+00,-2.927246093750000000e-01,4.198608398437500000e-01,4.410400390625000000e-01,7.371826171875000000e-01
4.000000000000000000e+00,2.000000000000000000e+00,8.000000000000000000e+00,-1.000000000000000000e+00,-5.000000000000000000e+00,-3.000000000000000000e+00,-1.000000000000000000e+00,-3.000000000000000000e+00,-2.927246093750000000e-01,4.198608398437500000e-01,4.410400390625000000e-01,7.371826171875000000e-01
-1.000000000000000000e+00,-6.000000000000000000e+00,-8.000000000000000000e+00,2.000000000000000000e+00,0.000000000000000000e+00,0.000000000000000000e+00,0.000000000000000000e+00,0.000000000000000000e+00,-2.927246093750000000e-01,4.198608398437500000e-01,4.410400390625000000e-01,7.371826171875000000e-01
1.600000000000000000e+01,6.000000000000000000e+00,-2.100000000000000000e+01,-2.200000000000000000e+01,1.000000000000000000e+00,1.000000000000000000e+00,0.000000000000000000e+00,-1.000000000000000000e+00,-2.927246093750000000e-01,4.198608398437500000e-01,4.410400390625000000e-01,7.371826171875000000e-01
3.000000000000000000e+00,3.000000000000000000e+00,1.300000000000000000e+01,8.000000000000000000e+00,-6.000000000000000000e+00,-5.000000000000000000e+00,-3.000000000000000000e+00,-2.000000000000000000e+00,-2.916870117187500000e-01,4.194946289062500000e-01,4.419555664062500000e-01,7.372436523437500000e-01
-1.000000000000000000e+00,-3.000000000000000000e+00,1.300000000000000000e+01,-6.000000000000000000e+00,1.000000000000000000e+00,0.000000000000000000e+00,0.000000000000000000e+00,1.000000000000000000e+00,-2.916870117187500000e-01,4.194946289062500000e-01,4.419555664062500000e-01,7.372436523437500000e-01
1.000000000000000000e+01,4.000000000000000000e+00,-2.100000000000000000e+01,2.900000000000000000e+01,4.000000000000000000e+00,4.000000000000000000e+00,2.000000000000000000e+00,5.000000000000000000e+00,-2.916870117187500000e-01,4.194946289062500000e-01,4.419555664062500000e-01,7.372436523437500000e-01
-1.800000000000000000e+01,0.000000000000000000e+00,1.500000000000000000e+01,-4.200000000000000000e+01,-9.000000000000000000e+00,-5.000000000000000000e+00,-4.000000000000000000e+00,-4.000000000000000000e+00,-2.916870117187500000e-01,4.194946289062500000e-01,4.419555664062500000e-01,7.372436523437500000e-01
2.000000000000000000e+00,-3.000000000000000000e+00,-1.600000000000000000e+01,0.000000000000000000e+00,-2.000000000000000000e+00,-2.000000000000000000e+00,-3.000000000000000000e+00,-9.000000000000000000e+00,-2.907714843750000000e-01,4.190673828125000000e-01,4.431152343750000000e-01,7.371826171875000000e-01
5.000000000000000000e+00,-2.000000000000000000e+00,7.000000000000000000e+00,1.200000000000000000e+01,0.000000000000000000e+00,1.000000000000000000e+00,-2.000000000000000000e+00,-1.000000000000000000e+00,-2.907714843750000000e-01,4.190673828125000000e-01,4.431152343750000000e-01,7.371826171875000000e-01
-1.000000000000000000e+00,-1.500000000000000000e+01,-1.000000000000000000e+01,-2.100000000000000000e+01,-6.000000000000000000e+00,-1.000000000000000000e+00,-1.000000000000000000e+00,-4.000000000000000000e+00,-2.907714843750000000e-01,4.190673828125000000e-01,4.431152343750000000e-01,7.371826171875000000e-01
2.600000000000000000e+01,2.700000000000000000e+01,-1.000000000000000000e+00,-1.200000000000000000e+01,-5.000000000000000000e+00,-4.000000000000000000e+00,0.000000000000000000e+00,1.000000000000000000e+01,-2.907714843750000000e-01,4.190673828125000000e-01,4.431152343750000000e-01,7.371826171875000000e-01
-5.200000000000000000e+01,-1.900000000000000000e+01,4.000000000000000000e+00,2.800000000000000000e+01,4.000000000000000000e+00,-1.000000000000000000e+00,-4.000000000000000000e+00,-1.000000000000000000e+01,-2.897949218750000000e-01,4.191284179687500000e-01,4.436645507812500000e-01,7.371826171875000000e-01
-1.000000000000000000e+00,0.000000000000000000e+00,1.400000000000000000e+01,-3.400000000000000000e+01,-9.000000000000000000e+00,-1.000000000000000000e+00,-1.000000000000000000e+00,3.000000000000000000e+00,-2.897949218750000000e-01,4.191284179687500000e-01,4.436645507812500000e-01,7.371826171875000000e-01
3.000000000000000000e+00,-2.000000000000000000e+00,-3.300000000000000000e+01,1.400000000000000000e+01,5.000000000000000000e+00,0.000000000000000000e+00,1.000000000000000000e+00,-1.000000000000000000e+00,-2.897949218750000000e-01,4.191284179687500000e-01,4.436645507812500000e-01,7.371826171875000000e-01
-2.700000000000000000e+01,-7.000000000000000000e+00,7.000000000000000000e+00,6.000000000000000000e+00,2.000000000000000000e+00,1.000000000000000000e+00,-1.000000000000000000e+00,-3.000000000000000000e+00,-2.897949218750000000e-01,4.191284179687500000e-01,4.436645507812500000e-01,7.371826171875000000e-01
3.500000000000000000e+01,6.000000000000000000e+00,-1.600000000000000000e+01,-1.000000000000000000e+00,-3.000000000000000000e+00,-1.000000000000000000e+00,1.000000000000000000e+00,4.000000000000000000e+00,-2.888183593750000000e-01,4.195556640625000000e-01,4.439697265625000000e-01,7.371215820312500000e-01
6.000000000000000000e+00,-7.000000000000000000e+00,-2.700000000000000000e+01,-2.800000000000000000e+01,-9.000000000000000000e+00,-6.000000000000000000e+00,-4.000000000000000000e+00,-2.000000000000000000e+00,-2.888183593750000000e-01,4.195556640625000000e-01,4.439697265625000000e-01,7.371215820312500000e-01
-1.400000000000000000e+01,1.100000000000000000e+01,2.700000000000000000e+01,2.000000000000000000e+00,0.000000000000000000e+00,3.000000000000000000e+00,-1.000000000000000000e+00,-3.000000000000000000e+00,-2.888183593750000000e-01,4.195556640625000000e-01,4.439697265625000000e-01,7.371215820312500000e-01
8.000000000000000000e+00,-1.800000000000000000e+01,-4.400000000000000000e+01,-8.000000000000000000e+00,-3.000000000000000000e+00,-1.000000000000000000e+00,0.000000000000000000e+00,-2.000000000000000000e+00,-2.888183593750000000e-01,4.195556640625000000e-01,4.439697265625000000e-01,7.371215820312500000e-01
1.100000000000000000e+01,-1.000000000000000000e+00,-3.000000000000000000e+00,-4.000000000000000000e+00,0.000000000000000000e+00,1.000000000000000000e+00,-1.000000000000000000e+00,0.000000000000000000e+00,-2.878417968750000000e-01,4.199218750000000000e-01,4.439697265625000000e-01,7.373046875000000000e-01
-6.000000000000000000e+00,1.000000000000000000e+00,-1.000000000000000000e+00,2.000000000000000000e+00,3.000000000000000000e+00,-1.000000000000000000e+00,-1.000000000000000000e+00,3.000000000000000000e+00,-2.878417968750000000e-01,4.199218750000000000e-01,4.439697265625000000e-01,7.373046875000000000e-01
1.300000000000000000e+01,1.300000000000000000e+01,2.000000000000000000e+01,-2.000000000000000000e+00,-2.000000000000000000e+00,-2.000000000000000000e+00,0.000000000000000000e+00,6.000000000000000000e+00,-2.878417968750000000e-01,4.199218750000000000e-01,4.439697265625000000e-01,7.373046875000000000e-01
6.000000000000000000e+00,4.000000000000000000e+00,-2.000000000000000000e+00,4.000000000000000000e+00,-1.000000000000000000e+00,0.000000000000000000e+00,-4.000000000000000000e+00,-5.000000000000000000e+00,-2.878417968750000000e-01,4.199218750000000000e-01,4.439697265625000000e-01,7.373046875000000000e-01
