-4.000000000000000000e+00,-2.000000000000000000e+00,-1.900000000000000000e+01,-1.800000000000000000e+01,-5.000000000000000000e+00,0.000000000000000000e+00,2.000000000000000000e+00,-3.000000000000000000e+00,-4.021606445312500000e-01,8.166503906250000000e-02,7.897949218750000000e-01,4.558715820312500000e-01
-8.000000000000000000e+00,-9.000000000000000000e+00,-7.500000000000000000e+01,-1.600000000000000000e+01,-2.000000000000000000e+00,1.000000000000000000e+00,-3.000000000000000000e+00,-2.000000000000000000e+00,-4.021606445312500000e-01,8.166503906250000000e-02,7.897949218750000000e-01,4.558715820312500000e-01
3.000000000000000000e+00,6.000000000000000000e+00,-2.000000000000000000e+01,-4.000000000000000000e+00,-7.000000000000000000e+00,-8.000000000000000000e+00,-2.600000000000000000e+01,-4.000000000000000000e+00,-4.022216796875000000e-01,8.227539062500000000e-02,7.897949218750000000e-01,4.556884765625000000e-01
9.000000000000000000e+00,-1.000000000000000000e+00,2.000000000000000000e+01,5.000000000000000000e+00,7.000000000000000000e+00,8.000000000000000000e+00,2.300000000000000000e+01,2.000000000000000000e+00,-4.022216796875000000e-01,8.227539062500000000e-02,7.897949218750000000e-01,4.556884765625000000e-01
-3.100000000000000000e+01,0.000000000000000000e+00,1.900000000000000000e+01,-7.000000000000000000e+00,-3.000000000000000000e+00,0.000000000000000000e+00,6.000000000000000000e+00,-4.000000000000000000e+00,-4.022216796875000000e-01,8.227539062500000000e-02,7.897949218750000000e-01,4.556884765625000000e-01
5.000000000000000000e+00,-4.000000000000000000e+00,2.000000000000000000e+00,-3.000000000000000000e+00,-4.000000000000000000e+00,6.000000000000000000e+00,2.700000000000000000e+01,4.000000000000000000e+00,-4.022216796875000000e-01,8.227539062500000000e-02,7.897949218750000000e-01,4.556884765625000000e-01
-5.000000000000000000e+00,1.000000000000000000e+00,2.400000000000000000e+01,-4.000000000000000000e+00,3.000000000000000000e+00,2.000000000000000000e+00,-1.200000000000000000e+01,-1.000000000000000000e+00,-4.024047851562500000e-01,8.221435546875000000e-02,7.897949218750000000e-01,4.555664062500000000e-01
-9.000000000000000000e+00,-5.000000000000000000e+00,-2.900000000000000000e+01,-6.000000000000000000e+00,-1.000000000000000000e+01,-1.000000000000000000e+01,-2.100000000000000000e+01,-3.000000000000000000e+00,-4.024047851562500000e-01,8.221435546875000000e-02,7.897949218750000000e-01,4.555664062500000000e-01
3.000000000000000000e+00,-1.000000000000000000e+00,2.400000000000000000e+01,2.300000000000000000e+01,-1.000000000000000000e+00,-1.100000000000000000e+01,-9.000000000000000000e+00,-1.000000000000000000e+00,-4.024047851562500000e-01,8.221435546875000000e-02,7.897949218750000000e-01,4.555664062500000000e-01
2.000000000000000000e+01,-9.000000000000000000e+00,1.700000000000000000e+01,5.000000000000000000e+00,3.000000000000000000e+00,-6.000000000000000000e+00,-4.000000000000000000e+00,2.000000000000000000e+00,-4.024047851562500000e-01,8.221435546875000000e-02,7.897949218750000000e-01,4.555664062500000000e-01
-3.100000000000000000e+01,5.000000000000000000e+00,6.000000000000000000e+00,1.000000000000000000e+00,3.000000000000000000e+00,0.000000000000000000e+00,-1.100000000000000000e+01,-4.000000000000000000e+00,-4.025268554687500000e-01,8.221435546875000000e-02,7.897338867187500000e-01,4.554443359375000000e-01
8.000000000000000000e+00,1.100000000000000000e+01,6.000000000000000000e+01,1.600000000000000000e+01,2.000000000000000000e+00,0.000000000000000000e+00,-5.000000000000000000e+00,1.000000000000000000e+00,-4.025268554687500000e-01,8.221435546875000000e-02,7.897338867187500000e-01,4.554443359375000000e-01
1.000000000000000000e+00,-4.000000000000000000e+00,-7.000000000000000000e+01,-1.600000000000000000e+01,-5.000000000000000000e+00,-1.000000000000000000e+00,8.000000000000000000e+00,1.000000000000000000e+00,-4.025268554687500000e-01,8.221435546875000000e-02,7.897338867187500000e-01,4.554443359375000000e-01
-3.000000000000000000e+00,-1.000000000000000000e+00,3.900000000000000000e+01,2.000000000000000000e+01,3.000000000000000000e+00,-1.200000000000000000e+01,-4.700000000000000000e+01,-6.000000000000000000e+00,-4.025268554687500000e-01,8.221435546875000000e-02,7.897338867187500000e-01,4.554443359375000000e-01
6.000000000000000000e+00,-1.000000000000000000e+00,-2.000000000000000000e+00,-8.000000000000000000e+00,0.000000000000000000e+00,2.000000000000000000e+00,-1.100000000000000000e+01,3.000000000000000000e+00,-4.027709960937500000e-01,8.251953125000000000e-02,7.896118164062500000e-01,4.554443359375000000e-01
-1.300000000000000000e+01,-9.000000000000000000e+00,1.000000000000000000e+00,-1.000000000000000000e+01,-6.000000000000000000e+00,-7.000000000000000000e+00,-1.100000000000000000e+01,-8.000000000000000000e+00,-4.027709960937500000e-01,8.251953125000000000e-02,7.896118164062500000e-01,4.554443359375000000e-01
1.100000000000000000e+01,-2.000000000000000000e+00,6.000000000000000000e+00,-9.000000000000000000e+00,0.000000000000000000e+00,-3.000000000000000000e+00,1.000000000000000000e+01,3.000000000000000000e+00,-4.027709960937500000e-01,8.251953125000000000e-02,7.896118164062500000e-01,4.554443359375000000e-01
-1.000000000000000000e+01,-4.000000000000000000e+00,1.900000000000000000e+01,9.000000000000000000e+00,-5.000000000000000000e+00,5.000000000000000000e+00,-4.000000000000000000e+00,-5.000000000000000000e+00,-4.027709960937500000e-01,8.251953125000000000e-02,7.896118164062500000e-01,4.554443359375000000e-01
4.000000000000000000e+00,0.000000000000000000e+00,1.000000000000000000e+00,-6.000000000000000000e+00,5.000000000000000000e+00,1.000000000000000000e+00,1.000000000000000000e+01,1.000000000000000000e+00,-4.029541015625000000e-01,8.312988281250000000e-02,7.896118164062500000e-01,4.552001953125000000e-01
1.000000000000000000e+00,-7.000000000000000000e+00,-1.700000000000000000e+01,-6.000000000000000000e+00,0.000000000000000000e+00,-1.000000000000000000e+00,-4.000000000000000000e+00,-1.000000000000000000e+00,-4.029541015625000000e-01,8.312988281250000000e-02,7.896118164062500000e-01,4.552001953125000000e-01
5.000000000000000000e+00,6.000000000000000000e+00,4.400000000000000000e+01,1.200000000000000000e+01,1.000000000000000000e+00,1.100000000000000000e+01,9.000000000000000000e+00,2.000000000000000000e+00,-4.029541015625000000e-01,8.312988281250000000e-02,7.896118164062500000e-01,4.552001953125000000e-01
0.000000000000000000e+00,8.000000000000000000e+00,5.000000000000000000e+00,-3.000000000000000000e+00,8.000000000000000000e+00,6.000000000000000000e+00,7.000000000000000000e+00,0.000000000000000000e+00,-4.029541015625000000e-01,8.312988281250000000e-02,7.896118164062500000e-01,4.552001953125000000e-01
6.000000000000000000e+00,-2.000000000000000000e+00,-3.800000000000000000e+01,0.000000000000000000e+00,-6.000000000000000000e+00,-7.000000000000000000e+00,4.000000000000000000e+00,1.000000000000000000e+00,-4.033813476562500000e-01,8.331298828125000000e-02,7.896118164062500000e-01,4.547119140625000000e-01
2.200000000000000000e+01,-3.000000000000000000e+00,5.000000000000000000e+00,-1.800000000000000000e+01,-3.000000000000000000e+00,-3.000000000000000000e+00,-5.000000000000000000e+00,-3.000000000000000000e+00,-4.033813476562500000e-01,8.331298828125000000e-02,7.896118164062500000e-01,4.547119140625000000e-01
-1.000000000000000000e+00,-2.000000000000000000e+00,-5.000000000000000000e+00,6.000000000000000000e+00,-1.000000000000000000e+00,-2.000000000000000000e+01,-8.000000000000000000e+00,0.000000000000000000e+00,-4.033813476562500000e-01,8.331298828125000000e-02,7.896118164062500000e-01,4.547119140625000000e-01
8.000000000000000000e+00,-6.000000000000000000e+00,-4.000000000000000000e+01,-1.000000000000000000e+01,-1.000000000000000000e+00,2.300000000000000000e+01,3.600000000000000000e+01,7.000000000000000000e+00,-4.033813476562500000e-01,8.331298828125000000e-02,7.896118164062500000e-01,4.547119140625000000e-01
-3.800000000000000000e+01,0.000000000000000000e+00,4.300000000000000000e+01,2.000000000000000000e+00,0.000000000000000000e+00,-7.000000000000000000e+00,-3.500000000000000000e+01,-1.700000000000000000e+01,-4.036254882812500000e-01,8.312988281250000000e-02,7.895507812500000000e-01,4.547119140625000000e-01
1.100000000000000000e+01,1.000000000000000000e+00,-9.400000000000000000e+01,-2.400000000000000000e+01,-7.000000000000000000e+00,3.000000000000000000e+00,-5.000000000000000000e+00,6.000000000000000000e+00,-4.036254882812500000e-01,8.312988281250000000e-02,7.895507812500000000e-01,4.547119140625000000e-01
-1.500000000000000000e+01,-1.800000000000000000e+01,-1.400000000000000000e+01,-8.000000000000000000e+00,-1.000000000000000000e+00,-6.000000000000000000e+00,-6.000000000000000000e+00,-6.000000000000000000e+00,-4.036254882812500000e-01,8.312988281250000000e-02,7.895507812500000000e-01,4.547119140625000000e-01
-6.300000000000000000e+01,1.000000000000000000e+00,3.100000000000000000e+01,1.300000000000000000e+01,-4.000000000000000000e+00,-5.000000000000000000e+00,7.000000000000000000e+00,-6.000000000000000000e+00,-4.036254882812500000e-01,8.312988281250000000e-02,7.895507812500000000e-01,4.547119140625000000e-01
2.200000000000000000e+01,-3.000000000000000000e+00,-3.200000000000000000e+01,-1.900000000000000000e+01,-5.000000000000000000e+00,4.000000000000000000e+00,3.600000000000000000e+01,7.000000000000000000e+00,-4.036865234375000000e-01,8.270263671875000000e-02,7.893676757812500000e-01,4.550170898437500000e-01
-1.100000000000000000e+01,3.000000000000000000e+00,4.200000000000000000e+01,1.200000000000000000e+01,4.000000000000000000e+00,-1.000000000000000000e+00,-6.000000000000000000e+00,0.000000000000000000e+00,-4.036865234375000000e-01,8.270263671875000000e-02,7.893676757812500000e-01,4.550170898437500000e-01
4.000000000000000000e+00,2.000000000000000000e+00,-1.000000000000000000e+00,-9.000000000000000000e+00,-6.000000000000000000e+00,5.000000000000000000e+00,9.000000000000000000e+00,-3.000000000000000000e+00,-4.036865234375000000e-01,8.270263671875000000e-02,7.893676757812500000e-01,4.550170898437500000e-01
1.700000000000000000e+01,-3.000000000000000000e+00,-8.000000000000000000e+00,-6.000000000000000000e+00,-4.000000000000000000e+00,-1.000000000000000000e+01,-1.700000000000000000e+01,-1.000000000000000000e+00,-4.036865234375000000e-01,8.270263671875000000e-02,7.893676757812500000e-01,4.550170898437500000e-01
-7.000000000000000000e+00,-1.000000000000000000e+00,3.000000000000000000e+00,2.500000000000000000e+01,5.000000000000000000e+00,8.000000000000000000e+00,1.600000000000000000e+01,0.000000000000000000e+00,-4.034423828125000000e-01,8.258056640625000000e-02,7.893066406250000000e-01,4.553833007812500000e-01
3.000000000000000000e+00,7.000000000000000000e+00,5.500000000000000000e+01,9.000000000000000000e+00,-1.000000000000000000e+00,-5.000000000000000000e+00,-8.000000000000000000e+00,-6.000000000000000000e+00,-4.034423828125000000e-01,8.258056640625000000e-02,7.893066406250000000e-01,4.553833007812500000e-01
0.000000000000000000e+00,-1.000000000000000000e+01,-3.100000000000000000e+01,-1.000000000000000000e+01,-3.000000000000000000e+00,4.000000000000000000e+00,4.000000000000000000e+00,3.000000000000000000e+00,-4.034423828125000000e-01,8.258056640625000000e-02,7.893066406250000000e-01,4.553833007812500000e-01
6.000000000000000000e+00,4.000000000000000000e+00,5.000000000000000000e+00,8.000000000000000000e+00,-2.000000000000000000e+00,-3.000000000000000000e+00,-4.000000000000000000e+00,-3.000000000000000000e+00,-4.034423828125000000e-01,8.258056640625000000e-02,7.893066406250000000e-01,4.553833007812500000e-01
4.000000000000000000e+00,5.000000000000000000e+00,1.700000000000000000e+01,0.000000000000000000e+00,8.000000000000000000e+00,4.000000000000000000e+00,-1.000000000000000000e+00,2.000000000000000000e+00,-4.034423828125000000e-01,8.203125000000000000e-02,7.891845703125000000e-01,4.556884765625000000e-01
2.000000000000000000e+00,-5.000000000000000000e+00,0.000000000000000000e+00,1.300000000000000000e+01,1.000000000000000000e+00,1.000000000000000000e+00,4.000000000000000000e+00,-2.000000000000000000e+00,-4.034423828125000000e-01,8.203125000000000000e-02,7.891845703125000000e-01,4.556884765625000000e-01
6.000000000000000000e+00,4.000000000000000000e+00,2.800000000000000000e+01,1.300000000000000000e+01,9.000000000000000000e+00,9.000000000000000000e+00,0.000000000000000000e+00,2.000000000000000000e+00,-4.034423828125000000e-01,8.203125000000000000e-02,7.891845703125000000e-01,4.556884765625000000e-01
0.000000000000000000e+00,-7.000000000000000000e+00,-2.100000000000000000e+01,3.000000000000000000e+00,-3.000000000000000000e+00,-2.000000000000000000e+00,4.000000000000000000e+00,-2.000000000000000000e+00,-4.034423828125000000e-01,8.203125000000000000e-02,7.891845703125000000e-01,4.556884765625000000e-01
-2.000000000000000000e+00,3.000000000000000000e+00,6.000000000000000000e+01,5.000000000000000000e+00,-5.000000000000000000e+00,-1.300000000000000000e+01,-2.100000000000000000e+01,-3.000000000000000000e+00,-4.033203125000000000e-01,8.166503906250000000e-02,7.891235351562500000e-01,4.559936523437500000e-01
-1.500000000000000000e+01,-4.000000000000000000e+00,-2.300000000000000000e+01,-6.000000000000000000e+00,5.000000000000000000e+00,1.300000000000000000e+01,1.100000000000000000e+01,-7.000000000000000000e+00,-4.033203125000000000e-01,8.166503906250000000e-02,7.891235351562500000e-01,4.559936523437500000e-01
7.000000000000000000e+00,2.000000000000000000e+00,-1.600000000000000000e+01,-1.000000000000000000e+00,5.000000000000000000e+00,9.000000000000000000e+00,1.100000000000000000e+01,5.000000000000000000e+00,-4.033203125000000000e-01,8.166503906250000000e-02,7.891235351562500000e-01,4.559936523437500000e-01
-1.200000000000000000e+01,0.000000000000000000e+00,2.800000000000000000e+01,4.000000000000000000e+00,-4.000000000000000000e+00,-2.000000000000000000e+01,-1.400000000000000000e+01,-1.000000000000000000e+00,-4.033203125000000000e-01,8.166503906250000000e-02,7.891235351562500000e-01,4.559936523437500000e-01
-4.000000000000000000e+00,-5.000000000000000000e+00,-1.100000000000000000e+01,0.000000000000000000e+00,-2.000000000000000000e+00,2.700000000000000000e+01,5.600000000000000000e+01,4.000000000000000000e+00,-4.028930664062500000e-01,8.081054687500000000e-02,7.892456054687500000e-01,4.562988281250000000e-01
-3.000000000000000000e+00,1.000000000000000000e+00,2.600000000000000000e+01,-5.000000000000000000e+00,-1.000000000000000000e+00,-1.200000000000000000e+01,-3.400000000000000000e+01,-7.000000000000000000e+00,-4.028930664062500000e-01,8.081054687500000000e-02,7.892456054687500000e-01,4.562988281250000000e-01
-4.000000000000000000e+00,-1.100000000000000000e+01,-4.600000000000000000e+01,-9.000000000000000000e+00,-9.000000000000000000e+00,-5.000000000000000000e+00,-3.000000000000000000e+00,-7.000000000000000000e+00,-4.028930664062500000e-01,8.081054687500000000e-02,7.892456054687500000e-01,4.562988281250000000e-01
1.200000000000000000e+01,-2.000000000000000000e+00,-2.600000000000000000e+01,-1.000000000000000000e+01,-1.000000000000000000e+00,8.000000000000000000e+00,1.700000000000000000e+01,1.000000000000000000e+00,-4.028930664062500000e-01,8.081054687500000000e-02,7.892456054687500000e-01,4.562988281250000000e-01
9.000000000000000000e+00,-9.000000000000000000e+00,-3.600000000000000000e+01,-2.100000000000000000e+01,-7.000000000000000000e+00,-8.000000000000000000e+00,-1.400000000000000000e+01,0.000000000000000000e+00,-4.027099609375000000e-01,7.946777343750000000e-02,7.891845703125000000e-01,4.567871093750000000e-01
-1.100000000000000000e+01,4.000000000000000000e+00,2.300000000000000000e+01,-2.000000000000000000e+00,-4.000000000000000000e+00,-5.000000000000000000e+00,3.000000000000000000e+00,1.000000000000000000e+00,-4.027099609375000000e-01,7.946777343750000000e-02,7.891845703125000000e-01,4.567871093750000000e-01
-5.000000000000000000e+00,1.200000000000000000e+01,1.400000000000000000e+01,-1.400000000000000000e+01,-1.000000000000000000e+01,-1.300000000000000000e+01,-1.800000000000000000e+01,-9.000000000000000000e+00,-4.027099609375000000e-01,7.946777343750000000e-02,7.891845703125000000e-01,4.567871093750000000e-01
0.000000000000000000e+00,-5.000000000000000000e+00,5.000000000000000000e+00,7.000000000000000000e+00,0.000000000000000000e+00,5.000000000000000000e+00,0.000000000000000000e+00,-2.000000000000000000e+00,-4.027099609375000000e-01,7.946777343750000000e-02,7.891845703125000000e-01,4.567871093750000000e-01
-8.000000000000000000e+00,-1.000000000000000000e+00,8.000000000000000000e+00,-6.000000000000000000e+00,-6.000000000000000000e+00,-5.000000000000000000e+00,-1.000000000000000000e+00,-1.000000000000000000e+00,-4.023437500000000000e-01,7.891845703125000000e-02,7.890625000000000000e-01,4.573974609375000000e-01
1.400000000000000000e+01,2.000000000000000000e+00,-3.300000000000000000e+01,-1.000000000000000000e+01,-5.000000000000000000e+00,1.000000000000000000e+00,4.000000000000000000e+00,0.000000000000000000e+00,-4.023437500000000000e-01,7.891845703125000000e-02,7.890625000000000000e-01,4.573974609375000000e-01
-3.000000000000000000e+00,0.000000000000000000e+00,3.900000000000000000e+01,1.900000000000000000e+01,5.000000000000000000e+00,5.000000000000000000e+00,3.000000000000000000e+00,5.000000000000000000e+00,-4.023437500000000000e-01,7.891845703125000000e-02,7.890625000000000000e-01,4.573974609375000000e-01
4.000000000000000000e+00,5.000000000000000000e+00,1.000000000000000000e+01,1.900000000000000000e+01,5.000000000000000000e+00,-4.000000000000000000e+00,-1.100000000000000000e+01,-4.000000000000000000e+00,-4.023437500000000000e-01,7.891845703125000000e-02,7.890625000000000000e-01,4.573974609375000000e-01
-8.000000000000000000e+00,-8.000000000000000000e+00,-2.700000000000000000e+01,-2.500000000000000000e+01,-3.000000000000000000e+00,-3.000000000000000000e+00,1.000000000000000000e+00,0.000000000000000000e+00,-4.020385742187500000e-01,7.836914062500000000e-02,7.890014648437500000e-01,4.578247070312500000e-01
-2.000000000000000000e+00,-9.000000000000000000e+00,-8.000000000000000000e+00,0.000000000000000000e+00,0.000000000000000000e+00,-1.300000000000000000e+01,6.000000000000000000e+00,0.000000000000000000e+00,-4.020385742187500000e-01,7.836914062500000000e-02,7.890014648437500000e-01,4.578247070312500000e-01
0.000000000000000000e+00,2.000000000000000000e+00,-3.400000000000000000e+01,-4.000000000000000000e+00,-2.000000000000000000e+00,1.600000000000000000e+01,8.000000000000000000e+00,-2.000000000000000000e+00,-4.020385742187500000e-01,7.836914062500000000e-02,7.890014648437500000e-01,4.578247070312500000e-01
7.000000000000000000e+00,4.000000000000000000e+00,1.300000000000000000e+01,-4.000000000000000000e+00,3.000000000000000000e+00,-1.000000000000000000e+00,-1.900000000000000000e+01,0.000000000000000000e+00,-4.020385742187500000e-01,7.836914062500000000e-02,7.890014648437500000e-01,4.578247070312500000e-01
6.000000000000000000e+00,0.000000000000000000e+00,-2.000000000000000000e+00,9.000000000000000000e+00,4.000000000000000000e+00,1.000000000000000000e+00,-3.000000000000000000e+00,-1.000000000000000000e+00,-4.020385742187500000e-01,7.751464843750000000e-02,7.890014648437500000e-01,4.580078125000000000e-01
2.000000000000000000e+01,4.000000000000000000e+00,2.000000000000000000e+00,1.000000000000000000e+01,1.000000000000000000e+00,-1.000000000000000000e+00,-1.500000000000000000e+01,0.000000000000000000e+00,-4.020385742187500000e-01,7.751464843750000000e-02,7.890014648437500000e-01,4.580078125000000000e-01
2.000000000000000000e+00,-7.000000000000000000e+00,-1.400000000000000000e+01,-1.000000000000000000e+00,-3.000000000000000000e+00,-1.000000000000000000e+00,1.800000000000000000e+01,-1.000000000000000000e+00,-4.020385742187500000e-01,7.751464843750000000e-02,7.890014648437500000e-01,4.580078125000000000e-01
1.000000000000000000e+00,-1.000000000000000000e+00,-4.500000000000000000e+01,-2.600000000000000000e+01,-7.000000000000000000e+00,-3.000000000000000000e+00,-2.000000000000000000e+00,1.000000000000000000e+00,-4.020385742187500000e-01,7.751464843750000000e-02,7.890014648437500000e-01,4.580078125000000000e-01
-2.000000000000000000e+00,-1.000000000000000000e+00,7.000000000000000000e+00,3.000000000000000000e+00,0.000000000000000000e+00,-8.000000000000000000e+00,2.000000000000000000e+00,-1.000000000000000000e+00,-4.019165039062500000e-01,7.666015625000000000e-02,7.890625000000000000e-01,4.581298828125000000e-01
5.000000000000000000e+00,0.000000000000000000e+00,-1.300000000000000000e+01,-7.000000000000000000e+00,2.000000000000000000e+00,6.000000000000000000e+00,4.200000000000000000e+01,7.000000000000000000e+00,-4.019165039062500000e-01,7.666015625000000000e-02,7.890625000000000000e-01,4.581298828125000000e-01
-7.000000000000000000e+00,2.000000000000000000e+00,2.700000000000000000e+01,1.200000000000000000e+01,0.000000000000000000e+00,-6.000000000000000000e+00,-4.300000000000000000e+01,-6.000000000000000000e+00,-4.019165039062500000e-01,7.666015625000000000e-02,7.890625000000000000e-01,4.581298828125000000e-01
4.600000000000000000e+01,5.000000000000000000e+00,-6.800000000000000000e+01,-1.000000000000000000e+01,-6.000000000000000000e+00,-7.000000000000000000e+00,-1.000000000000000000e+01,3.000000000000000000e+00,-4.019165039062500000e-01,7.666015625000000000e-02,7.890625000000000000e-01,4.581298828125000000e-01
-2.000000000000000000e+01,-1.500000000000000000e+01,-2.200000000000000000e+01,-9.000000000000000000e+00,-2.000000000000000000e+00,2.000000000000000000e+00,5.000000000000000000e+00,-5.000000000000000000e+00,-4.017944335937500000e-01,7.592773437500000000e-02,7.890625000000000000e-01,4.583740234375000000e-01
-1.000000000000000000e+00,9.000000000000000000e+00,1.200000000000000000e+01,3.000000000000000000e+00,-3.000000000000000000e+00,-4.000000000000000000e+00,-5.000000000000000000e+00,6.000000000000000000e+00,-4.017944335937500000e-01,7.592773437500000000e-02,7.890625000000000000e-01,4.583740234375000000e-01
7.000000000000000000e+00,1.000000000000000000e+00,-1.800000000000000000e+01,4.000000000000000000e+00,5.000000000000000000e+00,2.000000000000000000e+00,7.000000000000000000e+00,0.000000000000000000e+00,-4.017944335937500000e-01,7.592773437500000000e-02,7.890625000000000000e-01,4.583740234375000000e-01
-1.200000000000000000e+01,3.000000000000000000e+00,6.200000000000000000e+01,5.000000000000000000e+00,-6.000000000000000000e+00,-1.000000000000000000e+01,-3.000000000000000000e+00,-3.000000000000000000e+00,-4.017944335937500000e-01,7.592773437500000000e-02,7.890625000000000000e-01,4.583740234375000000e-01
-1.000000000000000000e+00,3.000000000000000000e+00,3.600000000000000000e+01,2.700000000000000000e+01,-1.000000000000000000e+00,-1.200000000000000000e+01,-1.000000000000000000e+01,-3.000000000000000000e+00,-4.017333984375000000e-01,7.537841796875000000e-02,7.890625000000000000e-01,4.584960937500000000e-01
1.600000000000000000e+01,-7.000000000000000000e+00,-2.100000000000000000e+01,-7.000000000000000000e+00,-3.000000000000000000e+00,-5.000000000000000000e+00,-2.500000000000000000e+01,-7.000000000000000000e+00,-4.017333984375000000e-01,7.537841796875000000e-02,7.890625000000000000e-01,4.584960937500000000e-01
-1.600000000000000000e+01,1.000000000000000000e+00,-2.300000000000000000e+01,-1.700000000000000000e+01,2.000000000000000000e+00,1.500000000000000000e+01,4.500000000000000000e+01,3.000000000000000000e+00,-4.017333984375000000e-01,7.537841796875000000e-02,7.890625000000000000e-01,4.584960937500000000e-01
8.000000000000000000e+00,-3.000000000000000000e+00,2.000000000000000000e+00,-1.300000000000000000e+01,-1.000000000000000000e+00,-5.000000000000000000e+00,2.000000000000000000e+00,2.000000000000000000e+00,-4.017333984375000000e-01,7.537841796875000000e-02,7.890625000000000000e-01,4.584960937500000000e-01
-2.000000000000000000e+00,6.000000000000000000e+00,3.200000000000000000e+01,9.000000000000000000e+00,0.000000000000000000e+00,4.000000000000000000e+00,-1.000000000000000000e+00,-3.000000000000000000e+00,-4.017944335937500000e-01,7.501220703125000000e-02,7.890625000000000000e-01,4.584960937500000000e-01
-1.400000000000000000e+01,-8.000000000000000000e+00,-1.600000000000000000e+01,3.000000000000000000e+00,6.000000000000000000e+00,5.000000000000000000e+00,2.200000000000000000e+01,3.000000000000000000e+00,-4.017944335937500000e-01,7.501220703125000000e-02,7.890625000000000000e-01,4.584960937500000000e-01
4.000000000000000000e+01,1.000000000000000000e+00,1.200000000000000000e+01,0.000000000000000000e+00,-2.000000000000000000e+00,-1.000000000000000000e+01,-1.000000000000000000e+01,-2.000000000000000000e+00,-4.017944335937500000e-01,7.501220703125000000e-02,7.890625000000000000e-01,4.584960937500000000e-01
-2.400000000000000000e+01,0.000000000000000000e+00,-7.000000000000000000e+00,-1.000000000000000000e+01,4.000000000000000000e+00,-3.000000000000000000e+00,7.000000000000000000e+00,-3.000000000000000000e+00,-4.017944335937500000e-01,7.501220703125000000e-02,7.890625000000000000e-01,4.584960937500000000e-01
1.000000000000000000e+00,-3.000000000000000000e+00,-1.100000000000000000e+01,4.000000000000000000e+00,1.000000000000000000e+00,1.500000000000000000e+01,9.000000000000000000e+00,5.000000000000000000e+00,-4.017333984375000000e-01,7.458496093750000000e-02,7.891235351562500000e-01,4.586181640625000000e-01
-6.000000000000000000e+00,3.000000000000000000e+00,2.800000000000000000e+01,4.000000000000000000e+00,-8.000000000000000000e+00,-1.100000000000000000e+01,-2.100000000000000000e+01,-6.000000000000000000e+00,-4.017333984375000000e-01,7.458496093750000000e-02,7.891235351562500000e-01,4.586181640625000000e-01
-4.000000000000000000e+00,0.000000000000000000e+00,-2.000000000000000000e+01,-9.000000000000000000e+00,-2.000000000000000000e+00,4.000000000000000000e+00,-2.000000000000000000e+00,4.000000000000000000e+00,-4.017333984375000000e-01,7.458496093750000000e-02,7.891235351562500000e-01,4.586181640625000000e-01
-1.400000000000000000e+01,-8.000000000000000000e+00,-7.000000000000000000e+00,6.000000000000000000e+00,-3.000000000000000000e+00,-8.000000000000000000e+00,-1.400000000000000000e+01,-4.000000000000000000e+00,-4.017333984375000000e-01,7.458496093750000000e-02,7.891235351562500000e-01,4.586181640625000000e-01
1.300000000000000000e+01,1.200000000000000000e+01,4.500000000000000000e+01,1.500000000000000000e+01,5.000000000000000000e+00,-2.000000000000000000e+00,1.500000000000000000e+01,4.000000000000000000e+00,-4.017333984375000000e-01,7.458496093750000000e-02,7.891235351562500000e-01,4.586181640625000000e-01
-5.000000000000000000e+00,-1.300000000000000000e+01,-4.800000000000000000e+01,-3.300000000000000000e+01,-3.000000000000000000e+00,4.000000000000000000e+00,-2.100000000000000000e+01,-2.000000000000000000e+00,-4.017333984375000000e-01,7.458496093750000000e-02,7.891235351562500000e-01,4.586181640625000000e-01
-4.000000000000000000e+01,0.000000000000000000e+00,-7.000000000000000000e+00,6.000000000000000000e+00,-2.000000000000000000e+00,-6.000000000000000000e+00,-8.000000000000000000e+00,-7.000000000000000000e+00,-4.017333984375000000e-01,7.458496093750000000e-02,7.891235351562500000e-01,4.586181640625000000e-01
2.000000000000000000e+00,2.000000000000000000e+00,4.500000000000000000e+01,4.000000000000000000e+00,-3.000000000000000000e+00,1.000000000000000000e+00,-1.300000000000000000e+01,-2.000000000000000000e+00,-4.017333984375000000e-01,7.458496093750000000e-02,7.891235351562500000e-01,4.586181640625000000e-01
1.000000000000000000e+00,1.000000000000000000e+00,-1.600000000000000000e+01,-7.000000000000000000e+00,2.000000000000000000e+00,2.000000000000000000e+00,1.800000000000000000e+01,1.000000000000000000e+00,-4.014282226562500000e-01,7.446289062500000000e-02,7.891235351562500000e-01,4.588623046875000000e-01
-1.900000000000000000e+01,-5.000000000000000000e+00,5.400000000000000000e+01,2.700000000000000000e+01,8.000000000000000000e+00,4.000000000000000000e+00,3.000000000000000000e+00,-4.000000000000000000e+00,-4.014282226562500000e-01,7.446289062500000000e-02,7.891235351562500000e-01,4.588623046875000000e-01
2.300000000000000000e+01,-3.000000000000000000e+00,-8.700000000000000000e+01,-9.000000000000000000e+00,-8.000000000000000000e+00,-2.000000000000000000e+00,-9.000000000000000000e+00,-1.000000000000000000e+00,-4.014282226562500000e-01,7.446289062500000000e-02,7.891235351562500000e-01,4.588623046875000000e-01
-5.000000000000000000e+00,3.000000000000000000e+00,2.000000000000000000e+01,3.000000000000000000e+00,0.000000000000000000e+00,2.000000000000000000e+00,-1.800000000000000000e+01,3.000000000000000000e+00,-4.014282226562500000e-01,7.446289062500000000e-02,7.891235351562500000e-01,4.588623046875000000e-01
2.000000000000000000e+00,4.000000000000000000e+00,-4.000000000000000000e+01,-1.600000000000000000e+01,4.000000000000000000e+00,1.000000000000000000e+00,-4.000000000000000000e+00,-1.000000000000000000e+00,-4.008789062500000000e-01,7.434082031250000000e-02,7.893066406250000000e-01,4.590454101562500000e-01
-8.000000000000000000e+00,-3.000000000000000000e+00,3.700000000000000000e+01,7.000000000000000000e+00,-6.000000000000000000e+00,2.000000000000000000e+00,1.300000000000000000e+01,-4.000000000000000000e+00,-4.008789062500000000e-01,7.434082031250000000e-02,7.893066406250000000e-01,4.590454101562500000e-01
-1.000000000000000000e+00,-4.000000000000000000e+00,4.800000000000000000e+01,-1.000000000000000000e+00,3.000000000000000000e+00,-1.500000000000000000e+01,-1.400000000000000000e+01,-3.000000000000000000e+00,-4.008789062500000000e-01,7.434082031250000000e-02,7.893066406250000000e-01,4.590454101562500000e-01
-3.000000000000000000e+00,6.000000000000000000e+00,-8.700000000000000000e+01,-2.400000000000000000e+01,-3.000000000000000000e+00,6.000000000000000000e+00,9.000000000000000000e+00,-3.000000000000000000e+00,-4.008789062500000000e-01,7.434082031250000000e-02,7.893066406250000000e-01,4.590454101562500000e-01
1.000000000000000000e+01,3.000000000000000000e+00,1.000000000000000000e+00,2.100000000000000000e+01,3.000000000000000000e+00,-6.000000000000000000e+00,-2.100000000000000000e+01,-2.000000000000000000e+00,-4.003295898437500000e-01,7.397460937500000000e-02,7.894287109375000000e-01,4.594116210937500000e-01
-4.000000000000000000e+00,-6.000000000000000000e+00,-2.400000000000000000e+01,-3.000000000000000000e+01,-1.500000000000000000e+01,-1.500000000000000000e+01,-1.000000000000000000e+00,1.000000000000000000e+00,-4.003295898437500000e-01,7.397460937500000000e-02,7.894287109375000000e-01,4.594116210937500000e-01
-1.500000000000000000e+01,-4.000000000000000000e+00,2.000000000000000000e+01,4.000000000000000000e+00,0.000000000000000000e+00,5.000000000000000000e+00,4.000000000000000000e+00,-3.000000000000000000e+00,-4.003295898437500000e-01,7.397460937500000000e-02,7.894287109375000000e-01,4.594116210937500000e-01
-1.100000000000000000e+01,5.000000000000000000e+00,-2.000000000000000000e+00,-7.000000000000000000e+00,7.000000000000000000e+00,1.000000000000000000e+01,1.400000000000000000e+01,0.000000000000000000e+00,-4.003295898437500000e-01,7.397460937500000000e-02,7.894287109375000000e-01,4.594116210937500000e-01
7.000000000000000000e+00,6.000000000000000000e+00,-4.000000000000000000e+00,4.000000000000000000e+00,3.000000000000000000e+00,-4.000000000000000000e+00,-7.000000000000000000e+00,2.000000000000000000e+00,-3.997192382812500000e-01,7.373046875000000000e-02,7.894897460937500000e-01,4.598388671875000000e-01
-6.000000000000000000e+00,-7.000000000000000000e+00,-2.100000000000000000e+01,2.000000000000000000e+00,2.000000000000000000e+00,-1.000000000000000000e+00,5.000000000000000000e+00,2.000000000000000000e+00,-3.997192382812500000e-01,7.373046875000000000e-02,7.894897460937500000e-01,4.598388671875000000e-01
1.000000000000000000e+00,3.000000000000000000e+00,4.700000000000000000e+01,2.400000000000000000e+01,5.000000000000000000e+00,-2.000000000000000000e+00,-3.000000000000000000e+00,1.000000000000000000e+00,-3.997192382812500000e-01,7.373046875000000000e-02,7.894897460937500000e-01,4.598388671875000000e-01
-5.000000000000000000e+00,-1.800000000000000000e+01,-6.100000000000000000e+01,-1.800000000000000000e+01,-2.000000000000000000e+00,1.000000000000000000e+00,1.000000000000000000e+01,-3.000000000000000000e+00,-3.997192382812500000e-01,7.373046875000000000e-02,7.894897460937500000e-01,4.598388671875000000e-01
-4.000000000000000000e+00,-1.000000000000000000e+00,2.200000000000000000e+01,-8.000000000000000000e+00,-2.000000000000000000e+00,-3.000000000000000000e+00,1.300000000000000000e+01,-5.000000000000000000e+00,-3.992309570312500000e-01,7.354736328125000000e-02,7.894287109375000000e-01,4.604492187500000000e-01
8.000000000000000000e+00,7.000000000000000000e+00,-1.600000000000000000e+01,2.000000000000000000e+00,-2.000000000000000000e+00,-2.000000000000000000e+00,-6.000000000000000000e+00,0.000000000000000000e+00,-3.992309570312500000e-01,7.354736328125000000e-02,7.894287109375000000e-01,4.604492187500000000e-01
-3.000000000000000000e+00,-1.000000000000000000e+01,-3.100000000000000000e+01,-2.100000000000000000e+01,-9.000000000000000000e+00,5.000000000000000000e+00,2.500000000000000000e+01,4.000000000000000000e+00,-3.992309570312500000e-01,7.354736328125000000e-02,7.894287109375000000e-01,4.604492187500000000e-01
1.000000000000000000e+01,6.000000000000000000e+00,7.000000000000000000e+01,1.400000000000000000e+01,-4.000000000000000000e+00,-7.000000000000000000e+00,-8.000000000000000000e+00,0.000000000000000000e+00,-3.992309570312500000e-01,7.354736328125000000e-02,7.894287109375000000e-01,4.604492187500000000e-01
-1.500000000000000000e+01,-1.200000000000000000e+01,-1.100000000000000000e+01,-8.000000000000000000e+00,-8.000000000000000000e+00,-1.000000000000000000e+01,-3.000000000000000000e+00,-2.000000000000000000e+00,-3.985595703125000000e-01,7.354736328125000000e-02,7.892456054687500000e-01,4.611816406250000000e-01
-4.400000000000000000e+01,4.000000000000000000e+00,3.600000000000000000e+01,1.000000000000000000e+01,7.000000000000000000e+00,1.800000000000000000e+01,5.000000000000000000e+00,-5.000000000000000000e+00,-3.985595703125000000e-01,7.354736328125000000e-02,7.892456054687500000e-01,4.611816406250000000e-01
2.000000000000000000e+00,-9.000000000000000000e+00,-4.300000000000000000e+01,-6.000000000000000000e+00,-2.000000000000000000e+00,-5.000000000000000000e+00,-7.000000000000000000e+00,0.000000000000000000e+00,-3.985595703125000000e-01,7.354736328125000000e-02,7.892456054687500000e-01,4.611816406250000000e-01
-1.500000000000000000e+01,-2.000000000000000000e+00,-2.300000000000000000e+01,-5.000000000000000000e+00,-4.000000000000000000e+00,-1.100000000000000000e+01,-2.000000000000000000e+00,-2.000000000000000000e+00,-3.985595703125000000e-01,7.354736328125000000e-02,7.892456054687500000e-01,4.611816406250000000e-01
7.000000000000000000e+00,9.000000000000000000e+00,5.200000000000000000e+01,4.000000000000000000e+00,-2.000000000000000000e+00,-4.000000000000000000e+00,-7.000000000000000000e+00,0.000000000000000000e+00,-3.981323242187500000e-01,7.342529296875000000e-02,7.890625000000000000e-01,4.619750976562500000e-01
1.300000000000000000e+01,-1.200000000000000000e+01,-4.600000000000000000e+01,-6.000000000000000000e+00,-5.000000000000000000e+00,0.000000000000000000e+00,-1.000000000000000000e+00,1.000000000000000000e+00,-3.981323242187500000e-01,7.342529296875000000e-02,7.890625000000000000e-01,4.619750976562500000e-01
-7.000000000000000000e+00,-1.000000000000000000e+00,2.000000000000000000e+00,2.000000000000000000e+00,-2.000000000000000000e+00,-1.600000000000000000e+01,-2.200000000000000000e+01,-3.000000000000000000e+00,-3.981323242187500000e-01,7.342529296875000000e-02,7.890625000000000000e-01,4.619750976562500000e-01
-1.800000000000000000e+01,6.000000000000000000e+00,6.300000000000000000e+01,3.400000000000000000e+01,6.000000000000000000e+00,1.200000000000000000e+01,1.400000000000000000e+01,0.000000000000000000e+00,-3.981323242187500000e-01,7.342529296875000000e-02,7.890625000000000000e-01,4.619750976562500000e-01
1.500000000000000000e+01,-4.000000000000000000e+00,-6.000000000000000000e+00,4.000000000000000000e+00,5.000000000000000000e+00,6.000000000000000000e+00,1.000000000000000000e+00,-3.000000000000000000e+00,-3.978271484375000000e-01,7.342529296875000000e-02,7.888183593750000000e-01,4.626464843750000000e-01
3.600000000000000000e+01,1.200000000000000000e+01,5.000000000000000000e+00,1.000000000000000000e+01,4.000000000000000000e+00,-4.000000000000000000e+00,-1.500000000000000000e+01,-1.000000000000000000e+00,-3.978271484375000000e-01,7.342529296875000000e-02,7.888183593750000000e-01,4.626464843750000000e-01
3.000000000000000000e+00,7.000000000000000000e+00,2.000000000000000000e+01,1.000000000000000000e+00,1.000000000000000000e+00,3.000000000000000000e+00,1.700000000000000000e+01,0.000000000000000000e+00,-3.978271484375000000e-01,7.342529296875000000e-02,7.888183593750000000e-01,4.626464843750000000e-01
1.000000000000000000e+00,-8.000000000000000000e+00,-1.900000000000000000e+01,-4.000000000000000000e+00,-2.000000000000000000e+00,-1.000000000000000000e+00,-2.000000000000000000e+00,1.000000000000000000e+00,-3.978271484375000000e-01,7.342529296875000000e-02,7.888183593750000000e-01,4.626464843750000000e-01
-5.000000000000000000e+00,-1.000000000000000000e+00,1.700000000000000000e+01,5.000000000000000000e+00,-4.000000000000000000e+00,-2.000000000000000000e+00,-2.000000000000000000e+00,-4.000000000000000000e+00,-3.975219726562500000e-01,7.330322265625000000e-02,7.886962890625000000e-01,4.631347656250000000e-01
-1.000000000000000000e+01,1.000000000000000000e+00,-2.000000000000000000e+01,-7.000000000000000000e+00,-5.000000000000000000e+00,-4.000000000000000000e+00,-6.000000000000000000e+00,-1.000000000000000000e+00,-3.975219726562500000e-01,7.330322265625000000e-02,7.886962890625000000e-01,4.631347656250000000e-01
9.000000000000000000e+00,-1.000000000000000000e+01,-1.500000000000000000e+01,-1.000000000000000000e+01,-6.000000000000000000e+00,-5.000000000000000000e+00,-8.000000000000000000e+00,-5.000000000000000000e+00,-3.975219726562500000e-01,7.330322265625000000e-02,7.886962890625000000e-01,4.631347656250000000e-01
8.000000000000000000e+00,7.000000000000000000e+00,2.500000000000000000e+01,1.700000000000000000e+01,8.000000000000000000e+00,4.000000000000000000e+00,3.000000000000000000e+00,1.000000000000000000e+00,-3.975219726562500000e-01,7.330322265625000000e-02,7.886962890625000000e-01,4.631347656250000000e-01
-1.400000000000000000e+01,-1.800000000000000000e+01,-7.800000000000000000e+01,-3.900000000000000000e+01,-1.000000000000000000e+01,6.000000000000000000e+00,5.000000000000000000e+00,1.000000000000000000e+00,-3.972167968750000000e-01,7.318115234375000000e-02,7.886352539062500000e-01,4.635009765625000000e-01
4.000000000000000000e+00,3.000000000000000000e+00,4.600000000000000000e+01,2.600000000000000000e+01,1.000000000000000000e+00,-5.000000000000000000e+00,-1.000000000000000000e+00,-3.000000000000000000e+00,-3.972167968750000000e-01,7.318115234375000000e-02,7.886352539062500000e-01,4.635009765625000000e-01
-8.000000000000000000e+00,9.000000000000000000e+00,5.000000000000000000e+01,-9.000000000000000000e+00,-1.300000000000000000e+01,-1.000000000000000000e+01,-1.100000000000000000e+01,-4.000000000000000000e+00,-3.972167968750000000e-01,7.318115234375000000e-02,7.886352539062500000e-01,4.635009765625000000e-01
1.200000000000000000e+01,-2.000000000000000000e+00,1.300000000000000000e+01,9.000000000000000000e+00,0.000000000000000000e+00,-3.000000000000000000e+00,1.500000000000000000e+01,1.000000000000000000e+00,-3.972167968750000000e-01,7.318115234375000000e-02,7.886352539062500000e-01,4.635009765625000000e-01
3.000000000000000000e+00,1.100000000000000000e+01,-1.900000000000000000e+01,-5.000000000000000000e+00,3.000000000000000000e+00,8.000000000000000000e+00,-1.600000000000000000e+01,-2.000000000000000000e+00,-3.971557617187500000e-01,7.312011718750000000e-02,7.885131835937500000e-01,4.638061523437500000e-01
-3.000000000000000000e+00,-1.900000000000000000e+01,-5.000000000000000000e+00,8.000000000000000000e+00,-2.000000000000000000e+00,-7.000000000000000000e+00,1.100000000000000000e+01,2.000000000000000000e+00,-3.971557617187500000e-01,7.312011718750000000e-02,7.885131835937500000e-01,4.638061523437500000e-01
-5.000000000000000000e+00,6.000000000000000000e+00,5.000000000000000000e+00,-1.000000000000000000e+00,-3.000000000000000000e+00,1.400000000000000000e+01,-9.000000000000000000e+00,-1.000000000000000000e+00,-3.971557617187500000e-01,7.312011718750000000e-02,7.885131835937500000e-01,4.638061523437500000e-01
8.000000000000000000e+00,-8.000000000000000000e+00,-5.000000000000000000e+00,-2.000000000000000000e+00,-2.000000000000000000e+00,-3.000000000000000000e+00,-2.000000000000000000e+01,-4.000000000000000000e+00,-3.971557617187500000e-01,7.312011718750000000e-02,7.885131835937500000e-01,4.638061523437500000e-01
-5.000000000000000000e+00,-5.000000000000000000e+00,-1.200000000000000000e+01,1.000000000000000000e+00,-3.000000000000000000e+00,-1.400000000000000000e+01,1.000000000000000000e+00,2.000000000000000000e+00,-3.967895507812500000e-01,7.366943359375000000e-02,7.883300781250000000e-01,4.643554687500000000e-01
1.000000000000000000e+01,1.100000000000000000e+01,1.500000000000000000e+01,-2.000000000000000000e+00,7.000000000000000000e+00,5.000000000000000000e+00,-1.100000000000000000e+01,-1.000000000000000000e+00,-3.967895507812500000e-01,7.366943359375000000e-02,7.883300781250000000e-01,4.643554687500000000e-01
-1.200000000000000000e+01,5.000000000000000000e+00,1.700000000000000000e+01,1.800000000000000000e+01,8.000000000000000000e+00,-2.000000000000000000e+00,1.000000000000000000e+00,3.000000000000000000e+00,-3.967895507812500000e-01,7.366943359375000000e-02,7.883300781250000000e-01,4.643554687500000000e-01
-2.700000000000000000e+01,-1.500000000000000000e+01,-5.500000000000000000e+01,-1.800000000000000000e+01,-2.000000000000000000e+00,1.000000000000000000e+00,8.000000000000000000e+00,-1.100000000000000000e+01,-3.967895507812500000e-01,7.366943359375000000e-02,7.883300781250000000e-01,4.643554687500000000e-01
-4.000000000000000000e+00,3.000000000000000000e+00,-1.300000000000000000e+01,-6.000000000000000000e+00,-9.000000000000000000e+00,-1.000000000000000000e+00,-3.000000000000000000e+00,1.000000000000000000e+00,-3.963012695312500000e-01,7.409667968750000000e-02,7.883300781250000000e-01,4.646606445312500000e-01
9.000000000000000000e+00,0.000000000000000000e+00,6.000000000000000000e+00,-5.000000000000000000e+00,-1.000000000000000000e+00,-3.000000000000000000e+00,1.200000000000000000e+01,-1.000000000000000000e+00,-3.963012695312500000e-01,7.409667968750000000e-02,7.883300781250000000e-01,4.646606445312500000e-01
-1.000000000000000000e+00,5.000000000000000000e+00,3.700000000000000000e+01,3.000000000000000000e+00,8.000000000000000000e+00,3.000000000000000000e+00,-1.500000000000000000e+01,1.000000000000000000e+00,-3.963012695312500000e-01,7.409667968750000000e-02,7.883300781250000000e-01,4.646606445312500000e-01
-2.000000000000000000e+00,-7.000000000000000000e+00,-4.000000000000000000e+00,-1.300000000000000000e+01,-8.000000000000000000e+00,-1.000000000000000000e+00,-2.100000000000000000e+01,-2.000000000000000000e+00,-3.963012695312500000e-01,7.409667968750000000e-02,7.883300781250000000e-01,4.646606445312500000e-01
-1.500000000000000000e+01,-4.000000000000000000e+00,1.600000000000000000e+01,6.000000000000000000e+00,-2.000000000000000000e+00,-3.000000000000000000e+00,-2.000000000000000000e+00,-2.000000000000000000e+00,-3.960571289062500000e-01,7.421875000000000000e-02,7.883911132812500000e-01,4.647827148437500000e-01
-3.000000000000000000e+00,0.000000000000000000e+00,-1.400000000000000000e+01,-6.000000000000000000e+00,0.000000000000000000e+00,-9.000000000000000000e+00,-1.600000000000000000e+01,-4.000000000000000000e+00,-3.960571289062500000e-01,7.421875000000000000e-02,7.883911132812500000e-01,4.647827148437500000e-01
1.300000000000000000e+01,4.000000000000000000e+00,1.200000000000000000e+01,-3.000000000000000000e+00,0.000000000000000000e+00,2.000000000000000000e+00,1.700000000000000000e+01,2.000000000000000000e+00,-3.960571289062500000e-01,7.421875000000000000e-02,7.883911132812500000e-01,4.647827148437500000e-01
1.000000000000000000e+00,-5.000000000000000000e+00,-1.000000000000000000e+01,-1.000000000000000000e+00,-4.000000000000000000e+00,4.000000000000000000e+00,3.000000000000000000e+00,0.000000000000000000e+00,-3.960571289062500000e-01,7.421875000000000000e-02,7.883911132812500000e-01,4.647827148437500000e-01
2.000000000000000000e+00,2.000000000000000000e+00,2.200000000000000000e+01,2.700000000000000000e+01,5.000000000000000000e+00,-6.000000000000000000e+00,-9.000000000000000000e+00,-2.000000000000000000e+00,-3.956298828125000000e-01,7.440185546875000000e-02,7.884521484375000000e-01,4.650268554687500000e-01
-5.000000000000000000e+00,-9.000000000000000000e+00,-1.000000000000000000e+00,-2.000000000000000000e+01,-2.000000000000000000e+00,4.000000000000000000e+00,5.000000000000000000e+00,-2.000000000000000000e+00,-3.956298828125000000e-01,7.440185546875000000e-02,7.884521484375000000e-01,4.650268554687500000e-01
3.000000000000000000e+00,-7.000000000000000000e+00,-1.050000000000000000e+02,-1.900000000000000000e+01,-6.000000000000000000e+00,-2.000000000000000000e+00,-7.000000000000000000e+00,-1.000000000000000000e+00,-3.956298828125000000e-01,7.440185546875000000e-02,7.884521484375000000e-01,4.650268554687500000e-01
-1.000000000000000000e+00,8.000000000000000000e+00,1.100000000000000000e+01,-1.600000000000000000e+01,-1.000000000000000000e+01,-8.000000000000000000e+00,1.600000000000000000e+01,6.000000000000000000e+00,-3.956298828125000000e-01,7.440185546875000000e-02,7.884521484375000000e-01,4.650268554687500000e-01
-1.000000000000000000e+00,-1.000000000000000000e+00,1.100000000000000000e+01,8.000000000000000000e+00,4.000000000000000000e+00,6.000000000000000000e+00,-1.400000000000000000e+01,-2.000000000000000000e+00,-3.952026367187500000e-01,7.482910156250000000e-02,7.885131835937500000e-01,4.652709960937500000e-01
2.000000000000000000e+00,0.000000000000000000e+00,1.900000000000000000e+01,1.000000000000000000e+00,-6.000000000000000000e+00,-4.000000000000000000e+00,-1.200000000000000000e+01,-1.000000000000000000e+00,-3.952026367187500000e-01,7.482910156250000000e-02,7.885131835937500000e-01,4.652709960937500000e-01
-1.000000000000000000e+00,-8.000000000000000000e+00,-2.100000000000000000e+01,2.000000000000000000e+00,1.000000000000000000e+00,3.000000000000000000e+00,3.100000000000000000e+01,0.000000000000000000e+00,-3.952026367187500000e-01,7.482910156250000000e-02,7.885131835937500000e-01,4.652709960937500000e-01
-6.000000000000000000e+00,6.000000000000000000e+00,1.300000000000000000e+01,1.500000000000000000e+01,1.100000000000000000e+01,5.000000000000000000e+00,9.000000000000000000e+00,5.000000000000000000e+00,-3.952026367187500000e-01,7.482910156250000000e-02,7.885131835937500000e-01,4.652709960937500000e-01
2.000000000000000000e+01,-4.000000000000000000e+00,-2.400000000000000000e+01,-3.400000000000000000e+01,-1.200000000000000000e+01,-1.000000000000000000e+01,7.000000000000000000e+00,3.000000000000000000e+00,-3.946533203125000000e-01,7.513427734375000000e-02,7.885131835937500000e-01,4.655761718750000000e-01
-4.000000000000000000e+00,-3.000000000000000000e+00,1.400000000000000000e+01,-9.000000000000000000e+00,-3.000000000000000000e+00,1.500000000000000000e+01,1.800000000000000000e+01,-2.000000000000000000e+00,-3.946533203125000000e-01,7.513427734375000000e-02,7.885131835937500000e-01,4.655761718750000000e-01
3.200000000000000000e+01,-3.000000000000000000e+00,-1.000000000000000000e+00,4.000000000000000000e+00,-9.000000000000000000e+00,-9.000000000000000000e+00,-3.600000000000000000e+01,-5.000000000000000000e+00,-3.946533203125000000e-01,7.513427734375000000e-02,7.885131835937500000e-01,4.655761718750000000e-01
1.100000000000000000e+01,2.000000000000000000e+00,5.000000000000000000e+00,-6.000000000000000000e+00,-1.000000000000000000e+00,-1.000000000000000000e+00,-2.600000000000000000e+01,-1.000000000000000000e+00,-3.946533203125000000e-01,7.513427734375000000e-02,7.885131835937500000e-01,4.655761718750000000e-01
1.800000000000000000e+01,6.000000000000000000e+00,-7.000000000000000000e+00,5.000000000000000000e+00,5.000000000000000000e+00,-4.000000000000000000e+00,4.000000000000000000e+00,1.000000000000000000e+00,-3.941650390625000000e-01,7.550048828125000000e-02,7.883911132812500000e-01,4.661254882812500000e-01
-5.200000000000000000e+01,-3.000000000000000000e+00,1.100000000000000000e+01,-2.000000000000000000e+00,-3.000000000000000000e+00,-7.000000000000000000e+00,-9.000000000000000000e+00,-4.000000000000000000e+00,-3.941650390625000000e-01,7.550048828125000000e-02,7.883911132812500000e-01,4.661254882812500000e-01
-8.000000000000000000e+00,-1.900000000000000000e+01,-7.100000000000000000e+01,-1.800000000000000000e+01,0.000000000000000000e+00,-3.000000000000000000e+00,7.000000000000000000e+00,2.000000000000000000e+00,-3.941650390625000000e-01,7.550048828125000000e-02,7.883911132812500000e-01,4.661254882812500000e-01
1.300000000000000000e+01,8.000000000000000000e+00,-3.000000000000000000e+01,-1.700000000000000000e+01,-6.000000000000000000e+00,-6.000000000000000000e+00,-5.000000000000000000e+00,-7.000000000000000000e+00,-3.941650390625000000e-01,7.550048828125000000e-02,7.883911132812500000e-01,4.661254882812500000e-01
-6.000000000000000000e+00,1.000000000000000000e+00,3.100000000000000000e+01,9.000000000000000000e+00,-3.000000000000000000e+00,4.000000000000000000e+00,-1.200000000000000000e+01,-3.000000000000000000e+00,-3.936767578125000000e-01,7.568359375000000000e-02,7.881469726562500000e-01,4.669189453125000000e-01
7.000000000000000000e+00,-3.000000000000000000e+00,-1.900000000000000000e+01,-4.000000000000000000e+00,-4.000000000000000000e+00,-4.000000000000000000e+00,6.000000000000000000e+00,2.000000000000000000e+00,-3.936767578125000000e-01,7.568359375000000000e-02,7.881469726562500000e-01,4.669189453125000000e-01
-2.000000000000000000e+00,1.100000000000000000e+01,4.800000000000000000e+01,3.000000000000000000e+00,0.000000000000000000e+00,-2.000000000000000000e+00,-1.000000000000000000e+00,1.000000000000000000e+00,-3.936767578125000000e-01,7.568359375000000000e-02,7.881469726562500000e-01,4.669189453125000000e-01
-1.000000000000000000e+00,-6.000000000000000000e+00,1.600000000000000000e+01,1.800000000000000000e+01,7.000000000000000000e+00,0.000000000000000000e+00,1.600000000000000000e+01,-1.000000000000000000e+00,-3.936767578125000000e-01,7.568359375000000000e-02,7.881469726562500000e-01,4.669189453125000000e-01
-7.000000000000000000e+00,-1.500000000000000000e+01,-3.500000000000000000e+01,-1.100000000000000000e+01,0.000000000000000000e+00,7.000000000000000000e+00,-1.200000000000000000e+01,1.000000000000000000e+00,-3.931884765625000000e-01,7.604980468750000000e-02,7.879028320312500000e-01,4.677734375000000000e-01
1.200000000000000000e+01,1.000000000000000000e+01,1.000000000000000000e+01,1.500000000000000000e+01,-4.000000000000000000e+00,-5.000000000000000000e+00,1.900000000000000000e+01,2.000000000000000000e+00,-3.931884765625000000e-01,7.604980468750000000e-02,7.879028320312500000e-01,4.677734375000000000e-01
-1.200000000000000000e+01,-2.000000000000000000e+00,1.800000000000000000e+01,1.000000000000000000e+00,1.000000000000000000e+00,2.000000000000000000e+00,1.000000000000000000e+01,2.000000000000000000e+00,-3.931884765625000000e-01,7.604980468750000000e-02,7.879028320312500000e-01,4.677734375000000000e-01
3.000000000000000000e+00,-4.000000000000000000e+00,2.100000000000000000e+01,3.000000000000000000e+00,0.000000000000000000e+00,-1.000000000000000000e+00,-4.000000000000000000e+00,-4.000000000000000000e+00,-3.931884765625000000e-01,7.604980468750000000e-02,7.879028320312500000e-01,4.677734375000000000e-01
-2.000000000000000000e+00,3.000000000000000000e+00,-1.900000000000000000e+01,-1.400000000000000000e+01,1.000000000000000000e+00,1.000000000000000000e+00,3.000000000000000000e+00,4.000000000000000000e+00,-3.930664062500000000e-01,7.623291015625000000e-02,7.874755859375000000e-01,4.685668945312500000e-01
-3.000000000000000000e+00,-4.000000000000000000e+00,-2.900000000000000000e+01,4.000000000000000000e+00,-4.000000000000000000e+00,-7.000000000000000000e+00,-1.000000000000000000e+01,-6.000000000000000000e+00,-3.930664062500000000e-01,7.623291015625000000e-02,7.874755859375000000e-01,4.685668945312500000e-01
1.000000000000000000e+01,1.000000000000000000e+01,3.300000000000000000e+01,6.000000000000000000e+00,-2.000000000000000000e+00,5.000000000000000000e+00,1.300000000000000000e+01,2.000000000000000000e+00,-3.930664062500000000e-01,7.623291015625000000e-02,7.874755859375000000e-01,4.685668945312500000e-01
-3.000000000000000000e+00,-1.100000000000000000e+01,-4.300000000000000000e+01,-7.000000000000000000e+00,0.000000000000000000e+00,0.000000000000000000e+00,7.000000000000000000e+00,0.000000000000000000e+00,-3.930664062500000000e-01,7.623291015625000000e-02,7.874755859375000000e-01,4.685668945312500000e-01
-3.000000000000000000e+00,1.000000000000000000e+00,1.500000000000000000e+01,-4.000000000000000000e+00,2.000000000000000000e+00,2.000000000000000000e+00,1.100000000000000000e+01,1.000000000000000000e+00,-3.928222656250000000e-01,7.641601562500000000e-02,7.871704101562500000e-01,4.691772460937500000e-01
-2.000000000000000000e+00,0.000000000000000000e+00,-1.400000000000000000e+01,-5.000000000000000000e+00,2.000000000000000000e+00,2.000000000000000000e+00,-6.000000000000000000e+00,-1.000000000000000000e+00,-3.928222656250000000e-01,7.641601562500000000e-02,7.871704101562500000e-01,4.691772460937500000e-01
-2.000000000000000000e+00,-3.000000000000000000e+00,-1.000000000000000000e+00,-1.200000000000000000e+01,-1.000000000000000000e+01,-1.300000000000000000e+01,-8.000000000000000000e+00,-2.000000000000000000e+00,-3.928222656250000000e-01,7.641601562500000000e-02,7.871704101562500000e-01,4.691772460937500000e-01
0.000000000000000000e+00,4.000000000000000000e+00,3.100000000000000000e+01,6.000000000000000000e+00,1.000000000000000000e+00,-3.000000000000000000e+00,0.000000000000000000e+00,-1.000000000000000000e+00,-3.928222656250000000e-01,7.641601562500000000e-02,7.871704101562500000e-01,4.691772460937500000e-01
9.000000000000000000e+00,-5.000000000000000000e+00,-7.800000000000000000e+01,-2.000000000000000000e+01,-2.000000000000000000e+00,1.700000000000000000e+01,2.500000000000000000e+01,-3.000000000000000000e+00,-3.928222656250000000e-01,7.629394531250000000e-02,7.867431640625000000e-01,4.699096679687500000e-01
5.000000000000000000e+00,-9.000000000000000000e+00,1.900000000000000000e+01,4.000000000000000000e+00,3.000000000000000000e+00,4.000000000000000000e+00,-6.000000000000000000e+00,0.000000000000000000e+00,-3.928222656250000000e-01,7.629394531250000000e-02,7.867431640625000000e-01,4.699096679687500000e-01
-5.000000000000000000e+00,4.000000000000000000e+00,1.400000000000000000e+01,9.000000000000000000e+00,-3.000000000000000000e+00,-6.000000000000000000e+00,-1.400000000000000000e+01,-2.000000000000000000e+00,-3.928222656250000000e-01,7.629394531250000000e-02,7.867431640625000000e-01,4.699096679687500000e-01
-8.000000000000000000e+00,-5.000000000000000000e+00,-3.000000000000000000e+00,-7.000000000000000000e+00,1.000000000000000000e+00,6.000000000000000000e+00,1.100000000000000000e+01,0.000000000000000000e+00,-3.928222656250000000e-01,7.629394531250000000e-02,7.867431640625000000e-01,4.699096679687500000e-01
-5.000000000000000000e+00,4.000000000000000000e+00,-6.000000000000000000e+00,-2.000000000000000000e+00,-4.000000000000000000e+00,-2.000000000000000000e+01,-1.100000000000000000e+01,-4.000000000000000000e+00,-3.925781250000000000e-01,7.672119140625000000e-02,7.864379882812500000e-01,4.705810546875000000e-01
2.600000000000000000e+01,1.200000000000000000e+01,-2.000000000000000000e+00,1.500000000000000000e+01,1.200000000000000000e+01,1.300000000000000000e+01,1.000000000000000000e+01,7.000000000000000000e+00,-3.925781250000000000e-01,7.672119140625000000e-02,7.864379882812500000e-01,4.705810546875000000e-01
1.600000000000000000e+01,-5.000000000000000000e+00,1.600000000000000000e+01,-1.000000000000000000e+00,2.000000000000000000e+00,2.000000000000000000e+00,-1.000000000000000000e+00,0.000000000000000000e+00,-3.925781250000000000e-01,7.672119140625000000e-02,7.864379882812500000e-01,4.705810546875000000e-01
-7.000000000000000000e+00,6.000000000000000000e+00,-2.000000000000000000e+00,-1.100000000000000000e+01,-1.000000000000000000e+01,-6.000000000000000000e+00,-6.000000000000000000e+00,1.000000000000000000e+00,-3.925781250000000000e-01,7.672119140625000000e-02,7.864379882812500000e-01,4.705810546875000000e-01
0.000000000000000000e+00,-1.000000000000000000e+01,-1.400000000000000000e+01,-3.000000000000000000e+00,-6.000000000000000000e+00,-9.000000000000000000e+00,-1.300000000000000000e+01,-2.000000000000000000e+00,-3.925781250000000000e-01,7.690429687500000000e-02,7.860107421875000000e-01,4.712524414062500000e-01
-4.000000000000000000e+00,-2.000000000000000000e+00,-3.200000000000000000e+01,-6.000000000000000000e+00,-5.000000000000000000e+00,-6.000000000000000000e+00,4.000000000000000000e+00,0.000000000000000000e+00,-3.925781250000000000e-01,7.690429687500000000e-02,7.860107421875000000e-01,4.712524414062500000e-01
-2.000000000000000000e+00,1.400000000000000000e+01,8.400000000000000000e+01,1.400000000000000000e+01,6.000000000000000000e+00,5.000000000000000000e+00,4.000000000000000000e+00,0.000000000000000000e+00,-3.925781250000000000e-01,7.690429687500000000e-02,7.860107421875000000e-01,4.712524414062500000e-01
4.000000000000000000e+00,-6.000000000000000000e+00,-1.300000000000000000e+01,6.000000000000000000e+00,3.000000000000000000e+00,7.000000000000000000e+00,6.000000000000000000e+00,4.000000000000000000e+00,-3.925781250000000000e-01,7.690429687500000000e-02,7.860107421875000000e-01,4.712524414062500000e-01
-8.000000000000000000e+00,-6.000000000000000000e+00,-4.400000000000000000e+01,-9.000000000000000000e+00,0.000000000000000000e+00,-2.000000000000000000e+00,-7.000000000000000000e+00,-5.000000000000000000e+00,-3.923950195312500000e-01,7.714843750000000000e-02,7.856445312500000000e-01,4.719238281250000000e-01
-1.400000000000000000e+01,-2.000000000000000000e+00,-1.100000000000000000e+01,0.000000000000000000e+00,-4.000000000000000000e+00,-7.000000000000000000e+00,-1.000000000000000000e+01,-2.000000000000000000e+00,-3.923950195312500000e-01,7.714843750000000000e-02,7.856445312500000000e-01,4.719238281250000000e-01
2.500000000000000000e+01,5.000000000000000000e+00,-1.700000000000000000e+01,6.000000000000000000e+00,5.000000000000000000e+00,-4.000000000000000000e+00,-1.800000000000000000e+01,2.000000000000000000e+00,-3.923950195312500000e-01,7.714843750000000000e-02,7.856445312500000000e-01,4.719238281250000000e-01
-3.000000000000000000e+00,-3.000000000000000000e+00,-2.600000000000000000e+01,-1.600000000000000000e+01,-2.000000000000000000e+00,6.000000000000000000e+00,2.400000000000000000e+01,-4.000000000000000000e+00,-3.923950195312500000e-01,7.714843750000000000e-02,7.856445312500000000e-01,4.719238281250000000e-01
2.000000000000000000e+00,5.000000000000000000e+00,6.300000000000000000e+01,2.100000000000000000e+01,-2.000000000000000000e+00,0.000000000000000000e+00,-7.000000000000000000e+00,1.000000000000000000e+00,-3.921508789062500000e-01,7.720947265625000000e-02,7.854003906250000000e-01,4.725952148437500000e-01
7.000000000000000000e+00,-3.000000000000000000e+00,-1.500000000000000000e+01,-2.600000000000000000e+01,-8.000000000000000000e+00,0.000000000000000000e+00,1.700000000000000000e+01,0.000000000000000000e+00,-3.921508789062500000e-01,7.720947265625000000e-02,7.854003906250000000e-01,4.725952148437500000e-01
-2.000000000000000000e+01,-5.000000000000000000e+00,-1.100000000000000000e+01,6.000000000000000000e+00,3.000000000000000000e+00,9.000000000000000000e+00,6.000000000000000000e+00,-5.000000000000000000e+00,-3.921508789062500000e-01,7.720947265625000000e-02,7.854003906250000000e-01,4.725952148437500000e-01
1.200000000000000000e+01,7.000000000000000000e+00,1.600000000000000000e+01,9.000000000000000000e+00,5.000000000000000000e+00,-6.000000000000000000e+00,-1.300000000000000000e+01,3.000000000000000000e+00,-3.921508789062500000e-01,7.720947265625000000e-02,7.854003906250000000e-01,4.725952148437500000e-01
-3.000000000000000000e+00,-8.000000000000000000e+00,2.600000000000000000e+01,4.000000000000000000e+00,0.000000000000000000e+00,-2.000000000000000000e+00,-7.000000000000000000e+00,-4.000000000000000000e+00,-3.918457031250000000e-01,7.702636718750000000e-02,7.852783203125000000e-01,4.730834960937500000e-01
-8.000000000000000000e+00,4.000000000000000000e+00,5.000000000000000000e+00,-5.000000000000000000e+00,0.000000000000000000e+00,-6.000000000000000000e+00,2.100000000000000000e+01,1.000000000000000000e+00,-3.918457031250000000e-01,7.702636718750000000e-02,7.852783203125000000e-01,4.730834960937500000e-01
-1.100000000000000000e+01,0.000000000000000000e+00,3.000000000000000000e+00,6.000000000000000000e+00,-5.000000000000000000e+00,3.000000000000000000e+00,-5.000000000000000000e+00,1.000000000000000000e+00,-3.918457031250000000e-01,7.702636718750000000e-02,7.852783203125000000e-01,4.730834960937500000e-01
0.000000000000000000e+00,1.000000000000000000e+00,1.200000000000000000e+01,-1.000000000000000000e+00,4.000000000000000000e+00,0.000000000000000000e+00,-1.200000000000000000e+01,-2.000000000000000000e+00,-3.918457031250000000e-01,7.702636718750000000e-02,7.852783203125000000e-01,4.730834960937500000e-01
-5.000000000000000000e+00,7.000000000000000000e+00,3.300000000000000000e+01,1.200000000000000000e+01,1.000000000000000000e+00,5.000000000000000000e+00,8.000000000000000000e+00,-1.000000000000000000e+00,-3.916015625000000000e-01,7.678222656250000000e-02,7.850341796875000000e-01,4.736938476562500000e-01
-1.000000000000000000e+00,-2.300000000000000000e+01,-2.500000000000000000e+01,0.000000000000000000e+00,-2.000000000000000000e+00,-3.000000000000000000e+00,-1.400000000000000000e+01,-6.000000000000000000e+00,-3.916015625000000000e-01,7.678222656250000000e-02,7.850341796875000000e-01,4.736938476562500000e-01
-1.000000000000000000e+01,-2.000000000000000000e+00,3.000000000000000000e+00,-2.000000000000000000e+00,8.000000000000000000e+00,-1.000000000000000000e+00,4.000000000000000000e+00,1.000000000000000000e+00,-3.916015625000000000e-01,7.678222656250000000e-02,7.850341796875000000e-01,4.736938476562500000e-01
-1.200000000000000000e+01,-9.000000000000000000e+00,1.700000000000000000e+01,5.000000000000000000e+00,-4.000000000000000000e+00,3.000000000000000000e+00,1.000000000000000000e+01,-2.000000000000000000e+00,-3.916015625000000000e-01,7.678222656250000000e-02,7.850341796875000000e-01,4.736938476562500000e-01
4.000000000000000000e+00,5.000000000000000000e+00,-5.000000000000000000e+00,-4.000000000000000000e+00,-1.000000000000000000e+00,-3.000000000000000000e+00,1.300000000000000000e+01,2.000000000000000000e+00,-3.913574218750000000e-01,7.678222656250000000e-02,7.847900390625000000e-01,4.743652343750000000e-01
4.000000000000000000e+00,3.000000000000000000e+00,2.900000000000000000e+01,3.000000000000000000e+00,3.000000000000000000e+00,3.000000000000000000e+00,-2.800000000000000000e+01,-2.000000000000000000e+00,-3.913574218750000000e-01,7.678222656250000000e-02,7.847900390625000000e-01,4.743652343750000000e-01
-4.000000000000000000e+00,6.000000000000000000e+00,-1.200000000000000000e+01,0.000000000000000000e+00,0.000000000000000000e+00,-3.000000000000000000e+00,-2.300000000000000000e+01,-1.000000000000000000e+00,-3.913574218750000000e-01,7.678222656250000000e-02,7.847900390625000000e-01,4.743652343750000000e-01
-6.000000000000000000e+00,-2.000000000000000000e+00,1.600000000000000000e+01,-1.400000000000000000e+01,-7.000000000000000000e+00,-5.000000000000000000e+00,-1.000000000000000000e+01,0.000000000000000000e+00,-3.913574218750000000e-01,7.678222656250000000e-02,7.847900390625000000e-01,4.743652343750000000e-01
-1.400000000000000000e+01,-8.000000000000000000e+00,-2.500000000000000000e+01,-1.900000000000000000e+01,-5.000000000000000000e+00,-3.000000000000000000e+00,-2.200000000000000000e+01,-4.000000000000000000e+00,-3.912963867187500000e-01,7.678222656250000000e-02,7.845458984375000000e-01,4.747924804687500000e-01
4.000000000000000000e+01,9.000000000000000000e+00,6.000000000000000000e+00,7.000000000000000000e+00,9.000000000000000000e+00,5.000000000000000000e+00,1.000000000000000000e+01,3.000000000000000000e+00,-3.912963867187500000e-01,7.678222656250000000e-02,7.845458984375000000e-01,4.747924804687500000e-01
-4.600000000000000000e+01,-1.100000000000000000e+01,-2.100000000000000000e+01,-5.000000000000000000e+00,-1.000000000000000000e+01,-7.000000000000000000e+00,-4.000000000000000000e+00,-1.300000000000000000e+01,-3.912963867187500000e-01,7.678222656250000000e-02,7.845458984375000000e-01,4.747924804687500000e-01
-9.000000000000000000e+00,6.000000000000000000e+00,5.100000000000000000e+01,2.400000000000000000e+01,9.000000000000000000e+00,3.000000000000000000e+00,-8.000000000000000000e+00,-3.000000000000000000e+00,-3.912963867187500000e-01,7.678222656250000000e-02,7.845458984375000000e-01,4.747924804687500000e-01
2.000000000000000000e+00,2.000000000000000000e+00,2.800000000000000000e+01,1.700000000000000000e+01,-3.000000000000000000e+00,-1.000000000000000000e+01,3.000000000000000000e+00,-3.000000000000000000e+00,-3.915405273437500000e-01,7.617187500000000000e-02,7.841796875000000000e-01,4.752807617187500000e-01
-6.000000000000000000e+00,3.000000000000000000e+00,2.000000000000000000e+00,-1.300000000000000000e+01,-2.000000000000000000e+00,1.000000000000000000e+00,-6.000000000000000000e+00,-1.000000000000000000e+00,-3.915405273437500000e-01,7.617187500000000000e-02,7.841796875000000000e-01,4.752807617187500000e-01
1.800000000000000000e+01,-6.000000000000000000e+00,-2.100000000000000000e+01,0.000000000000000000e+00,1.000000000000000000e+00,5.000000000000000000e+00,8.000000000000000000e+00,2.000000000000000000e+00,-3.915405273437500000e-01,7.617187500000000000e-02,7.841796875000000000e-01,4.752807617187500000e-01
3.000000000000000000e+00,-2.000000000000000000e+00,-1.600000000000000000e+01,-1.200000000000000000e+01,-8.000000000000000000e+00,-3.000000000000000000e+00,1.000000000000000000e+00,-4.000000000000000000e+00,-3.915405273437500000e-01,7.617187500000000000e-02,7.841796875000000000e-01,4.752807617187500000e-01
-1.000000000000000000e+01,-4.000000000000000000e+00,-1.400000000000000000e+01,-7.000000000000000000e+00,4.000000000000000000e+00,3.000000000000000000e+00,6.000000000000000000e+00,1.000000000000000000e+00,-3.913574218750000000e-01,7.629394531250000000e-02,7.837524414062500000e-01,4.760742187500000000e-01
-7.000000000000000000e+00,4.000000000000000000e+00,5.600000000000000000e+01,1.600000000000000000e+01,-1.000000000000000000e+00,-3.000000000000000000e+00,-1.400000000000000000e+01,-2.000000000000000000e+00,-3.913574218750000000e-01,7.629394531250000000e-02,7.837524414062500000e-01,4.760742187500000000e-01
4.000000000000000000e+00,-1.000000000000000000e+01,-3.200000000000000000e+01,-2.500000000000000000e+01,-5.000000000000000000e+00,-1.100000000000000000e+01,1.000000000000000000e+00,2.000000000000000000e+00,-3.913574218750000000e-01,7.629394531250000000e-02,7.837524414062500000e-01,4.760742187500000000e-01
-4.000000000000000000e+00,1.000000000000000000e+00,-5.000000000000000000e+00,6.000000000000000000e+00,2.000000000000000000e+00,1.300000000000000000e+01,1.700000000000000000e+01,4.000000000000000000e+00,-3.913574218750000000e-01,7.629394531250000000e-02,7.837524414062500000e-01,4.760742187500000000e-01
7.000000000000000000e+00,-1.000000000000000000e+00,-1.500000000000000000e+01,0.000000000000000000e+00,-2.000000000000000000e+00,0.000000000000000000e+00,1.000000000000000000e+00,0.000000000000000000e+00,-3.911743164062500000e-01,7.647705078125000000e-02,7.835693359375000000e-01,4.765625000000000000e-01
-8.000000000000000000e+00,1.200000000000000000e+01,2.400000000000000000e+01,7.000000000000000000e+00,-2.000000000000000000e+00,-1.000000000000000000e+00,-2.000000000000000000e+00,-3.000000000000000000e+00,-3.911743164062500000e-01,7.647705078125000000e-02,7.835693359375000000e-01,4.765625000000000000e-01
2.000000000000000000e+00,-7.000000000000000000e+00,-1.300000000000000000e+01,-2.000000000000000000e+00,6.000000000000000000e+00,3.000000000000000000e+00,2.800000000000000000e+01,4.000000000000000000e+00,-3.911743164062500000e-01,7.647705078125000000e-02,7.835693359375000000e-01,4.765625000000000000e-01
-8.000000000000000000e+00,-1.600000000000000000e+01,-6.000000000000000000e+00,-7.000000000000000000e+00,-9.000000000000000000e+00,-5.000000000000000000e+00,5.000000000000000000e+00,-4.000000000000000000e+00,-3.911743164062500000e-01,7.647705078125000000e-02,7.835693359375000000e-01,4.765625000000000000e-01
0.000000000000000000e+00,-1.000000000000000000e+00,2.500000000000000000e+01,1.200000000000000000e+01,2.000000000000000000e+00,-1.000000000000000000e+00,-5.000000000000000000e+00,-5.000000000000000000e+00,-3.912963867187500000e-01,7.647705078125000000e-02,7.833862304687500000e-01,4.766845703125000000e-01
-5.000000000000000000e+00,3.000000000000000000e+00,-2.000000000000000000e+01,1.000000000000000000e+00,7.000000000000000000e+00,1.000000000000000000e+00,4.000000000000000000e+00,-1.000000000000000000e+00,-3.912963867187500000e-01,7.647705078125000000e-02,7.833862304687500000e-01,4.766845703125000000e-01
-7.000000000000000000e+00,7.000000000000000000e+00,1.600000000000000000e+01,4.000000000000000000e+00,-1.000000000000000000e+00,0.000000000000000000e+00,0.000000000000000000e+00,-2.000000000000000000e+00,-3.912963867187500000e-01,7.647705078125000000e-02,7.833862304687500000e-01,4.766845703125000000e-01
1.500000000000000000e+01,1.100000000000000000e+01,3.400000000000000000e+01,1.200000000000000000e+01,3.000000000000000000e+00,0.000000000000000000e+00,1.000000000000000000e+00,4.000000000000000000e+00,-3.912963867187500000e-01,7.647705078125000000e-02,7.833862304687500000e-01,4.766845703125000000e-01
-2.300000000000000000e+01,-3.000000000000000000e+00,-9.000000000000000000e+01,-2.600000000000000000e+01,-3.000000000000000000e+00,-3.000000000000000000e+00,-2.300000000000000000e+01,-7.000000000000000000e+00,-3.913574218750000000e-01,7.641601562500000000e-02,7.833862304687500000e-01,4.767456054687500000e-01
-9.000000000000000000e+00,-2.400000000000000000e+01,-6.300000000000000000e+01,-3.300000000000000000e+01,-1.000000000000000000e+01,2.000000000000000000e+00,6.000000000000000000e+00,-3.000000000000000000e+00,-3.913574218750000000e-01,7.641601562500000000e-02,7.833862304687500000e-01,4.767456054687500000e-01
7.000000000000000000e+00,2.000000000000000000e+00,1.500000000000000000e+01,4.000000000000000000e+00,6.000000000000000000e+00,4.000000000000000000e+00,-1.000000000000000000e+00,1.000000000000000000e+00,-3.913574218750000000e-01,7.641601562500000000e-02,7.833862304687500000e-01,4.767456054687500000e-01
-5.000000000000000000e+00,9.000000000000000000e+00,6.300000000000000000e+01,2.500000000000000000e+01,-3.000000000000000000e+00,-9.000000000000000000e+00,-2.300000000000000000e+01,-8.000000000000000000e+00,-3.913574218750000000e-01,7.641601562500000000e-02,7.833862304687500000e-01,4.767456054687500000e-01
-3.000000000000000000e+00,-8.000000000000000000e+00,-2.800000000000000000e+01,-1.100000000000000000e+01,-4.000000000000000000e+00,-5.000000000000000000e+00,-4.000000000000000000e+00,0.000000000000000000e+00,-3.916625976562500000e-01,7.653808593750000000e-02,7.832031250000000000e-01,4.767456054687500000e-01
1.900000000000000000e+01,1.200000000000000000e+01,-5.000000000000000000e+00,0.000000000000000000e+00,3.000000000000000000e+00,2.000000000000000000e+00,3.000000000000000000e+00,5.000000000000000000e+00,-3.916625976562500000e-01,7.653808593750000000e-02,7.832031250000000000e-01,4.767456054687500000e-01
-2.200000000000000000e+01,-7.000000000000000000e+00,-4.000000000000000000e+00,0.000000000000000000e+00,-1.100000000000000000e+01,-5.000000000000000000e+00,-1.300000000000000000e+01,-8.000000000000000000e+00,-3.916625976562500000e-01,7.653808593750000000e-02,7.832031250000000000e-01,4.767456054687500000e-01
4.000000000000000000e+00,-6.000000000000000000e+00,-2.700000000000000000e+01,-1.000000000000000000e+01,1.000000000000000000e+00,-8.000000000000000000e+00,-8.000000000000000000e+00,0.000000000000000000e+00,-3.916625976562500000e-01,7.653808593750000000e-02,7.832031250000000000e-01,4.767456054687500000e-01
-1.000000000000000000e+00,2.000000000000000000e+00,3.200000000000000000e+01,1.700000000000000000e+01,1.000000000000000000e+01,1.700000000000000000e+01,4.300000000000000000e+01,5.000000000000000000e+00,-3.918457031250000000e-01,7.623291015625000000e-02,7.830200195312500000e-01,4.769287109375000000e-01
1.100000000000000000e+01,-3.000000000000000000e+00,-2.000000000000000000e+00,-5.000000000000000000e+00,-8.000000000000000000e+00,-8.000000000000000000e+00,-8.000000000000000000e+00,0.000000000000000000e+00,-3.918457031250000000e-01,7.623291015625000000e-02,7.830200195312500000e-01,4.769287109375000000e-01
-2.000000000000000000e+00,-3.000000000000000000e+00,1.200000000000000000e+01,5.000000000000000000e+00,-4.000000000000000000e+00,-1.800000000000000000e+01,1.100000000000000000e+01,-1.000000000000000000e+00,-3.918457031250000000e-01,7.623291015625000000e-02,7.830200195312500000e-01,4.769287109375000000e-01
-3.000000000000000000e+00,3.000000000000000000e+00,-1.500000000000000000e+01,-7.000000000000000000e+00,-3.000000000000000000e+00,1.000000000000000000e+01,-2.600000000000000000e+01,-8.000000000000000000e+00,-3.918457031250000000e-01,7.623291015625000000e-02,7.830200195312500000e-01,4.769287109375000000e-01
2.000000000000000000e+00,3.000000000000000000e+00,2.800000000000000000e+01,1.100000000000000000e+01,2.000000000000000000e+00,1.000000000000000000e+00,1.000000000000000000e+00,1.000000000000000000e+00,-3.919067382812500000e-01,7.617187500000000000e-02,7.830200195312500000e-01,4.769287109375000000e-01
-9.000000000000000000e+00,-7.000000000000000000e+00,-3.300000000000000000e+01,-1.600000000000000000e+01,-3.000000000000000000e+00,-2.000000000000000000e+00,-3.000000000000000000e+00,-1.000000000000000000e+00,-3.919067382812500000e-01,7.617187500000000000e-02,7.830200195312500000e-01,4.769287109375000000e-01
2.000000000000000000e+00,5.000000000000000000e+00,3.200000000000000000e+01,9.000000000000000000e+00,-2.000000000000000000e+00,-9.000000000000000000e+00,0.000000000000000000e+00,-1.000000000000000000e+00,-3.919067382812500000e-01,7.617187500000000000e-02,7.830200195312500000e-01,4.769287109375000000e-01
-3.000000000000000000e+00,-1.000000000000000000e+01,-3.800000000000000000e+01,-1.600000000000000000e+01,-4.000000000000000000e+00,0.000000000000000000e+00,2.000000000000000000e+00,-1.000000000000000000e+00,-3.919067382812500000e-01,7.617187500000000000e-02,7.830200195312500000e-01,4.769287109375000000e-01
9.000000000000000000e+00,3.000000000000000000e+00,2.700000000000000000e+01,-9.000000000000000000e+00,-9.000000000000000000e+00,-7.000000000000000000e+00,-1.300000000000000000e+01,-2.000000000000000000e+00,-3.922119140625000000e-01,7.629394531250000000e-02,7.828979492187500000e-01,4.768066406250000000e-01
-3.400000000000000000e+01,-6.000000000000000000e+00,-1.300000000000000000e+01,1.000000000000000000e+00,0.000000000000000000e+00,2.000000000000000000e+00,1.400000000000000000e+01,-1.000000000000000000e+00,-3.922119140625000000e-01,7.629394531250000000e-02,7.828979492187500000e-01,4.768066406250000000e-01
0.000000000000000000e+00,-1.000000000000000000e+00,1.100000000000000000e+01,-3.000000000000000000e+00,-6.000000000000000000e+00,-3.000000000000000000e+00,-3.900000000000000000e+01,-8.000000000000000000e+00,-3.922119140625000000e-01,7.629394531250000000e-02,7.828979492187500000e-01,4.768066406250000000e-01
-5.000000000000000000e+00,-3.000000000000000000e+00,-4.800000000000000000e+01,-1.300000000000000000e+01,-1.000000000000000000e+00,0.000000000000000000e+00,5.000000000000000000e+00,1.000000000000000000e+00,-3.922119140625000000e-01,7.629394531250000000e-02,7.828979492187500000e-01,4.768066406250000000e-01
