4.000000000000000000e+00,-2.500000000000000000e+01,-7.000000000000000000e+00,3.000000000000000000e+00,2.000000000000000000e+00,1.900000000000000000e+01,2.200000000000000000e+01,2.200000000000000000e+01,3.192138671875000000e-02,4.190673828125000000e-01,-2.943115234375000000e-01,8.582763671875000000e-01
-1.100000000000000000e+01,2.800000000000000000e+01,-1.000000000000000000e+00,-2.000000000000000000e+01,-2.000000000000000000e+00,0.000000000000000000e+00,-7.000000000000000000e+00,2.000000000000000000e+00,3.192138671875000000e-02,4.190673828125000000e-01,-2.943115234375000000e-01,8.582763671875000000e-01
-1.200000000000000000e+01,9.000000000000000000e+00,1.300000000000000000e+01,5.100000000000000000e+01,8.000000000000000000e+00,9.000000000000000000e+00,7.000000000000000000e+00,-1.000000000000000000e+00,3.192138671875000000e-02,4.190673828125000000e-01,-2.943115234375000000e-01,8.582763671875000000e-01
-6.000000000000000000e+00,-6.000000000000000000e+00,-1.100000000000000000e+01,-2.300000000000000000e+01,-3.000000000000000000e+00,-7.000000000000000000e+00,-8.000000000000000000e+00,-5.000000000000000000e+00,3.192138671875000000e-02,4.190673828125000000e-01,-2.943115234375000000e-01,8.582763671875000000e-01
3.000000000000000000e+00,-2.000000000000000000e+00,1.000000000000000000e+00,-6.000000000000000000e+00,-6.000000000000000000e+00,-2.700000000000000000e+01,-1.800000000000000000e+01,-7.000000000000000000e+00,3.161621093750000000e-02,4.191894531250000000e-01,-2.940673828125000000e-01,8.583374023437500000e-01
1.000000000000000000e+00,1.100000000000000000e+01,2.200000000000000000e+01,1.700000000000000000e+01,9.000000000000000000e+00,1.800000000000000000e+01,1.700000000000000000e+01,-4.000000000000000000e+00,3.161621093750000000e-02,4.191894531250000000e-01,-2.940673828125000000e-01,8.583374023437500000e-01
-3.000000000000000000e+00,-7.000000000000000000e+00,-1.600000000000000000e+01,-1.500000000000000000e+01,-3.000000000000000000e+00,0.000000000000000000e+00,-4.000000000000000000e+00,3.000000000000000000e+00,3.161621093750000000e-02,4.191894531250000000e-01,-2.940673828125000000e-01,8.583374023437500000e-01
-1.000000000000000000e+00,-4.000000000000000000e+00,0.000000000000000000e+00,-2.000000000000000000e+00,-5.000000000000000000e+00,5.000000000000000000e+00,1.900000000000000000e+01,3.000000000000000000e+00,3.161621093750000000e-02,4.191894531250000000e-01,-2.940673828125000000e-01,8.583374023437500000e-01
-9.000000000000000000e+00,2.000000000000000000e+00,1.000000000000000000e+00,1.200000000000000000e+01,-2.000000000000000000e+00,-8.000000000000000000e+00,-3.400000000000000000e+01,-9.000000000000000000e+00,3.149414062500000000e-02,4.190673828125000000e-01,-2.939453125000000000e-01,8.583984375000000000e-01
1.000000000000000000e+01,7.000000000000000000e+00,3.000000000000000000e+00,-7.000000000000000000e+00,-2.000000000000000000e+00,-6.000000000000000000e+00,-4.000000000000000000e+00,1.000000000000000000e+00,3.149414062500000000e-02,4.190673828125000000e-01,-2.939453125000000000e-01,8.583984375000000000e-01
2.000000000000000000e+00,-1.400000000000000000e+01,-1.700000000000000000e+01,-3.000000000000000000e+00,-3.000000000000000000e+00,-6.000000000000000000e+00,-2.000000000000000000e+00,2.000000000000000000e+00,3.149414062500000000e-02,4.190673828125000000e-01,-2.939453125000000000e-01,8.583984375000000000e-01
-4.000000000000000000e+00,-1.700000000000000000e+01,7.000000000000000000e+00,-4.000000000000000000e+00,4.000000000000000000e+00,2.000000000000000000e+01,1.900000000000000000e+01,4.000000000000000000e+00,3.149414062500000000e-02,4.190673828125000000e-01,-2.939453125000000000e-01,8.583984375000000000e-01
-2.000000000000000000e+00,1.300000000000000000e+01,-8.000000000000000000e+00,1.000000000000000000e+00,-4.000000000000000000e+00,-9.000000000000000000e+00,-4.000000000000000000e+00,-1.000000000000000000e+01,3.137207031250000000e-02,4.189453125000000000e-01,-2.938232421875000000e-01,8.585205078125000000e-01
8.000000000000000000e+00,4.000000000000000000e+00,-1.000000000000000000e+00,-2.000000000000000000e+00,-1.000000000000000000e+00,-1.300000000000000000e+01,-1.200000000000000000e+01,5.000000000000000000e+00,3.137207031250000000e-02,4.189453125000000000e-01,-2.938232421875000000e-01,8.585205078125000000e-01
4.000000000000000000e+01,-5.000000000000000000e+00,5.000000000000000000e+00,-1.500000000000000000e+01,1.000000000000000000e+00,1.000000000000000000e+01,1.600000000000000000e+01,1.100000000000000000e+01,3.137207031250000000e-02,4.189453125000000000e-01,-2.938232421875000000e-01,8.585205078125000000e-01
-8.500000000000000000e+01,-2.000000000000000000e+00,1.000000000000000000e+00,1.000000000000000000e+01,2.000000000000000000e+00,1.000000000000000000e+00,-4.000000000000000000e+00,-1.300000000000000000e+01,3.137207031250000000e-02,4.189453125000000000e-01,-2.938232421875000000e-01,8.585205078125000000e-01
-4.000000000000000000e+00,-2.600000000000000000e+01,-1.000000000000000000e+01,-1.800000000000000000e+01,-5.000000000000000000e+00,-7.000000000000000000e+00,-4.000000000000000000e+00,3.000000000000000000e+00,3.161621093750000000e-02,4.191284179687500000e-01,-2.935791015625000000e-01,8.585815429687500000e-01
-1.600000000000000000e+01,2.000000000000000000e+01,-6.000000000000000000e+00,3.800000000000000000e+01,1.000000000000000000e+00,-5.000000000000000000e+00,-8.000000000000000000e+00,-1.200000000000000000e+01,3.161621093750000000e-02,4.191284179687500000e-01,-2.935791015625000000e-01,8.585815429687500000e-01
1.700000000000000000e+01,0.000000000000000000e+00,6.000000000000000000e+00,-3.200000000000000000e+01,-6.000000000000000000e+00,-1.200000000000000000e+01,-8.000000000000000000e+00,-1.200000000000000000e+01,3.161621093750000000e-02,4.191284179687500000e-01,-2.935791015625000000e-01,8.585815429687500000e-01
5.300000000000000000e+01,4.000000000000000000e+00,4.000000000000000000e+00,9.000000000000000000e+00,3.000000000000000000e+00,6.000000000000000000e+00,5.000000000000000000e+00,1.400000000000000000e+01,3.161621093750000000e-02,4.191284179687500000e-01,-2.935791015625000000e-01,8.585815429687500000e-01
-3.400000000000000000e+01,-9.000000000000000000e+00,-1.000000000000000000e+01,0.000000000000000000e+00,-1.000000000000000000e+00,-2.000000000000000000e+00,-1.000000000000000000e+00,-4.000000000000000000e+00,3.161621093750000000e-02,4.194335937500000000e-01,-2.928466796875000000e-01,8.586425781250000000e-01
4.000000000000000000e+00,-4.000000000000000000e+00,3.000000000000000000e+00,-1.300000000000000000e+01,2.000000000000000000e+00,-4.000000000000000000e+00,-3.000000000000000000e+00,4.000000000000000000e+00,3.161621093750000000e-02,4.194335937500000000e-01,-2.928466796875000000e-01,8.586425781250000000e-01
-3.300000000000000000e+01,-9.000000000000000000e+00,-7.000000000000000000e+00,1.000000000000000000e+00,-1.000000000000000000e+00,5.000000000000000000e+00,4.000000000000000000e+00,-2.000000000000000000e+00,3.161621093750000000e-02,4.194335937500000000e-01,-2.928466796875000000e-01,8.586425781250000000e-01
7.000000000000000000e+00,5.000000000000000000e+00,-1.300000000000000000e+01,-9.000000000000000000e+00,3.000000000000000000e+00,8.000000000000000000e+00,6.000000000000000000e+00,-2.000000000000000000e+00,3.161621093750000000e-02,4.194335937500000000e-01,-2.928466796875000000e-01,8.586425781250000000e-01
-2.000000000000000000e+00,-1.000000000000000000e+00,1.000000000000000000e+01,1.800000000000000000e+01,1.000000000000000000e+00,-1.400000000000000000e+01,-1.100000000000000000e+01,-7.000000000000000000e+00,3.076171875000000000e-02,4.196166992187500000e-01,-2.916870117187500000e-01,8.589477539062500000e-01
3.600000000000000000e+01,-3.100000000000000000e+01,-1.200000000000000000e+01,-1.800000000000000000e+01,-6.000000000000000000e+00,-1.000000000000000000e+01,-1.200000000000000000e+01,5.000000000000000000e+00,3.076171875000000000e-02,4.196166992187500000e-01,-2.916870117187500000e-01,8.589477539062500000e-01
1.900000000000000000e+01,-4.000000000000000000e+00,-1.000000000000000000e+00,1.800000000000000000e+01,-2.000000000000000000e+00,0.000000000000000000e+00,1.100000000000000000e+01,1.000000000000000000e+00,3.076171875000000000e-02,4.196166992187500000e-01,-2.916870117187500000e-01,8.589477539062500000e-01
1.000000000000000000e+01,-7.000000000000000000e+00,-2.000000000000000000e+01,-1.500000000000000000e+01,-3.000000000000000000e+00,2.000000000000000000e+00,5.000000000000000000e+00,7.000000000000000000e+00,3.076171875000000000e-02,4.196166992187500000e-01,-2.916870117187500000e-01,8.589477539062500000e-01
-4.800000000000000000e+01,9.000000000000000000e+00,2.500000000000000000e+01,2.200000000000000000e+01,-5.000000000000000000e+00,-8.000000000000000000e+00,0.000000000000000000e+00,-1.800000000000000000e+01,2.874755859375000000e-02,4.201660156250000000e-01,-2.904663085937500000e-01,8.591918945312500000e-01
0.000000000000000000e+00,1.700000000000000000e+01,1.100000000000000000e+01,-7.000000000000000000e+00,4.000000000000000000e+00,3.100000000000000000e+01,1.500000000000000000e+01,3.000000000000000000e+00,2.874755859375000000e-02,4.201660156250000000e-01,-2.904663085937500000e-01,8.591918945312500000e-01
-1.100000000000000000e+01,0.000000000000000000e+00,-1.700000000000000000e+01,8.000000000000000000e+00,1.000000000000000000e+00,1.000000000000000000e+00,-2.000000000000000000e+00,-4.000000000000000000e+00,2.874755859375000000e-02,4.201660156250000000e-01,-2.904663085937500000e-01,8.591918945312500000e-01
-3.000000000000000000e+00,1.400000000000000000e+01,5.200000000000000000e+01,4.300000000000000000e+01,0.000000000000000000e+00,-8.000000000000000000e+00,-5.000000000000000000e+00,2.000000000000000000e+00,2.874755859375000000e-02,4.201660156250000000e-01,-2.904663085937500000e-01,8.591918945312500000e-01
2.200000000000000000e+01,2.000000000000000000e+00,-5.200000000000000000e+01,-2.900000000000000000e+01,-4.000000000000000000e+00,-9.000000000000000000e+00,-9.000000000000000000e+00,0.000000000000000000e+00,2.770996093750000000e-02,4.209594726562500000e-01,-2.890625000000000000e-01,8.593139648437500000e-01
-8.000000000000000000e+00,-9.000000000000000000e+00,-5.000000000000000000e+00,-1.100000000000000000e+01,-1.000000000000000000e+01,-1.200000000000000000e+01,-3.000000000000000000e+00,-4.000000000000000000e+00,2.770996093750000000e-02,4.209594726562500000e-01,-2.890625000000000000e-01,8.593139648437500000e-01
-1.800000000000000000e+01,-1.000000000000000000e+01,1.800000000000000000e+01,1.000000000000000000e+00,2.000000000000000000e+00,2.000000000000000000e+00,0.000000000000000000e+00,0.000000000000000000e+00,2.770996093750000000e-02,4.209594726562500000e-01,-2.890625000000000000e-01,8.593139648437500000e-01
-4.000000000000000000e+00,-2.600000000000000000e+01,-5.000000000000000000e+01,-1.900000000000000000e+01,-2.000000000000000000e+00,2.000000000000000000e+00,1.000000000000000000e+00,0.000000000000000000e+00,2.770996093750000000e-02,4.209594726562500000e-01,-2.890625000000000000e-01,8.593139648437500000e-01
1.700000000000000000e+01,-7.000000000000000000e+00,4.700000000000000000e+01,3.100000000000000000e+01,8.000000000000000000e+00,3.000000000000000000e+00,2.000000000000000000e+00,5.000000000000000000e+00,2.667236328125000000e-02,4.218750000000000000e-01,-2.877197265625000000e-01,8.593750000000000000e-01
-9.000000000000000000e+00,-3.300000000000000000e+01,0.000000000000000000e+00,-8.000000000000000000e+00,-4.000000000000000000e+00,-1.000000000000000000e+00,2.000000000000000000e+00,0.000000000000000000e+00,2.667236328125000000e-02,4.218750000000000000e-01,-2.877197265625000000e-01,8.593750000000000000e-01
2.000000000000000000e+00,-5.000000000000000000e+00,-2.300000000000000000e+01,-8.000000000000000000e+00,7.000000000000000000e+00,-1.300000000000000000e+01,-1.200000000000000000e+01,0.000000000000000000e+00,2.667236328125000000e-02,4.218750000000000000e-01,-2.877197265625000000e-01,8.593750000000000000e-01
1.000000000000000000e+01,1.800000000000000000e+01,8.000000000000000000e+00,-1.600000000000000000e+01,-1.000000000000000000e+00,-1.000000000000000000e+00,2.000000000000000000e+00,1.000000000000000000e+00,2.667236328125000000e-02,4.218750000000000000e-01,-2.877197265625000000e-01,8.593750000000000000e-01
1.600000000000000000e+01,-1.100000000000000000e+01,1.000000000000000000e+01,1.600000000000000000e+01,6.000000000000000000e+00,7.000000000000000000e+00,3.000000000000000000e+00,3.000000000000000000e+00,2.514648437500000000e-02,4.224853515625000000e-01,-2.865600585937500000e-01,8.594970703125000000e-01
-4.000000000000000000e+00,5.200000000000000000e+01,-1.900000000000000000e+01,-2.700000000000000000e+01,-1.000000000000000000e+01,-2.500000000000000000e+01,-8.000000000000000000e+00,-9.000000000000000000e+00,2.514648437500000000e-02,4.224853515625000000e-01,-2.865600585937500000e-01,8.594970703125000000e-01
2.600000000000000000e+01,6.000000000000000000e+00,1.800000000000000000e+01,2.200000000000000000e+01,1.000000000000000000e+00,1.600000000000000000e+01,1.700000000000000000e+01,1.100000000000000000e+01,2.514648437500000000e-02,4.224853515625000000e-01,-2.865600585937500000e-01,8.594970703125000000e-01
-2.500000000000000000e+01,-1.900000000000000000e+01,1.500000000000000000e+01,-1.000000000000000000e+00,1.000000000000000000e+00,-2.000000000000000000e+00,-2.100000000000000000e+01,-5.000000000000000000e+00,2.514648437500000000e-02,4.224853515625000000e-01,-2.865600585937500000e-01,8.594970703125000000e-01
-9.000000000000000000e+00,8.000000000000000000e+00,-3.500000000000000000e+01,-5.200000000000000000e+01,-1.000000000000000000e+01,-9.000000000000000000e+00,-8.000000000000000000e+00,-1.700000000000000000e+01,2.355957031250000000e-02,4.227905273437500000e-01,-2.856445312500000000e-01,8.596801757812500000e-01
2.100000000000000000e+01,1.700000000000000000e+01,0.000000000000000000e+00,2.300000000000000000e+01,-1.000000000000000000e+00,-1.100000000000000000e+01,-5.000000000000000000e+00,2.300000000000000000e+01,2.355957031250000000e-02,4.227905273437500000e-01,-2.856445312500000000e-01,8.596801757812500000e-01
-3.900000000000000000e+01,-1.500000000000000000e+01,1.000000000000000000e+01,-9.000000000000000000e+00,-6.000000000000000000e+00,-1.500000000000000000e+01,-1.000000000000000000e+01,-2.000000000000000000e+00,2.355957031250000000e-02,4.227905273437500000e-01,-2.856445312500000000e-01,8.596801757812500000e-01
1.200000000000000000e+01,2.100000000000000000e+01,-1.600000000000000000e+01,4.000000000000000000e+00,1.000000000000000000e+00,5.000000000000000000e+00,9.000000000000000000e+00,6.000000000000000000e+00,2.355957031250000000e-02,4.227905273437500000e-01,-2.856445312500000000e-01,8.596801757812500000e-01
2.500000000000000000e+01,8.000000000000000000e+00,1.600000000000000000e+01,1.200000000000000000e+01,-1.000000000000000000e+00,6.000000000000000000e+00,7.000000000000000000e+00,9.000000000000000000e+00,2.307128906250000000e-02,4.233398437500000000e-01,-2.848510742187500000e-01,8.596801757812500000e-01
-9.000000000000000000e+00,-7.000000000000000000e+00,-1.600000000000000000e+01,3.300000000000000000e+01,6.000000000000000000e+00,1.000000000000000000e+00,-4.000000000000000000e+00,-1.500000000000000000e+01,2.307128906250000000e-02,4.233398437500000000e-01,-2.848510742187500000e-01,8.596801757812500000e-01
5.000000000000000000e+00,-3.000000000000000000e+00,2.000000000000000000e+00,-4.100000000000000000e+01,-6.000000000000000000e+00,-9.000000000000000000e+00,-9.000000000000000000e+00,-5.000000000000000000e+00,2.307128906250000000e-02,4.233398437500000000e-01,-2.848510742187500000e-01,8.596801757812500000e-01
6.000000000000000000e+00,-8.000000000000000000e+00,5.900000000000000000e+01,2.900000000000000000e+01,7.000000000000000000e+00,9.000000000000000000e+00,6.000000000000000000e+00,2.000000000000000000e+00,2.307128906250000000e-02,4.233398437500000000e-01,-2.848510742187500000e-01,8.596801757812500000e-01
4.000000000000000000e+00,4.000000000000000000e+00,-1.000000000000000000e+00,-1.600000000000000000e+01,-3.000000000000000000e+00,3.000000000000000000e+00,-2.000000000000000000e+00,0.000000000000000000e+00,2.362060546875000000e-02,4.241333007812500000e-01,-2.825927734375000000e-01,8.600463867187500000e-01
-2.000000000000000000e+00,-1.500000000000000000e+01,-5.300000000000000000e+01,-2.200000000000000000e+01,2.000000000000000000e+00,3.000000000000000000e+00,1.000000000000000000e+00,-4.000000000000000000e+00,2.362060546875000000e-02,4.241333007812500000e-01,-2.825927734375000000e-01,8.600463867187500000e-01
0.000000000000000000e+00,1.800000000000000000e+01,9.000000000000000000e+00,-2.000000000000000000e+00,-4.000000000000000000e+00,7.000000000000000000e+00,4.000000000000000000e+00,2.000000000000000000e+00,2.362060546875000000e-02,4.241333007812500000e-01,-2.825927734375000000e-01,8.600463867187500000e-01
-1.000000000000000000e+00,-1.100000000000000000e+01,-1.100000000000000000e+01,-4.000000000000000000e+00,2.000000000000000000e+00,-1.000000000000000000e+00,3.000000000000000000e+00,-6.000000000000000000e+00,2.362060546875000000e-02,4.241333007812500000e-01,-2.825927734375000000e-01,8.600463867187500000e-01
2.000000000000000000e+01,9.000000000000000000e+00,4.800000000000000000e+01,3.100000000000000000e+01,0.000000000000000000e+00,-1.000000000000000000e+01,-8.000000000000000000e+00,3.000000000000000000e+00,2.264404296875000000e-02,4.248046875000000000e-01,-2.804565429687500000e-01,8.604125976562500000e-01
-3.800000000000000000e+01,-1.700000000000000000e+01,-2.900000000000000000e+01,-2.000000000000000000e+00,5.000000000000000000e+00,3.000000000000000000e+00,0.000000000000000000e+00,-4.000000000000000000e+00,2.264404296875000000e-02,4.248046875000000000e-01,-2.804565429687500000e-01,8.604125976562500000e-01
6.000000000000000000e+00,-1.000000000000000000e+00,5.000000000000000000e+00,6.200000000000000000e+01,1.300000000000000000e+01,1.000000000000000000e+00,-2.000000000000000000e+00,4.000000000000000000e+00,2.264404296875000000e-02,4.248046875000000000e-01,-2.804565429687500000e-01,8.604125976562500000e-01
3.900000000000000000e+01,2.000000000000000000e+01,1.600000000000000000e+01,-7.100000000000000000e+01,-1.000000000000000000e+01,3.800000000000000000e+01,4.300000000000000000e+01,1.200000000000000000e+01,2.264404296875000000e-02,4.248046875000000000e-01,-2.804565429687500000e-01,8.604125976562500000e-01
-4.500000000000000000e+01,-9.000000000000000000e+00,-3.200000000000000000e+01,1.000000000000000000e+00,8.000000000000000000e+00,6.000000000000000000e+00,-1.800000000000000000e+01,-5.000000000000000000e+00,2.130126953125000000e-02,4.252319335937500000e-01,-2.789306640625000000e-01,8.607177734375000000e-01
9.000000000000000000e+00,0.000000000000000000e+00,3.000000000000000000e+00,7.000000000000000000e+00,-1.000000000000000000e+00,5.000000000000000000e+00,-3.000000000000000000e+00,3.000000000000000000e+00,2.130126953125000000e-02,4.252319335937500000e-01,-2.789306640625000000e-01,8.607177734375000000e-01
-1.300000000000000000e+01,-5.000000000000000000e+00,-6.500000000000000000e+01,-1.500000000000000000e+01,-9.000000000000000000e+00,-1.400000000000000000e+01,-9.000000000000000000e+00,-1.000000000000000000e+01,2.130126953125000000e-02,4.252319335937500000e-01,-2.789306640625000000e-01,8.607177734375000000e-01
8.000000000000000000e+00,-3.000000000000000000e+00,-2.000000000000000000e+01,2.900000000000000000e+01,2.000000000000000000e+00,-2.100000000000000000e+01,-1.500000000000000000e+01,-2.000000000000000000e+00,2.130126953125000000e-02,4.252319335937500000e-01,-2.789306640625000000e-01,8.607177734375000000e-01
-1.500000000000000000e+01,1.000000000000000000e+01,-9.000000000000000000e+00,-7.000000000000000000e+00,2.000000000000000000e+00,6.000000000000000000e+00,7.000000000000000000e+00,2.000000000000000000e+00,2.056884765625000000e-02,4.252319335937500000e-01,-2.782592773437500000e-01,8.609619140625000000e-01
-1.000000000000000000e+00,1.400000000000000000e+01,6.000000000000000000e+01,3.300000000000000000e+01,1.000000000000000000e+00,6.000000000000000000e+00,4.000000000000000000e+00,-3.000000000000000000e+00,2.056884765625000000e-02,4.252319335937500000e-01,-2.782592773437500000e-01,8.609619140625000000e-01
-7.000000000000000000e+00,-1.200000000000000000e+01,-2.000000000000000000e+01,-5.100000000000000000e+01,-8.000000000000000000e+00,-4.000000000000000000e+00,-6.000000000000000000e+00,-8.000000000000000000e+00,2.056884765625000000e-02,4.252319335937500000e-01,-2.782592773437500000e-01,8.609619140625000000e-01
-8.000000000000000000e+00,5.000000000000000000e+00,7.000000000000000000e+00,2.500000000000000000e+01,-5.000000000000000000e+00,-1.400000000000000000e+01,-6.000000000000000000e+00,1.000000000000000000e+00,2.056884765625000000e-02,4.252319335937500000e-01,-2.782592773437500000e-01,8.609619140625000000e-01
1.500000000000000000e+01,-1.300000000000000000e+01,-1.200000000000000000e+01,-2.800000000000000000e+01,-4.000000000000000000e+00,3.000000000000000000e+00,8.000000000000000000e+00,2.000000000000000000e+00,2.148437500000000000e-02,4.252319335937500000e-01,-2.775268554687500000e-01,8.612060546875000000e-01
-9.000000000000000000e+00,-2.700000000000000000e+01,2.200000000000000000e+01,2.900000000000000000e+01,5.000000000000000000e+00,-3.000000000000000000e+00,-3.000000000000000000e+00,-2.000000000000000000e+00,2.148437500000000000e-02,4.252319335937500000e-01,-2.775268554687500000e-01,8.612060546875000000e-01
2.000000000000000000e+00,2.500000000000000000e+01,1.900000000000000000e+01,-3.000000000000000000e+00,-5.000000000000000000e+00,3.000000000000000000e+00,7.000000000000000000e+00,-1.000000000000000000e+00,2.148437500000000000e-02,4.252319335937500000e-01,-2.775268554687500000e-01,8.612060546875000000e-01
-8.000000000000000000e+00,-1.100000000000000000e+01,2.200000000000000000e+01,-4.800000000000000000e+01,-1.000000000000000000e+01,-1.000000000000000000e+00,-8.000000000000000000e+00,-9.000000000000000000e+00,2.148437500000000000e-02,4.252319335937500000e-01,-2.775268554687500000e-01,8.612060546875000000e-01
6.000000000000000000e+00,-5.000000000000000000e+00,-2.600000000000000000e+01,1.100000000000000000e+01,0.000000000000000000e+00,0.000000000000000000e+00,5.000000000000000000e+00,3.000000000000000000e+00,2.258300781250000000e-02,4.253540039062500000e-01,-2.763671875000000000e-01,8.615112304687500000e-01
-5.000000000000000000e+00,3.000000000000000000e+00,1.900000000000000000e+01,-1.200000000000000000e+01,-1.000000000000000000e+01,-1.600000000000000000e+01,-2.000000000000000000e+01,-5.000000000000000000e+00,2.258300781250000000e-02,4.253540039062500000e-01,-2.763671875000000000e-01,8.615112304687500000e-01
8.000000000000000000e+00,-6.000000000000000000e+00,-3.000000000000000000e+00,1.500000000000000000e+01,3.000000000000000000e+00,-5.000000000000000000e+00,-5.000000000000000000e+00,-8.000000000000000000e+00,2.258300781250000000e-02,4.253540039062500000e-01,-2.763671875000000000e-01,8.615112304687500000e-01
-1.500000000000000000e+01,-3.000000000000000000e+00,-2.000000000000000000e+01,1.600000000000000000e+01,1.000000000000000000e+00,1.100000000000000000e+01,0.000000000000000000e+00,-5.000000000000000000e+00,2.258300781250000000e-02,4.253540039062500000e-01,-2.763671875000000000e-01,8.615112304687500000e-01
1.000000000000000000e+00,4.000000000000000000e+00,0.000000000000000000e+00,5.000000000000000000e+00,4.000000000000000000e+00,-1.000000000000000000e+01,5.000000000000000000e+00,-3.000000000000000000e+00,2.319335937500000000e-02,4.251708984375000000e-01,-2.752075195312500000e-01,8.618774414062500000e-01
4.000000000000000000e+00,1.200000000000000000e+01,2.000000000000000000e+01,-1.700000000000000000e+01,-6.000000000000000000e+00,1.500000000000000000e+01,2.900000000000000000e+01,-3.000000000000000000e+00,2.319335937500000000e-02,4.251708984375000000e-01,-2.752075195312500000e-01,8.618774414062500000e-01
3.000000000000000000e+00,-1.300000000000000000e+01,-1.100000000000000000e+01,-2.800000000000000000e+01,-2.000000000000000000e+00,-2.000000000000000000e+00,-2.500000000000000000e+01,1.200000000000000000e+01,2.319335937500000000e-02,4.251708984375000000e-01,-2.752075195312500000e-01,8.618774414062500000e-01
-1.800000000000000000e+01,7.000000000000000000e+00,-1.000000000000000000e+01,1.300000000000000000e+01,-1.000000000000000000e+00,-1.100000000000000000e+01,-1.300000000000000000e+01,3.000000000000000000e+00,2.319335937500000000e-02,4.251708984375000000e-01,-2.752075195312500000e-01,8.618774414062500000e-01
2.200000000000000000e+01,1.300000000000000000e+01,2.700000000000000000e+01,-1.600000000000000000e+01,-6.000000000000000000e+00,-2.200000000000000000e+01,-8.000000000000000000e+00,-2.000000000000000000e+00,2.349853515625000000e-02,4.248657226562500000e-01,-2.744750976562500000e-01,8.623046875000000000e-01
1.700000000000000000e+01,-4.000000000000000000e+00,-4.000000000000000000e+00,-2.000000000000000000e+00,5.000000000000000000e+00,2.900000000000000000e+01,2.000000000000000000e+01,-1.200000000000000000e+01,2.349853515625000000e-02,4.248657226562500000e-01,-2.744750976562500000e-01,8.623046875000000000e-01
-3.900000000000000000e+01,-7.000000000000000000e+00,1.400000000000000000e+01,1.700000000000000000e+01,1.000000000000000000e+00,2.000000000000000000e+00,3.000000000000000000e+00,-1.100000000000000000e+01,2.349853515625000000e-02,4.248657226562500000e-01,-2.744750976562500000e-01,8.623046875000000000e-01
-1.000000000000000000e+00,0.000000000000000000e+00,-3.300000000000000000e+01,-1.000000000000000000e+00,-3.000000000000000000e+00,-1.000000000000000000e+01,-3.000000000000000000e+00,-5.000000000000000000e+00,2.349853515625000000e-02,4.248657226562500000e-01,-2.744750976562500000e-01,8.623046875000000000e-01
-9.000000000000000000e+00,-6.000000000000000000e+00,-1.500000000000000000e+01,4.000000000000000000e+00,1.000000000000000000e+00,1.000000000000000000e+00,-6.000000000000000000e+00,0.000000000000000000e+00,2.484130859375000000e-02,4.244995117187500000e-01,-2.741699218750000000e-01,8.625488281250000000e-01
9.000000000000000000e+00,-7.000000000000000000e+00,-1.000000000000000000e+01,-2.500000000000000000e+01,-6.000000000000000000e+00,-1.300000000000000000e+01,-4.000000000000000000e+00,4.000000000000000000e+00,2.484130859375000000e-02,4.244995117187500000e-01,-2.741699218750000000e-01,8.625488281250000000e-01
5.000000000000000000e+00,1.300000000000000000e+01,6.100000000000000000e+01,3.200000000000000000e+01,1.000000000000000000e+00,1.000000000000000000e+01,4.000000000000000000e+00,0.000000000000000000e+00,2.484130859375000000e-02,4.244995117187500000e-01,-2.741699218750000000e-01,8.625488281250000000e-01
-5.000000000000000000e+00,-1.000000000000000000e+01,-2.800000000000000000e+01,-2.900000000000000000e+01,-6.000000000000000000e+00,0.000000000000000000e+00,-2.000000000000000000e+00,0.000000000000000000e+00,2.484130859375000000e-02,4.244995117187500000e-01,-2.741699218750000000e-01,8.625488281250000000e-01
6.000000000000000000e+00,7.000000000000000000e+00,-2.000000000000000000e+00,-1.500000000000000000e+01,-6.000000000000000000e+00,1.000000000000000000e+00,4.000000000000000000e+00,2.000000000000000000e+00,2.655029296875000000e-02,4.243164062500000000e-01,-2.731933593750000000e-01,8.628540039062500000e-01
-1.000000000000000000e+00,1.000000000000000000e+00,2.800000000000000000e+01,7.200000000000000000e+01,7.000000000000000000e+00,2.000000000000000000e+00,-4.000000000000000000e+00,2.000000000000000000e+00,2.655029296875000000e-02,4.243164062500000000e-01,-2.731933593750000000e-01,8.628540039062500000e-01
9.000000000000000000e+00,-7.000000000000000000e+00,-6.700000000000000000e+01,-8.500000000000000000e+01,-1.000000000000000000e+01,9.000000000000000000e+00,6.000000000000000000e+00,1.000000000000000000e+00,2.655029296875000000e-02,4.243164062500000000e-01,-2.731933593750000000e-01,8.628540039062500000e-01
-6.000000000000000000e+00,2.000000000000000000e+00,6.600000000000000000e+01,5.400000000000000000e+01,3.000000000000000000e+00,-1.800000000000000000e+01,-1.000000000000000000e+01,-6.000000000000000000e+00,2.655029296875000000e-02,4.243164062500000000e-01,-2.731933593750000000e-01,8.628540039062500000e-01
8.000000000000000000e+00,-1.000000000000000000e+01,-8.000000000000000000e+00,1.700000000000000000e+01,-3.000000000000000000e+00,7.000000000000000000e+00,3.000000000000000000e+00,1.000000000000000000e+00,2.758789062500000000e-02,4.241943359375000000e-01,-2.723388671875000000e-01,8.631591796875000000e-01
6.000000000000000000e+00,3.500000000000000000e+01,8.000000000000000000e+00,-2.600000000000000000e+01,0.000000000000000000e+00,-7.000000000000000000e+00,-1.400000000000000000e+01,-1.000000000000000000e+00,2.758789062500000000e-02,4.241943359375000000e-01,-2.723388671875000000e-01,8.631591796875000000e-01
-2.000000000000000000e+01,-3.500000000000000000e+01,-6.000000000000000000e+00,2.300000000000000000e+01,1.000000000000000000e+00,-1.500000000000000000e+01,-9.000000000000000000e+00,-2.000000000000000000e+01,2.758789062500000000e-02,4.241943359375000000e-01,-2.723388671875000000e-01,8.631591796875000000e-01
4.000000000000000000e+00,-1.000000000000000000e+01,-3.600000000000000000e+01,-4.000000000000000000e+00,1.000000000000000000e+01,1.300000000000000000e+01,3.100000000000000000e+01,1.900000000000000000e+01,2.758789062500000000e-02,4.241943359375000000e-01,-2.723388671875000000e-01,8.631591796875000000e-01
-2.200000000000000000e+01,-1.500000000000000000e+01,-6.000000000000000000e+00,-2.800000000000000000e+01,-8.000000000000000000e+00,2.000000000000000000e+01,1.600000000000000000e+01,-1.400000000000000000e+01,2.813720703125000000e-02,4.237060546875000000e-01,-2.720336914062500000e-01,8.634643554687500000e-01
1.700000000000000000e+01,1.100000000000000000e+01,-2.500000000000000000e+01,-3.000000000000000000e+00,3.000000000000000000e+00,-2.000000000000000000e+00,-3.200000000000000000e+01,-1.700000000000000000e+01,2.813720703125000000e-02,4.237060546875000000e-01,-2.720336914062500000e-01,8.634643554687500000e-01
4.600000000000000000e+01,1.000000000000000000e+01,2.300000000000000000e+01,1.800000000000000000e+01,3.000000000000000000e+00,2.000000000000000000e+00,2.000000000000000000e+01,4.400000000000000000e+01,2.813720703125000000e-02,4.237060546875000000e-01,-2.720336914062500000e-01,8.634643554687500000e-01
-3.000000000000000000e+01,1.000000000000000000e+01,-4.000000000000000000e+00,-2.000000000000000000e+01,-3.000000000000000000e+00,-1.100000000000000000e+01,7.000000000000000000e+00,5.000000000000000000e+00,2.813720703125000000e-02,4.237060546875000000e-01,-2.720336914062500000e-01,8.634643554687500000e-01
-1.000000000000000000e+01,-1.000000000000000000e+00,-9.000000000000000000e+00,-3.000000000000000000e+00,-5.000000000000000000e+00,-5.000000000000000000e+00,0.000000000000000000e+00,-1.800000000000000000e+01,2.856445312500000000e-02,4.230346679687500000e-01,-2.719726562500000000e-01,8.638305664062500000e-01
7.000000000000000000e+00,-6.000000000000000000e+00,7.100000000000000000e+01,4.400000000000000000e+01,3.000000000000000000e+00,-1.100000000000000000e+01,-2.000000000000000000e+00,8.000000000000000000e+00,2.856445312500000000e-02,4.230346679687500000e-01,-2.719726562500000000e-01,8.638305664062500000e-01
-1.200000000000000000e+01,5.000000000000000000e+00,-3.700000000000000000e+01,-3.000000000000000000e+01,-1.100000000000000000e+01,-6.000000000000000000e+00,-1.500000000000000000e+01,-2.000000000000000000e+01,2.856445312500000000e-02,4.230346679687500000e-01,-2.719726562500000000e-01,8.638305664062500000e-01
-1.000000000000000000e+00,-3.000000000000000000e+00,3.600000000000000000e+01,6.200000000000000000e+01,1.100000000000000000e+01,4.000000000000000000e+00,-1.300000000000000000e+01,-1.400000000000000000e+01,2.856445312500000000e-02,4.230346679687500000e-01,-2.719726562500000000e-01,8.638305664062500000e-01
4.000000000000000000e+00,-1.000000000000000000e+00,-2.600000000000000000e+01,-1.700000000000000000e+01,-4.000000000000000000e+00,-5.000000000000000000e+00,1.000000000000000000e+00,1.400000000000000000e+01,2.941894531250000000e-02,4.229125976562500000e-01,-2.708740234375000000e-01,8.641967773437500000e-01
2.000000000000000000e+00,-1.400000000000000000e+01,-8.000000000000000000e+00,-2.600000000000000000e+01,-5.000000000000000000e+00,1.000000000000000000e+00,8.000000000000000000e+00,1.200000000000000000e+01,2.941894531250000000e-02,4.229125976562500000e-01,-2.708740234375000000e-01,8.641967773437500000e-01
4.000000000000000000e+00,-5.000000000000000000e+00,3.800000000000000000e+01,4.200000000000000000e+01,3.000000000000000000e+00,1.000000000000000000e+00,0.000000000000000000e+00,-1.100000000000000000e+01,2.941894531250000000e-02,4.229125976562500000e-01,-2.708740234375000000e-01,8.641967773437500000e-01
7.000000000000000000e+00,4.000000000000000000e+00,-5.300000000000000000e+01,-4.300000000000000000e+01,-8.000000000000000000e+00,2.000000000000000000e+00,-1.000000000000000000e+00,6.000000000000000000e+00,2.941894531250000000e-02,4.229125976562500000e-01,-2.708740234375000000e-01,8.641967773437500000e-01
-5.000000000000000000e+00,-9.000000000000000000e+00,-2.000000000000000000e+00,3.700000000000000000e+01,-5.000000000000000000e+00,-5.000000000000000000e+00,-1.300000000000000000e+01,-4.000000000000000000e+00,2.880859375000000000e-02,4.234619140625000000e-01,-2.691040039062500000e-01,8.645019531250000000e-01
-1.700000000000000000e+01,-6.000000000000000000e+00,-1.400000000000000000e+01,-5.200000000000000000e+01,-3.000000000000000000e+00,-8.000000000000000000e+00,-7.000000000000000000e+00,-1.200000000000000000e+01,2.880859375000000000e-02,4.234619140625000000e-01,-2.691040039062500000e-01,8.645019531250000000e-01
-4.000000000000000000e+00,1.300000000000000000e+01,2.900000000000000000e+01,9.000000000000000000e+00,0.000000000000000000e+00,1.600000000000000000e+01,1.400000000000000000e+01,9.000000000000000000e+00,2.880859375000000000e-02,4.234619140625000000e-01,-2.691040039062500000e-01,8.645019531250000000e-01
-2.000000000000000000e+00,-2.000000000000000000e+00,-4.600000000000000000e+01,-3.800000000000000000e+01,-8.000000000000000000e+00,-1.500000000000000000e+01,-1.700000000000000000e+01,-1.100000000000000000e+01,2.880859375000000000e-02,4.234619140625000000e-01,-2.691040039062500000e-01,8.645019531250000000e-01
7.000000000000000000e+00,9.000000000000000000e+00,3.800000000000000000e+01,3.000000000000000000e+01,1.000000000000000000e+00,-8.000000000000000000e+00,-1.000000000000000000e+01,-2.000000000000000000e+00,2.813720703125000000e-02,4.239501953125000000e-01,-2.682495117187500000e-01,8.645629882812500000e-01
2.100000000000000000e+01,-3.000000000000000000e+00,-2.800000000000000000e+01,-1.100000000000000000e+01,-4.000000000000000000e+00,1.500000000000000000e+01,2.200000000000000000e+01,2.200000000000000000e+01,2.813720703125000000e-02,4.239501953125000000e-01,-2.682495117187500000e-01,8.645629882812500000e-01
-4.500000000000000000e+01,1.200000000000000000e+01,3.800000000000000000e+01,1.300000000000000000e+01,2.000000000000000000e+00,-1.000000000000000000e+00,-2.000000000000000000e+00,-1.900000000000000000e+01,2.813720703125000000e-02,4.239501953125000000e-01,-2.682495117187500000e-01,8.645629882812500000e-01
2.000000000000000000e+01,8.000000000000000000e+00,-4.800000000000000000e+01,1.400000000000000000e+01,7.000000000000000000e+00,7.000000000000000000e+00,-4.000000000000000000e+00,5.000000000000000000e+00,2.813720703125000000e-02,4.239501953125000000e-01,-2.682495117187500000e-01,8.645629882812500000e-01
-2.900000000000000000e+01,3.000000000000000000e+00,2.800000000000000000e+01,-1.600000000000000000e+01,-5.000000000000000000e+00,-8.000000000000000000e+00,-1.400000000000000000e+01,-5.000000000000000000e+00,2.917480468750000000e-02,4.241333007812500000e-01,-2.682495117187500000e-01,8.644409179687500000e-01
1.600000000000000000e+01,-2.100000000000000000e+01,3.000000000000000000e+00,2.400000000000000000e+01,4.000000000000000000e+00,-1.400000000000000000e+01,-5.000000000000000000e+00,2.000000000000000000e+00,2.917480468750000000e-02,4.241333007812500000e-01,-2.682495117187500000e-01,8.644409179687500000e-01
1.400000000000000000e+01,-1.200000000000000000e+01,-3.100000000000000000e+01,-3.900000000000000000e+01,-1.300000000000000000e+01,-1.700000000000000000e+01,-1.000000000000000000e+01,6.000000000000000000e+00,2.917480468750000000e-02,4.241333007812500000e-01,-2.682495117187500000e-01,8.644409179687500000e-01
-3.900000000000000000e+01,-2.000000000000000000e+01,-1.400000000000000000e+01,3.000000000000000000e+01,4.000000000000000000e+00,1.400000000000000000e+01,-1.000000000000000000e+00,-1.600000000000000000e+01,2.917480468750000000e-02,4.241333007812500000e-01,-2.682495117187500000e-01,8.644409179687500000e-01
-1.100000000000000000e+01,1.000000000000000000e+00,6.000000000000000000e+00,-2.000000000000000000e+01,-3.000000000000000000e+00,-4.000000000000000000e+00,-1.000000000000000000e+00,0.000000000000000000e+00,2.996826171875000000e-02,4.243164062500000000e-01,-2.680053710937500000e-01,8.643798828125000000e-01
-1.900000000000000000e+01,-7.000000000000000000e+00,-1.400000000000000000e+01,-4.000000000000000000e+00,2.000000000000000000e+00,7.000000000000000000e+00,1.200000000000000000e+01,-1.000000000000000000e+00,2.996826171875000000e-02,4.243164062500000000e-01,-2.680053710937500000e-01,8.643798828125000000e-01
1.300000000000000000e+01,3.000000000000000000e+00,-3.200000000000000000e+01,-2.000000000000000000e+00,-3.000000000000000000e+00,-1.000000000000000000e+01,-3.000000000000000000e+00,-2.000000000000000000e+00,2.996826171875000000e-02,4.243164062500000000e-01,-2.680053710937500000e-01,8.643798828125000000e-01
1.200000000000000000e+01,-1.800000000000000000e+01,1.700000000000000000e+01,2.600000000000000000e+01,-1.000000000000000000e+00,-1.300000000000000000e+01,-9.000000000000000000e+00,-4.000000000000000000e+00,2.996826171875000000e-02,4.243164062500000000e-01,-2.680053710937500000e-01,8.643798828125000000e-01
1.600000000000000000e+01,8.000000000000000000e+00,2.400000000000000000e+01,-3.200000000000000000e+01,-4.000000000000000000e+00,5.000000000000000000e+00,6.000000000000000000e+00,8.000000000000000000e+00,3.021240234375000000e-02,4.246826171875000000e-01,-2.672119140625000000e-01,8.644409179687500000e-01
-1.200000000000000000e+01,-4.300000000000000000e+01,-1.800000000000000000e+01,-1.100000000000000000e+01,-5.000000000000000000e+00,-1.000000000000000000e+00,-2.000000000000000000e+00,-8.000000000000000000e+00,3.021240234375000000e-02,4.246826171875000000e-01,-2.672119140625000000e-01,8.644409179687500000e-01
1.300000000000000000e+01,5.600000000000000000e+01,-1.900000000000000000e+01,-9.000000000000000000e+00,1.000000000000000000e+00,2.000000000000000000e+00,-1.000000000000000000e+00,-3.000000000000000000e+00,3.021240234375000000e-02,4.246826171875000000e-01,-2.672119140625000000e-01,8.644409179687500000e-01
0.000000000000000000e+00,-6.000000000000000000e+00,2.800000000000000000e+01,1.800000000000000000e+01,1.000000000000000000e+00,0.000000000000000000e+00,-1.000000000000000000e+00,-1.000000000000000000e+00,3.021240234375000000e-02,4.246826171875000000e-01,-2.672119140625000000e-01,8.644409179687500000e-01
0.000000000000000000e+00,-2.500000000000000000e+01,-1.600000000000000000e+01,7.000000000000000000e+00,9.000000000000000000e+00,9.000000000000000000e+00,8.000000000000000000e+00,-2.000000000000000000e+00,2.929687500000000000e-02,4.249877929687500000e-01,-2.664794921875000000e-01,8.645629882812500000e-01
-5.000000000000000000e+00,-4.000000000000000000e+00,-1.600000000000000000e+01,-2.800000000000000000e+01,-1.100000000000000000e+01,-1.300000000000000000e+01,-2.400000000000000000e+01,-5.000000000000000000e+00,2.929687500000000000e-02,4.249877929687500000e-01,-2.664794921875000000e-01,8.645629882812500000e-01
1.000000000000000000e+00,0.000000000000000000e+00,2.100000000000000000e+01,3.100000000000000000e+01,9.000000000000000000e+00,7.000000000000000000e+00,1.500000000000000000e+01,1.300000000000000000e+01,2.929687500000000000e-02,4.249877929687500000e-01,-2.664794921875000000e-01,8.645629882812500000e-01
0.000000000000000000e+00,2.000000000000000000e+01,2.100000000000000000e+01,-1.500000000000000000e+01,1.000000000000000000e+00,2.700000000000000000e+01,2.600000000000000000e+01,1.000000000000000000e+01,2.929687500000000000e-02,4.249877929687500000e-01,-2.664794921875000000e-01,8.645629882812500000e-01
4.300000000000000000e+01,1.900000000000000000e+01,-9.000000000000000000e+00,4.000000000000000000e+00,3.000000000000000000e+00,-2.000000000000000000e+00,-6.000000000000000000e+00,-2.000000000000000000e+00,2.893066406250000000e-02,4.247436523437500000e-01,-2.669677734375000000e-01,8.645629882812500000e-01
-4.000000000000000000e+01,9.000000000000000000e+00,1.400000000000000000e+01,1.200000000000000000e+01,-5.000000000000000000e+00,-2.200000000000000000e+01,-1.000000000000000000e+00,-1.000000000000000000e+01,2.893066406250000000e-02,4.247436523437500000e-01,-2.669677734375000000e-01,8.645629882812500000e-01
0.000000000000000000e+00,-1.600000000000000000e+01,-2.500000000000000000e+01,-9.000000000000000000e+00,-1.000000000000000000e+00,1.700000000000000000e+01,1.700000000000000000e+01,3.000000000000000000e+00,2.893066406250000000e-02,4.247436523437500000e-01,-2.669677734375000000e-01,8.645629882812500000e-01
1.000000000000000000e+01,1.400000000000000000e+01,7.200000000000000000e+01,-3.000000000000000000e+00,-9.000000000000000000e+00,-4.000000000000000000e+00,-1.500000000000000000e+01,6.000000000000000000e+00,2.893066406250000000e-02,4.247436523437500000e-01,-2.669677734375000000e-01,8.645629882812500000e-01
-1.000000000000000000e+01,-2.000000000000000000e+01,-4.800000000000000000e+01,-3.000000000000000000e+00,4.000000000000000000e+00,1.000000000000000000e+00,5.000000000000000000e+00,-1.500000000000000000e+01,2.941894531250000000e-02,4.243774414062500000e-01,-2.676391601562500000e-01,8.645019531250000000e-01
1.700000000000000000e+01,3.900000000000000000e+01,-1.000000000000000000e+00,0.000000000000000000e+00,0.000000000000000000e+00,5.000000000000000000e+00,-5.000000000000000000e+00,1.000000000000000000e+00,2.941894531250000000e-02,4.243774414062500000e-01,-2.676391601562500000e-01,8.645019531250000000e-01
-3.000000000000000000e+01,-2.500000000000000000e+01,-2.000000000000000000e+01,-1.900000000000000000e+01,2.000000000000000000e+00,-5.000000000000000000e+00,-3.000000000000000000e+00,-4.000000000000000000e+00,2.941894531250000000e-02,4.243774414062500000e-01,-2.676391601562500000e-01,8.645019531250000000e-01
1.100000000000000000e+01,-1.200000000000000000e+01,5.900000000000000000e+01,5.200000000000000000e+01,-3.000000000000000000e+00,-1.300000000000000000e+01,-4.000000000000000000e+00,8.000000000000000000e+00,2.941894531250000000e-02,4.243774414062500000e-01,-2.676391601562500000e-01,8.645019531250000000e-01
-6.000000000000000000e+00,1.400000000000000000e+01,3.000000000000000000e+01,-1.900000000000000000e+01,0.000000000000000000e+00,-2.000000000000000000e+00,-3.000000000000000000e+00,6.000000000000000000e+00,2.947998046875000000e-02,4.244995117187500000e-01,-2.675781250000000000e-01,8.644409179687500000e-01
4.000000000000000000e+00,3.400000000000000000e+01,-7.000000000000000000e+00,-1.000000000000000000e+00,-2.000000000000000000e+00,2.000000000000000000e+00,1.000000000000000000e+00,-4.000000000000000000e+00,2.947998046875000000e-02,4.244995117187500000e-01,-2.675781250000000000e-01,8.644409179687500000e-01
4.000000000000000000e+00,6.600000000000000000e+01,7.000000000000000000e+00,3.200000000000000000e+01,8.000000000000000000e+00,-2.000000000000000000e+00,-5.000000000000000000e+00,-3.000000000000000000e+00,2.947998046875000000e-02,4.244995117187500000e-01,-2.675781250000000000e-01,8.644409179687500000e-01
4.000000000000000000e+00,2.500000000000000000e+01,-3.000000000000000000e+00,-2.700000000000000000e+01,-2.000000000000000000e+00,4.000000000000000000e+00,4.000000000000000000e+00,-1.000000000000000000e+00,2.947998046875000000e-02,4.244995117187500000e-01,-2.675781250000000000e-01,8.644409179687500000e-01
-1.000000000000000000e+00,1.000000000000000000e+01,2.600000000000000000e+01,5.400000000000000000e+01,7.000000000000000000e+00,2.000000000000000000e+00,-2.000000000000000000e+00,4.000000000000000000e+00,2.911376953125000000e-02,4.244995117187500000e-01,-2.672119140625000000e-01,8.645629882812500000e-01
-1.600000000000000000e+01,-4.800000000000000000e+01,-4.700000000000000000e+01,-3.600000000000000000e+01,-9.000000000000000000e+00,2.000000000000000000e+00,3.000000000000000000e+00,-1.000000000000000000e+00,2.911376953125000000e-02,4.244995117187500000e-01,-2.672119140625000000e-01,8.645629882812500000e-01
1.000000000000000000e+01,-4.100000000000000000e+01,1.300000000000000000e+01,8.000000000000000000e+00,2.000000000000000000e+00,5.000000000000000000e+00,-1.000000000000000000e+00,4.000000000000000000e+00,2.911376953125000000e-02,4.244995117187500000e-01,-2.672119140625000000e-01,8.645629882812500000e-01
-1.000000000000000000e+00,-5.000000000000000000e+00,-2.100000000000000000e+01,-2.300000000000000000e+01,0.000000000000000000e+00,-1.400000000000000000e+01,-1.100000000000000000e+01,-6.000000000000000000e+00,2.911376953125000000e-02,4.244995117187500000e-01,-2.672119140625000000e-01,8.645629882812500000e-01
0.000000000000000000e+00,-3.300000000000000000e+01,-5.000000000000000000e+00,2.200000000000000000e+01,-2.000000000000000000e+00,-5.000000000000000000e+00,-1.300000000000000000e+01,-1.000000000000000000e+00,2.832031250000000000e-02,4.239501953125000000e-01,-2.673950195312500000e-01,8.648071289062500000e-01
1.000000000000000000e+01,-4.000000000000000000e+00,1.500000000000000000e+01,-1.300000000000000000e+01,4.000000000000000000e+00,9.000000000000000000e+00,1.900000000000000000e+01,1.500000000000000000e+01,2.832031250000000000e-02,4.239501953125000000e-01,-2.673950195312500000e-01,8.648071289062500000e-01
-1.500000000000000000e+01,-3.100000000000000000e+01,-8.000000000000000000e+00,-1.000000000000000000e+00,-2.000000000000000000e+00,2.000000000000000000e+00,1.600000000000000000e+01,-2.000000000000000000e+01,2.832031250000000000e-02,4.239501953125000000e-01,-2.673950195312500000e-01,8.648071289062500000e-01
-8.000000000000000000e+00,-7.000000000000000000e+00,-2.600000000000000000e+01,-1.800000000000000000e+01,-3.000000000000000000e+00,1.000000000000000000e+00,4.000000000000000000e+00,0.000000000000000000e+00,2.832031250000000000e-02,4.239501953125000000e-01,-2.673950195312500000e-01,8.648071289062500000e-01
-1.000000000000000000e+01,-3.000000000000000000e+00,4.000000000000000000e+00,-1.500000000000000000e+01,-3.000000000000000000e+00,-7.000000000000000000e+00,-1.000000000000000000e+01,4.000000000000000000e+00,2.838134765625000000e-02,4.230346679687500000e-01,-2.677612304687500000e-01,8.651123046875000000e-01
-4.000000000000000000e+00,-5.000000000000000000e+00,-3.300000000000000000e+01,7.000000000000000000e+00,3.000000000000000000e+00,0.000000000000000000e+00,-5.000000000000000000e+00,-1.000000000000000000e+00,2.838134765625000000e-02,4.230346679687500000e-01,-2.677612304687500000e-01,8.651123046875000000e-01
7.000000000000000000e+00,-6.000000000000000000e+00,2.100000000000000000e+01,7.000000000000000000e+00,-2.000000000000000000e+00,-1.000000000000000000e+00,-1.600000000000000000e+01,1.000000000000000000e+01,2.838134765625000000e-02,4.230346679687500000e-01,-2.677612304687500000e-01,8.651123046875000000e-01
6.000000000000000000e+00,0.000000000000000000e+00,2.000000000000000000e+00,-1.900000000000000000e+01,-3.000000000000000000e+00,-8.000000000000000000e+00,3.000000000000000000e+00,-1.200000000000000000e+01,2.838134765625000000e-02,4.230346679687500000e-01,-2.677612304687500000e-01,8.651123046875000000e-01
5.000000000000000000e+00,1.000000000000000000e+01,-2.000000000000000000e+00,-6.000000000000000000e+00,-2.000000000000000000e+00,6.000000000000000000e+00,8.000000000000000000e+00,8.000000000000000000e+00,2.850341796875000000e-02,4.226684570312500000e-01,-2.681274414062500000e-01,8.652343750000000000e-01
-6.000000000000000000e+00,2.000000000000000000e+00,-4.900000000000000000e+01,5.000000000000000000e+00,-4.000000000000000000e+00,-2.000000000000000000e+00,-8.000000000000000000e+00,-1.000000000000000000e+00,2.850341796875000000e-02,4.226684570312500000e-01,-2.681274414062500000e-01,8.652343750000000000e-01
-2.000000000000000000e+00,-7.000000000000000000e+00,8.000000000000000000e+00,-4.000000000000000000e+00,-1.200000000000000000e+01,-9.000000000000000000e+00,1.000000000000000000e+00,-5.000000000000000000e+00,2.850341796875000000e-02,4.226684570312500000e-01,-2.681274414062500000e-01,8.652343750000000000e-01
1.000000000000000000e+00,1.000000000000000000e+00,1.100000000000000000e+01,-1.800000000000000000e+01,3.000000000000000000e+00,0.000000000000000000e+00,-5.000000000000000000e+00,-9.000000000000000000e+00,2.850341796875000000e-02,4.226684570312500000e-01,-2.681274414062500000e-01,8.652343750000000000e-01
2.000000000000000000e+00,3.000000000000000000e+00,-7.000000000000000000e+01,-2.100000000000000000e+01,-5.000000000000000000e+00,2.000000000000000000e+00,3.000000000000000000e+00,8.000000000000000000e+00,2.868652343750000000e-02,4.226684570312500000e-01,-2.678833007812500000e-01,8.652954101562500000e-01
-4.000000000000000000e+00,1.000000000000000000e+00,5.200000000000000000e+01,2.900000000000000000e+01,0.000000000000000000e+00,0.000000000000000000e+00,-3.000000000000000000e+00,-7.000000000000000000e+00,2.868652343750000000e-02,4.226684570312500000e-01,-2.678833007812500000e-01,8.652954101562500000e-01
-4.000000000000000000e+00,-2.800000000000000000e+01,-1.000000000000000000e+00,3.400000000000000000e+01,-1.000000000000000000e+00,-9.000000000000000000e+00,-1.200000000000000000e+01,-9.000000000000000000e+00,2.868652343750000000e-02,4.226684570312500000e-01,-2.678833007812500000e-01,8.652954101562500000e-01
0.000000000000000000e+00,-1.600000000000000000e+01,4.000000000000000000e+00,-1.500000000000000000e+01,-7.000000000000000000e+00,0.000000000000000000e+00,-2.000000000000000000e+00,7.000000000000000000e+00,2.868652343750000000e-02,4.226684570312500000e-01,-2.678833007812500000e-01,8.652954101562500000e-01
1.000000000000000000e+00,-5.000000000000000000e+00,-2.000000000000000000e+00,-6.000000000000000000e+00,-2.000000000000000000e+00,-3.000000000000000000e+00,1.000000000000000000e+00,-4.000000000000000000e+00,2.789306640625000000e-02,4.228515625000000000e-01,-2.677001953125000000e-01,8.652954101562500000e-01
4.000000000000000000e+00,-7.000000000000000000e+00,1.300000000000000000e+01,1.000000000000000000e+00,-1.000000000000000000e+00,-1.000000000000000000e+00,-1.000000000000000000e+00,-5.000000000000000000e+00,2.789306640625000000e-02,4.228515625000000000e-01,-2.677001953125000000e-01,8.652954101562500000e-01
-1.500000000000000000e+01,7.000000000000000000e+00,-1.900000000000000000e+01,-2.000000000000000000e+00,1.000000000000000000e+00,-7.000000000000000000e+00,-1.500000000000000000e+01,-3.000000000000000000e+00,2.789306640625000000e-02,4.228515625000000000e-01,-2.677001953125000000e-01,8.652954101562500000e-01
1.000000000000000000e+01,1.600000000000000000e+01,-7.000000000000000000e+00,-1.200000000000000000e+01,-2.000000000000000000e+00,1.300000000000000000e+01,-4.000000000000000000e+00,-4.000000000000000000e+00,2.789306640625000000e-02,4.228515625000000000e-01,-2.677001953125000000e-01,8.652954101562500000e-01
0.000000000000000000e+00,1.500000000000000000e+01,1.200000000000000000e+01,-1.000000000000000000e+00,-1.000000000000000000e+00,1.000000000000000000e+00,2.900000000000000000e+01,1.100000000000000000e+01,2.758789062500000000e-02,4.224853515625000000e-01,-2.684326171875000000e-01,8.652343750000000000e-01
6.000000000000000000e+00,1.500000000000000000e+01,9.000000000000000000e+00,2.000000000000000000e+00,4.000000000000000000e+00,1.200000000000000000e+01,1.000000000000000000e+01,-1.000000000000000000e+00,2.758789062500000000e-02,4.224853515625000000e-01,-2.684326171875000000e-01,8.652343750000000000e-01
-2.200000000000000000e+01,-1.000000000000000000e+00,1.000000000000000000e+00,-1.500000000000000000e+01,-2.000000000000000000e+00,-3.000000000000000000e+00,-1.000000000000000000e+00,1.100000000000000000e+01,2.758789062500000000e-02,4.224853515625000000e-01,-2.684326171875000000e-01,8.652343750000000000e-01
1.500000000000000000e+01,-4.000000000000000000e+00,-2.100000000000000000e+01,3.000000000000000000e+00,-7.000000000000000000e+00,-1.200000000000000000e+01,-5.000000000000000000e+00,-2.000000000000000000e+01,2.758789062500000000e-02,4.224853515625000000e-01,-2.684326171875000000e-01,8.652343750000000000e-01
-2.000000000000000000e+00,-5.000000000000000000e+00,2.000000000000000000e+00,-1.000000000000000000e+00,-5.000000000000000000e+00,-1.400000000000000000e+01,-7.000000000000000000e+00,-7.000000000000000000e+00,2.752685546875000000e-02,4.221801757812500000e-01,-2.692871093750000000e-01,8.651123046875000000e-01
-1.200000000000000000e+01,-1.200000000000000000e+01,-2.000000000000000000e+00,-1.700000000000000000e+01,8.000000000000000000e+00,2.700000000000000000e+01,2.000000000000000000e+00,0.000000000000000000e+00,2.752685546875000000e-02,4.221801757812500000e-01,-2.692871093750000000e-01,8.651123046875000000e-01
6.000000000000000000e+00,3.000000000000000000e+00,1.000000000000000000e+00,5.000000000000000000e+00,2.000000000000000000e+00,-4.000000000000000000e+00,-7.000000000000000000e+00,-7.000000000000000000e+00,2.752685546875000000e-02,4.221801757812500000e-01,-2.692871093750000000e-01,8.651123046875000000e-01
-1.000000000000000000e+00,-1.300000000000000000e+01,-1.300000000000000000e+01,-3.000000000000000000e+00,2.000000000000000000e+00,2.000000000000000000e+00,4.000000000000000000e+00,2.000000000000000000e+01,2.752685546875000000e-02,4.221801757812500000e-01,-2.692871093750000000e-01,8.651123046875000000e-01
-1.000000000000000000e+00,-3.700000000000000000e+01,1.500000000000000000e+01,3.700000000000000000e+01,2.000000000000000000e+00,0.000000000000000000e+00,-2.000000000000000000e+00,-5.000000000000000000e+00,2.746582031250000000e-02,4.224853515625000000e-01,-2.694702148437500000e-01,8.649291992187500000e-01
-5.000000000000000000e+00,-4.000000000000000000e+01,1.000000000000000000e+01,-3.000000000000000000e+01,-8.000000000000000000e+00,-7.000000000000000000e+00,4.000000000000000000e+00,4.000000000000000000e+00,2.746582031250000000e-02,4.224853515625000000e-01,-2.694702148437500000e-01,8.649291992187500000e-01
4.000000000000000000e+00,-2.800000000000000000e+01,2.100000000000000000e+01,-8.000000000000000000e+00,2.000000000000000000e+00,-3.000000000000000000e+00,-5.000000000000000000e+00,-8.000000000000000000e+00,2.746582031250000000e-02,4.224853515625000000e-01,-2.694702148437500000e-01,8.649291992187500000e-01
-8.000000000000000000e+00,-8.000000000000000000e+00,-2.400000000000000000e+01,-1.700000000000000000e+01,0.000000000000000000e+00,3.000000000000000000e+00,0.000000000000000000e+00,-2.000000000000000000e+00,2.746582031250000000e-02,4.224853515625000000e-01,-2.694702148437500000e-01,8.649291992187500000e-01
3.000000000000000000e+00,-2.900000000000000000e+01,-3.000000000000000000e+00,2.000000000000000000e+00,-2.000000000000000000e+00,0.000000000000000000e+00,-2.000000000000000000e+00,2.000000000000000000e+00,2.740478515625000000e-02,4.231567382812500000e-01,-2.694091796875000000e-01,8.645629882812500000e-01
6.000000000000000000e+00,5.500000000000000000e+01,2.200000000000000000e+01,2.000000000000000000e+01,0.000000000000000000e+00,-1.000000000000000000e+00,-1.000000000000000000e+00,-3.000000000000000000e+00,2.740478515625000000e-02,4.231567382812500000e-01,-2.694091796875000000e-01,8.645629882812500000e-01
-9.000000000000000000e+00,2.000000000000000000e+00,-2.500000000000000000e+01,-2.500000000000000000e+01,-6.000000000000000000e+00,5.000000000000000000e+00,2.000000000000000000e+00,-2.000000000000000000e+00,2.740478515625000000e-02,4.231567382812500000e-01,-2.694091796875000000e-01,8.645629882812500000e-01
9.000000000000000000e+00,2.600000000000000000e+01,4.000000000000000000e+00,1.400000000000000000e+01,0.000000000000000000e+00,-6.000000000000000000e+00,1.000000000000000000e+00,1.000000000000000000e+00,2.740478515625000000e-02,4.231567382812500000e-01,-2.694091796875000000e-01,8.645629882812500000e-01
3.000000000000000000e+00,3.000000000000000000e+01,7.000000000000000000e+00,-9.000000000000000000e+00,-5.000000000000000000e+00,0.000000000000000000e+00,-6.000000000000000000e+00,-2.000000000000000000e+00,2.685546875000000000e-02,4.233398437500000000e-01,-2.698974609375000000e-01,8.643798828125000000e-01
-6.000000000000000000e+00,-1.000000000000000000e+00,-1.100000000000000000e+01,1.000000000000000000e+00,1.000000000000000000e+00,-1.400000000000000000e+01,-7.000000000000000000e+00,1.000000000000000000e+00,2.685546875000000000e-02,4.233398437500000000e-01,-2.698974609375000000e-01,8.643798828125000000e-01
2.000000000000000000e+00,1.000000000000000000e+01,-1.100000000000000000e+01,-6.000000000000000000e+00,0.000000000000000000e+00,-1.400000000000000000e+01,3.000000000000000000e+00,5.000000000000000000e+00,2.685546875000000000e-02,4.233398437500000000e-01,-2.698974609375000000e-01,8.643798828125000000e-01
-4.000000000000000000e+00,1.500000000000000000e+01,1.600000000000000000e+01,2.700000000000000000e+01,1.000000000000000000e+01,5.300000000000000000e+01,3.100000000000000000e+01,1.500000000000000000e+01,2.685546875000000000e-02,4.233398437500000000e-01,-2.698974609375000000e-01,8.643798828125000000e-01
0.000000000000000000e+00,8.000000000000000000e+00,-2.000000000000000000e+01,-2.300000000000000000e+01,-1.000000000000000000e+00,8.000000000000000000e+00,3.000000000000000000e+00,-1.900000000000000000e+01,2.703857421875000000e-02,4.231567382812500000e-01,-2.703247070312500000e-01,8.643188476562500000e-01
-6.000000000000000000e+00,-2.000000000000000000e+00,1.100000000000000000e+01,1.000000000000000000e+01,-2.000000000000000000e+00,-4.000000000000000000e+00,-3.000000000000000000e+00,-3.000000000000000000e+00,2.703857421875000000e-02,4.231567382812500000e-01,-2.703247070312500000e-01,8.643188476562500000e-01
1.700000000000000000e+01,1.600000000000000000e+01,-9.000000000000000000e+00,1.600000000000000000e+01,3.000000000000000000e+00,-8.000000000000000000e+00,-1.100000000000000000e+01,8.000000000000000000e+00,2.703857421875000000e-02,4.231567382812500000e-01,-2.703247070312500000e-01,8.643188476562500000e-01
-1.300000000000000000e+01,-1.000000000000000000e+01,-2.000000000000000000e+00,-3.000000000000000000e+00,-4.000000000000000000e+00,-2.200000000000000000e+01,-1.300000000000000000e+01,-7.000000000000000000e+00,2.703857421875000000e-02,4.231567382812500000e-01,-2.703247070312500000e-01,8.643188476562500000e-01
1.700000000000000000e+01,6.000000000000000000e+00,3.900000000000000000e+01,-1.300000000000000000e+01,-3.000000000000000000e+00,2.000000000000000000e+00,-1.000000000000000000e+00,8.000000000000000000e+00,2.709960937500000000e-02,4.232177734375000000e-01,-2.703247070312500000e-01,8.643188476562500000e-01
1.000000000000000000e+00,5.000000000000000000e+00,-1.400000000000000000e+01,-1.000000000000000000e+00,-6.000000000000000000e+00,-1.000000000000000000e+01,-5.000000000000000000e+00,-7.000000000000000000e+00,2.709960937500000000e-02,4.232177734375000000e-01,-2.703247070312500000e-01,8.643188476562500000e-01
-8.000000000000000000e+00,-1.500000000000000000e+01,-3.500000000000000000e+01,-1.100000000000000000e+01,-3.000000000000000000e+00,3.000000000000000000e+00,-2.000000000000000000e+00,-7.000000000000000000e+00,2.709960937500000000e-02,4.232177734375000000e-01,-2.703247070312500000e-01,8.643188476562500000e-01
0.000000000000000000e+00,-1.900000000000000000e+01,-5.000000000000000000e+00,-2.000000000000000000e+00,1.000000000000000000e+00,-9.000000000000000000e+00,-7.000000000000000000e+00,-3.000000000000000000e+00,2.709960937500000000e-02,4.232177734375000000e-01,-2.703247070312500000e-01,8.643188476562500000e-01
-8.000000000000000000e+00,-1.800000000000000000e+01,-2.300000000000000000e+01,4.300000000000000000e+01,9.000000000000000000e+00,5.000000000000000000e+00,0.000000000000000000e+00,-2.000000000000000000e+00,2.685546875000000000e-02,4.236450195312500000e-01,-2.700805664062500000e-01,8.641967773437500000e-01
-4.000000000000000000e+00,-4.000000000000000000e+00,6.500000000000000000e+01,3.000000000000000000e+00,-6.000000000000000000e+00,-1.100000000000000000e+01,-3.000000000000000000e+00,-5.000000000000000000e+00,2.685546875000000000e-02,4.236450195312500000e-01,-2.700805664062500000e-01,8.641967773437500000e-01
1.000000000000000000e+01,2.300000000000000000e+01,-1.200000000000000000e+01,1.500000000000000000e+01,-1.000000000000000000e+00,8.000000000000000000e+00,7.000000000000000000e+00,5.000000000000000000e+00,2.685546875000000000e-02,4.236450195312500000e-01,-2.700805664062500000e-01,8.641967773437500000e-01
0.000000000000000000e+00,9.000000000000000000e+00,-1.300000000000000000e+01,-2.700000000000000000e+01,-8.000000000000000000e+00,-1.100000000000000000e+01,-2.000000000000000000e+00,-2.000000000000000000e+00,2.685546875000000000e-02,4.236450195312500000e-01,-2.700805664062500000e-01,8.641967773437500000e-01
-1.100000000000000000e+01,1.000000000000000000e+00,4.000000000000000000e+00,-5.000000000000000000e+00,1.000000000000000000e+00,-4.000000000000000000e+00,-9.000000000000000000e+00,-1.000000000000000000e+00,2.685546875000000000e-02,4.236450195312500000e-01,-2.700805664062500000e-01,8.641967773437500000e-01
-9.000000000000000000e+00,-4.000000000000000000e+00,-7.000000000000000000e+00,1.100000000000000000e+01,2.000000000000000000e+00,-3.000000000000000000e+00,6.000000000000000000e+00,-1.000000000000000000e+00,2.685546875000000000e-02,4.236450195312500000e-01,-2.700805664062500000e-01,8.641967773437500000e-01
1.000000000000000000e+01,-1.200000000000000000e+01,0.000000000000000000e+00,-6.000000000000000000e+00,2.000000000000000000e+00,3.000000000000000000e+00,-1.000000000000000000e+00,-1.400000000000000000e+01,2.685546875000000000e-02,4.236450195312500000e-01,-2.700805664062500000e-01,8.641967773437500000e-01
-7.000000000000000000e+00,2.100000000000000000e+01,1.500000000000000000e+01,1.600000000000000000e+01,1.000000000000000000e+00,-2.000000000000000000e+00,-5.000000000000000000e+00,2.000000000000000000e+00,2.685546875000000000e-02,4.236450195312500000e-01,-2.700805664062500000e-01,8.641967773437500000e-01
-1.000000000000000000e+00,-5.000000000000000000e+00,-4.000000000000000000e+00,-8.000000000000000000e+00,-1.000000000000000000e+00,-2.200000000000000000e+01,-2.100000000000000000e+01,1.400000000000000000e+01,2.685546875000000000e-02,4.232788085937500000e-01,-2.703857421875000000e-01,8.642578125000000000e-01
9.000000000000000000e+00,4.000000000000000000e+00,-1.500000000000000000e+01,-3.000000000000000000e+00,5.000000000000000000e+00,4.000000000000000000e+01,2.800000000000000000e+01,-5.000000000000000000e+00,2.685546875000000000e-02,4.232788085937500000e-01,-2.703857421875000000e-01,8.642578125000000000e-01
-1.200000000000000000e+01,0.000000000000000000e+00,7.000000000000000000e+00,-4.000000000000000000e+00,-7.000000000000000000e+00,-5.000000000000000000e+00,9.000000000000000000e+00,-1.300000000000000000e+01,2.685546875000000000e-02,4.232788085937500000e-01,-2.703857421875000000e-01,8.642578125000000000e-01
-4.000000000000000000e+00,-1.400000000000000000e+01,-1.200000000000000000e+01,-1.600000000000000000e+01,-8.000000000000000000e+00,-1.100000000000000000e+01,6.000000000000000000e+00,-8.000000000000000000e+00,2.685546875000000000e-02,4.232788085937500000e-01,-2.703857421875000000e-01,8.642578125000000000e-01
1.000000000000000000e+00,1.600000000000000000e+01,2.000000000000000000e+00,0.000000000000000000e+00,2.000000000000000000e+00,-2.000000000000000000e+00,-1.300000000000000000e+01,1.300000000000000000e+01,2.722167968750000000e-02,4.230957031250000000e-01,-2.703857421875000000e-01,8.643188476562500000e-01
-4.000000000000000000e+00,-5.000000000000000000e+00,2.900000000000000000e+01,-6.000000000000000000e+00,-8.000000000000000000e+00,-1.700000000000000000e+01,-2.000000000000000000e+01,-1.900000000000000000e+01,2.722167968750000000e-02,4.230957031250000000e-01,-2.703857421875000000e-01,8.643188476562500000e-01
-1.000000000000000000e+00,0.000000000000000000e+00,-1.900000000000000000e+01,-2.100000000000000000e+01,0.000000000000000000e+00,5.000000000000000000e+00,-2.000000000000000000e+00,-2.000000000000000000e+00,2.722167968750000000e-02,4.230957031250000000e-01,-2.703857421875000000e-01,8.643188476562500000e-01
-4.000000000000000000e+00,-1.100000000000000000e+01,3.400000000000000000e+01,6.700000000000000000e+01,9.000000000000000000e+00,4.000000000000000000e+00,-4.000000000000000000e+00,-1.000000000000000000e+00,2.722167968750000000e-02,4.230957031250000000e-01,-2.703857421875000000e-01,8.643188476562500000e-01
5.000000000000000000e+00,1.000000000000000000e+01,-2.400000000000000000e+01,-3.600000000000000000e+01,-9.000000000000000000e+00,5.000000000000000000e+00,6.000000000000000000e+00,0.000000000000000000e+00,2.722167968750000000e-02,4.232788085937500000e-01,-2.699584960937500000e-01,8.643798828125000000e-01
-3.000000000000000000e+00,1.000000000000000000e+00,2.400000000000000000e+01,-2.000000000000000000e+00,-1.000000000000000000e+00,-5.000000000000000000e+00,-2.000000000000000000e+00,1.200000000000000000e+01,2.722167968750000000e-02,4.232788085937500000e-01,-2.699584960937500000e-01,8.643798828125000000e-01
-1.000000000000000000e+00,-1.300000000000000000e+01,4.000000000000000000e+00,3.400000000000000000e+01,-1.000000000000000000e+00,-8.000000000000000000e+00,-8.000000000000000000e+00,1.600000000000000000e+01,2.722167968750000000e-02,4.232788085937500000e-01,-2.699584960937500000e-01,8.643798828125000000e-01
7.000000000000000000e+00,-9.000000000000000000e+00,-2.900000000000000000e+01,-4.500000000000000000e+01,-6.000000000000000000e+00,-8.000000000000000000e+00,4.000000000000000000e+00,-5.000000000000000000e+00,2.722167968750000000e-02,4.232788085937500000e-01,-2.699584960937500000e-01,8.643798828125000000e-01
-1.100000000000000000e+01,-7.000000000000000000e+00,1.000000000000000000e+00,-1.400000000000000000e+01,1.000000000000000000e+00,2.000000000000000000e+00,8.000000000000000000e+00,-1.900000000000000000e+01,2.673339843750000000e-02,4.235229492187500000e-01,-2.694702148437500000e-01,8.644409179687500000e-01
3.000000000000000000e+00,-3.000000000000000000e+00,-4.000000000000000000e+00,9.000000000000000000e+00,-3.000000000000000000e+00,-3.000000000000000000e+00,-7.000000000000000000e+00,-7.000000000000000000e+00,2.673339843750000000e-02,4.235229492187500000e-01,-2.694702148437500000e-01,8.644409179687500000e-01
1.000000000000000000e+00,2.000000000000000000e+00,1.200000000000000000e+01,-1.400000000000000000e+01,-4.000000000000000000e+00,2.000000000000000000e+00,2.000000000000000000e+00,1.300000000000000000e+01,2.673339843750000000e-02,4.235229492187500000e-01,-2.694702148437500000e-01,8.644409179687500000e-01
2.000000000000000000e+00,-7.000000000000000000e+00,-2.300000000000000000e+01,-6.000000000000000000e+00,-2.000000000000000000e+00,0.000000000000000000e+00,-8.000000000000000000e+00,3.000000000000000000e+00,2.673339843750000000e-02,4.235229492187500000e-01,-2.694702148437500000e-01,8.644409179687500000e-01
6.000000000000000000e+00,0.000000000000000000e+00,4.000000000000000000e+00,1.200000000000000000e+01,3.000000000000000000e+00,5.000000000000000000e+00,-3.000000000000000000e+00,-6.000000000000000000e+00,2.606201171875000000e-02,4.235229492187500000e-01,-2.695312500000000000e-01,8.644409179687500000e-01
-7.000000000000000000e+00,-1.000000000000000000e+00,-1.800000000000000000e+01,-8.000000000000000000e+00,-5.000000000000000000e+00,-1.900000000000000000e+01,3.000000000000000000e+00,2.600000000000000000e+01,2.606201171875000000e-02,4.235229492187500000e-01,-2.695312500000000000e-01,8.644409179687500000e-01
5.000000000000000000e+00,-8.000000000000000000e+00,-1.300000000000000000e+01,-1.800000000000000000e+01,-4.000000000000000000e+00,1.000000000000000000e+01,-1.000000000000000000e+00,-1.700000000000000000e+01,2.606201171875000000e-02,4.235229492187500000e-01,-2.695312500000000000e-01,8.644409179687500000e-01
-7.000000000000000000e+00,6.000000000000000000e+00,3.800000000000000000e+01,1.800000000000000000e+01,5.000000000000000000e+00,0.000000000000000000e+00,-2.400000000000000000e+01,3.400000000000000000e+01,2.606201171875000000e-02,4.235229492187500000e-01,-2.695312500000000000e-01,8.644409179687500000e-01
-5.000000000000000000e+00,1.000000000000000000e+00,-5.400000000000000000e+01,-2.100000000000000000e+01,0.000000000000000000e+00,8.000000000000000000e+00,1.200000000000000000e+01,-3.200000000000000000e+01,2.612304687500000000e-02,4.235229492187500000e-01,-2.695312500000000000e-01,8.644409179687500000e-01
5.000000000000000000e+00,1.000000000000000000e+01,1.100000000000000000e+01,1.000000000000000000e+01,4.000000000000000000e+00,5.000000000000000000e+00,7.000000000000000000e+00,1.600000000000000000e+01,2.612304687500000000e-02,4.235229492187500000e-01,-2.695312500000000000e-01,8.644409179687500000e-01
4.000000000000000000e+00,-2.000000000000000000e+00,3.800000000000000000e+01,4.900000000000000000e+01,3.000000000000000000e+00,-1.200000000000000000e+01,-1.000000000000000000e+01,-6.000000000000000000e+00,2.612304687500000000e-02,4.235229492187500000e-01,-2.695312500000000000e-01,8.644409179687500000e-01
-7.000000000000000000e+00,5.000000000000000000e+00,1.600000000000000000e+01,-5.500000000000000000e+01,-1.200000000000000000e+01,-5.000000000000000000e+00,1.000000000000000000e+00,-2.000000000000000000e+00,2.612304687500000000e-02,4.235229492187500000e-01,-2.695312500000000000e-01,8.644409179687500000e-01
-3.000000000000000000e+00,-3.000000000000000000e+00,-7.000000000000000000e+00,2.200000000000000000e+01,-2.000000000000000000e+00,7.000000000000000000e+00,0.000000000000000000e+00,1.200000000000000000e+01,2.526855468750000000e-02,4.243774414062500000e-01,-2.686767578125000000e-01,8.643188476562500000e-01
-9.000000000000000000e+00,-6.000000000000000000e+00,-5.500000000000000000e+01,-5.200000000000000000e+01,-5.000000000000000000e+00,-1.300000000000000000e+01,-1.500000000000000000e+01,-1.000000000000000000e+01,2.526855468750000000e-02,4.243774414062500000e-01,-2.686767578125000000e-01,8.643188476562500000e-01
3.000000000000000000e+00,3.000000000000000000e+00,-5.100000000000000000e+01,-4.000000000000000000e+00,4.000000000000000000e+00,6.000000000000000000e+00,9.000000000000000000e+00,1.100000000000000000e+01,2.526855468750000000e-02,4.243774414062500000e-01,-2.686767578125000000e-01,8.643188476562500000e-01
-3.000000000000000000e+00,8.000000000000000000e+00,4.400000000000000000e+01,2.900000000000000000e+01,5.000000000000000000e+00,2.000000000000000000e+00,-4.000000000000000000e+00,-1.700000000000000000e+01,2.526855468750000000e-02,4.243774414062500000e-01,-2.686767578125000000e-01,8.643188476562500000e-01
-1.000000000000000000e+00,2.000000000000000000e+00,0.000000000000000000e+00,-1.400000000000000000e+01,0.000000000000000000e+00,-4.000000000000000000e+00,-2.000000000000000000e+00,4.000000000000000000e+00,2.496337890625000000e-02,4.252929687500000000e-01,-2.681884765625000000e-01,8.640136718750000000e-01
1.000000000000000000e+00,-6.000000000000000000e+00,-2.200000000000000000e+01,0.000000000000000000e+00,1.000000000000000000e+00,4.000000000000000000e+00,7.000000000000000000e+00,-3.000000000000000000e+00,2.496337890625000000e-02,4.252929687500000000e-01,-2.681884765625000000e-01,8.640136718750000000e-01
-4.000000000000000000e+00,3.000000000000000000e+00,2.200000000000000000e+01,7.000000000000000000e+00,0.000000000000000000e+00,1.000000000000000000e+00,-2.000000000000000000e+00,-6.000000000000000000e+00,2.496337890625000000e-02,4.252929687500000000e-01,-2.681884765625000000e-01,8.640136718750000000e-01
4.000000000000000000e+00,-3.000000000000000000e+00,-2.700000000000000000e+01,-7.000000000000000000e+00,1.000000000000000000e+00,-1.000000000000000000e+01,-7.000000000000000000e+00,-9.000000000000000000e+00,2.496337890625000000e-02,4.252929687500000000e-01,-2.681884765625000000e-01,8.640136718750000000e-01
-1.600000000000000000e+01,-6.000000000000000000e+00,1.400000000000000000e+01,2.000000000000000000e+00,-6.000000000000000000e+00,-1.500000000000000000e+01,-1.800000000000000000e+01,-1.000000000000000000e+00,2.441406250000000000e-02,4.257202148437500000e-01,-2.680053710937500000e-01,8.638916015625000000e-01
-1.000000000000000000e+00,-5.000000000000000000e+00,-1.400000000000000000e+01,6.000000000000000000e+00,2.000000000000000000e+00,1.000000000000000000e+01,9.000000000000000000e+00,-1.000000000000000000e+01,2.441406250000000000e-02,4.257202148437500000e-01,-2.680053710937500000e-01,8.638916015625000000e-01
1.800000000000000000e+01,3.000000000000000000e+00,2.200000000000000000e+01,-2.000000000000000000e+01,-3.000000000000000000e+00,7.000000000000000000e+00,1.100000000000000000e+01,1.200000000000000000e+01,2.441406250000000000e-02,4.257202148437500000e-01,-2.680053710937500000e-01,8.638916015625000000e-01
-3.700000000000000000e+01,-5.000000000000000000e+00,-1.600000000000000000e+01,6.000000000000000000e+00,3.000000000000000000e+00,3.000000000000000000e+00,1.100000000000000000e+01,-1.500000000000000000e+01,2.441406250000000000e-02,4.257202148437500000e-01,-2.680053710937500000e-01,8.638916015625000000e-01
1.300000000000000000e+01,-3.000000000000000000e+00,-4.000000000000000000e+00,-1.700000000000000000e+01,-6.000000000000000000e+00,-1.100000000000000000e+01,1.000000000000000000e+00,1.500000000000000000e+01,2.453613281250000000e-02,4.260864257812500000e-01,-2.680664062500000000e-01,8.636474609375000000e-01
0.000000000000000000e+00,1.000000000000000000e+00,2.800000000000000000e+01,3.800000000000000000e+01,1.000000000000000000e+00,-9.000000000000000000e+00,-2.400000000000000000e+01,-1.800000000000000000e+01,2.453613281250000000e-02,4.260864257812500000e-01,-2.680664062500000000e-01,8.636474609375000000e-01
-1.000000000000000000e+01,-6.000000000000000000e+00,-7.000000000000000000e+00,-5.000000000000000000e+01,-7.000000000000000000e+00,-5.000000000000000000e+00,-1.000000000000000000e+01,6.000000000000000000e+00,2.453613281250000000e-02,4.260864257812500000e-01,-2.680664062500000000e-01,8.636474609375000000e-01
3.000000000000000000e+00,1.000000000000000000e+00,-2.500000000000000000e+01,2.000000000000000000e+01,0.000000000000000000e+00,-4.000000000000000000e+00,0.000000000000000000e+00,-8.000000000000000000e+00,2.453613281250000000e-02,4.260864257812500000e-01,-2.680664062500000000e-01,8.636474609375000000e-01
4.000000000000000000e+00,6.000000000000000000e+00,3.300000000000000000e+01,-1.000000000000000000e+00,-1.000000000000000000e+00,5.000000000000000000e+00,7.000000000000000000e+00,1.400000000000000000e+01,2.465820312500000000e-02,4.268798828125000000e-01,-2.678222656250000000e-01,8.633422851562500000e-01
-6.000000000000000000e+00,-2.000000000000000000e+00,-5.000000000000000000e+01,5.000000000000000000e+00,0.000000000000000000e+00,1.000000000000000000e+00,5.000000000000000000e+00,-4.000000000000000000e+00,2.465820312500000000e-02,4.268798828125000000e-01,-2.678222656250000000e-01,8.633422851562500000e-01
0.000000000000000000e+00,1.000000000000000000e+00,4.200000000000000000e+01,2.700000000000000000e+01,3.000000000000000000e+00,-7.000000000000000000e+00,3.000000000000000000e+00,-2.000000000000000000e+00,2.465820312500000000e-02,4.268798828125000000e-01,-2.678222656250000000e-01,8.633422851562500000e-01
7.000000000000000000e+00,-5.000000000000000000e+00,-1.900000000000000000e+01,-3.000000000000000000e+01,-5.000000000000000000e+00,-1.000000000000000000e+00,-1.000000000000000000e+00,-3.000000000000000000e+00,2.465820312500000000e-02,4.268798828125000000e-01,-2.678222656250000000e-01,8.633422851562500000e-01
-4.000000000000000000e+00,4.000000000000000000e+00,-8.000000000000000000e+00,2.700000000000000000e+01,2.000000000000000000e+00,8.000000000000000000e+00,2.000000000000000000e+00,0.000000000000000000e+00,2.478027343750000000e-02,4.277954101562500000e-01,-2.672119140625000000e-01,8.630981445312500000e-01
-1.000000000000000000e+00,-1.100000000000000000e+01,-2.000000000000000000e+00,-2.000000000000000000e+00,-7.000000000000000000e+00,-6.000000000000000000e+00,-8.000000000000000000e+00,2.000000000000000000e+00,2.478027343750000000e-02,4.277954101562500000e-01,-2.672119140625000000e-01,8.630981445312500000e-01
