-6.000000000000000000e+00,0.000000000000000000e+00,1.300000000000000000e+01,6.000000000000000000e+00,1.000000000000000000e+00,1.000000000000000000e+00,0.000000000000000000e+00,3.000000000000000000e+00,-2.556762695312500000e-01,4.201049804687500000e-01,2.777099609375000000e-01,8.251953125000000000e-01
0.000000000000000000e+00,-1.000000000000000000e+00,-3.000000000000000000e+00,-4.000000000000000000e+00,5.000000000000000000e+00,-1.000000000000000000e+00,0.000000000000000000e+00,0.000000000000000000e+00,-2.556762695312500000e-01,4.201049804687500000e-01,2.777099609375000000e-01,8.251953125000000000e-01
-1.000000000000000000e+00,1.000000000000000000e+00,1.600000000000000000e+01,5.000000000000000000e+00,-4.000000000000000000e+00,-5.000000000000000000e+00,-1.000000000000000000e+00,-3.000000000000000000e+00,-2.556762695312500000e-01,4.201049804687500000e-01,2.777099609375000000e-01,8.251953125000000000e-01
1.000000000000000000e+00,-7.000000000000000000e+00,-1.000000000000000000e+01,-1.800000000000000000e+01,-9.000000000000000000e+00,-4.000000000000000000e+00,1.000000000000000000e+00,-1.000000000000000000e+00,-2.556762695312500000e-01,4.201049804687500000e-01,2.777099609375000000e-01,8.251953125000000000e-01
1.000000000000000000e+00,1.000000000000000000e+00,1.000000000000000000e+00,-6.000000000000000000e+00,-1.000000000000000000e+00,1.000000000000000000e+00,-2.000000000000000000e+00,0.000000000000000000e+00,-2.557373046875000000e-01,4.205322265625000000e-01,2.772216796875000000e-01,8.251342773437500000e-01
-5.000000000000000000e+00,-5.000000000000000000e+00,1.000000000000000000e+01,1.500000000000000000e+01,4.000000000000000000e+00,4.000000000000000000e+00,1.000000000000000000e+00,0.000000000000000000e+00,-2.557373046875000000e-01,4.205322265625000000e-01,2.772216796875000000e-01,8.251342773437500000e-01
1.100000000000000000e+01,-1.000000000000000000e+00,-3.500000000000000000e+01,1.800000000000000000e+01,-4.000000000000000000e+00,-5.000000000000000000e+00,-1.000000000000000000e+00,-1.000000000000000000e+00,-2.557373046875000000e-01,4.205322265625000000e-01,2.772216796875000000e-01,8.251342773437500000e-01
-7.000000000000000000e+00,-1.000000000000000000e+00,1.800000000000000000e+01,-1.700000000000000000e+01,-5.000000000000000000e+00,-1.000000000000000000e+00,-4.000000000000000000e+00,-2.000000000000000000e+00,-2.557373046875000000e-01,4.205322265625000000e-01,2.772216796875000000e-01,8.251342773437500000e-01
2.000000000000000000e+00,2.000000000000000000e+00,2.000000000000000000e+00,-6.000000000000000000e+00,1.000000000000000000e+00,-3.000000000000000000e+00,2.000000000000000000e+00,0.000000000000000000e+00,-2.553710937500000000e-01,4.212036132812500000e-01,2.769165039062500000e-01,8.250122070312500000e-01
2.000000000000000000e+00,-3.000000000000000000e+00,0.000000000000000000e+00,-8.000000000000000000e+00,-1.000000000000000000e+00,1.000000000000000000e+00,1.000000000000000000e+00,-2.000000000000000000e+00,-2.553710937500000000e-01,4.212036132812500000e-01,2.769165039062500000e-01,8.250122070312500000e-01
-1.000000000000000000e+00,1.000000000000000000e+00,8.000000000000000000e+00,1.000000000000000000e+01,1.000000000000000000e+00,0.000000000000000000e+00,1.000000000000000000e+00,0.000000000000000000e+00,-2.553710937500000000e-01,4.212036132812500000e-01,2.769165039062500000e-01,8.250122070312500000e-01
2.000000000000000000e+00,4.000000000000000000e+00,5.000000000000000000e+00,1.800000000000000000e+01,1.000000000000000000e+00,-1.000000000000000000e+00,1.000000000000000000e+00,-1.000000000000000000e+00,-2.553710937500000000e-01,4.212036132812500000e-01,2.769165039062500000e-01,8.250122070312500000e-01
-5.000000000000000000e+00,-3.000000000000000000e+00,-1.800000000000000000e+01,-6.000000000000000000e+00,0.000000000000000000e+00,2.000000000000000000e+00,1.000000000000000000e+00,1.000000000000000000e+00,-2.548828125000000000e-01,4.216918945312500000e-01,2.766723632812500000e-01,8.249511718750000000e-01
1.000000000000000000e+00,-4.000000000000000000e+00,3.000000000000000000e+00,2.000000000000000000e+00,-6.000000000000000000e+00,-3.000000000000000000e+00,-3.000000000000000000e+00,-5.000000000000000000e+00,-2.548828125000000000e-01,4.216918945312500000e-01,2.766723632812500000e-01,8.249511718750000000e-01
-6.000000000000000000e+00,-5.000000000000000000e+00,-8.000000000000000000e+00,9.000000000000000000e+00,4.000000000000000000e+00,-1.000000000000000000e+00,-2.000000000000000000e+00,-1.000000000000000000e+00,-2.548828125000000000e-01,4.216918945312500000e-01,2.766723632812500000e-01,8.249511718750000000e-01
0.000000000000000000e+00,2.000000000000000000e+00,1.100000000000000000e+01,-2.400000000000000000e+01,-2.000000000000000000e+00,-1.000000000000000000e+00,0.000000000000000000e+00,-1.000000000000000000e+00,-2.548828125000000000e-01,4.216918945312500000e-01,2.766723632812500000e-01,8.249511718750000000e-01
1.000000000000000000e+01,0.000000000000000000e+00,-2.000000000000000000e+00,1.100000000000000000e+01,0.000000000000000000e+00,-4.000000000000000000e+00,0.000000000000000000e+00,6.000000000000000000e+00,-2.547607421875000000e-01,4.224243164062500000e-01,2.766113281250000000e-01,8.246459960937500000e-01
-3.900000000000000000e+01,-5.000000000000000000e+00,-3.000000000000000000e+00,-2.100000000000000000e+01,-9.000000000000000000e+00,-5.000000000000000000e+00,-5.000000000000000000e+00,-5.000000000000000000e+00,-2.547607421875000000e-01,4.224243164062500000e-01,2.766113281250000000e-01,8.246459960937500000e-01
1.000000000000000000e+00,0.000000000000000000e+00,4.000000000000000000e+00,2.500000000000000000e+01,4.000000000000000000e+00,5.000000000000000000e+00,4.000000000000000000e+00,0.000000000000000000e+00,-2.547607421875000000e-01,4.224243164062500000e-01,2.766113281250000000e-01,8.246459960937500000e-01
-1.000000000000000000e+00,6.000000000000000000e+00,1.500000000000000000e+01,-5.000000000000000000e+00,-1.000000000000000000e+00,1.000000000000000000e+00,-1.000000000000000000e+00,1.000000000000000000e+00,-2.547607421875000000e-01,4.224243164062500000e-01,2.766113281250000000e-01,8.246459960937500000e-01
2.000000000000000000e+00,-2.000000000000000000e+00,9.000000000000000000e+00,2.000000000000000000e+00,-6.000000000000000000e+00,-2.000000000000000000e+00,-2.000000000000000000e+00,-2.000000000000000000e+00,-2.548217773437500000e-01,4.233398437500000000e-01,2.770385742187500000e-01,8.240356445312500000e-01
6.000000000000000000e+00,-2.000000000000000000e+00,-3.000000000000000000e+01,4.000000000000000000e+00,0.000000000000000000e+00,-4.000000000000000000e+00,-3.000000000000000000e+00,0.000000000000000000e+00,-2.548217773437500000e-01,4.233398437500000000e-01,2.770385742187500000e-01,8.240356445312500000e-01
4.000000000000000000e+00,-2.000000000000000000e+00,-1.300000000000000000e+01,1.000000000000000000e+01,1.000000000000000000e+00,-4.000000000000000000e+00,-4.000000000000000000e+00,-3.000000000000000000e+00,-2.548217773437500000e-01,4.233398437500000000e-01,2.770385742187500000e-01,8.240356445312500000e-01
-3.000000000000000000e+00,-1.000000000000000000e+00,-2.000000000000000000e+00,1.300000000000000000e+01,6.000000000000000000e+00,3.000000000000000000e+00,4.000000000000000000e+00,3.000000000000000000e+00,-2.548217773437500000e-01,4.233398437500000000e-01,2.770385742187500000e-01,8.240356445312500000e-01
1.000000000000000000e+00,-1.000000000000000000e+00,1.400000000000000000e+01,-5.400000000000000000e+01,-1.100000000000000000e+01,-2.000000000000000000e+00,1.000000000000000000e+00,1.000000000000000000e+00,-2.547607421875000000e-01,4.240112304687500000e-01,2.777709960937500000e-01,8.234863281250000000e-01
1.000000000000000000e+01,0.000000000000000000e+00,-6.000000000000000000e+00,-5.000000000000000000e+00,-5.000000000000000000e+00,-5.000000000000000000e+00,-1.000000000000000000e+00,-1.000000000000000000e+00,-2.547607421875000000e-01,4.240112304687500000e-01,2.777709960937500000e-01,8.234863281250000000e-01
-2.000000000000000000e+00,5.000000000000000000e+00,1.200000000000000000e+01,-2.900000000000000000e+01,-5.000000000000000000e+00,-1.000000000000000000e+00,-2.000000000000000000e+00,2.000000000000000000e+00,-2.547607421875000000e-01,4.240112304687500000e-01,2.777709960937500000e-01,8.234863281250000000e-01
0.000000000000000000e+00,-3.000000000000000000e+00,-1.400000000000000000e+01,4.100000000000000000e+01,6.000000000000000000e+00,1.000000000000000000e+00,-3.000000000000000000e+00,-3.000000000000000000e+00,-2.547607421875000000e-01,4.240112304687500000e-01,2.777709960937500000e-01,8.234863281250000000e-01
0.000000000000000000e+00,3.000000000000000000e+00,6.000000000000000000e+00,-4.000000000000000000e+00,-3.000000000000000000e+00,-4.000000000000000000e+00,-3.000000000000000000e+00,-2.000000000000000000e+00,-2.545166015625000000e-01,4.243164062500000000e-01,2.786254882812500000e-01,8.230590820312500000e-01
2.000000000000000000e+00,-2.000000000000000000e+00,4.000000000000000000e+00,4.900000000000000000e+01,6.000000000000000000e+00,2.000000000000000000e+00,2.000000000000000000e+00,1.000000000000000000e+00,-2.545166015625000000e-01,4.243164062500000000e-01,2.786254882812500000e-01,8.230590820312500000e-01
-6.000000000000000000e+00,-6.000000000000000000e+00,-1.100000000000000000e+01,-6.500000000000000000e+01,-1.000000000000000000e+01,0.000000000000000000e+00,0.000000000000000000e+00,-2.000000000000000000e+00,-2.545166015625000000e-01,4.243164062500000000e-01,2.786254882812500000e-01,8.230590820312500000e-01
-2.000000000000000000e+00,-5.000000000000000000e+00,-2.300000000000000000e+01,5.100000000000000000e+01,2.000000000000000000e+00,-8.000000000000000000e+00,-1.000000000000000000e+01,-4.000000000000000000e+00,-2.545166015625000000e-01,4.243164062500000000e-01,2.786254882812500000e-01,8.230590820312500000e-01
3.000000000000000000e+00,5.000000000000000000e+00,1.100000000000000000e+01,-4.500000000000000000e+01,-5.000000000000000000e+00,9.000000000000000000e+00,5.000000000000000000e+00,-1.000000000000000000e+00,-2.540283203125000000e-01,4.246826171875000000e-01,2.789916992187500000e-01,8.229370117187500000e-01
-3.000000000000000000e+00,-1.000000000000000000e+00,-8.000000000000000000e+00,-7.000000000000000000e+00,0.000000000000000000e+00,-2.000000000000000000e+00,-3.000000000000000000e+00,-2.000000000000000000e+00,-2.540283203125000000e-01,4.246826171875000000e-01,2.789916992187500000e-01,8.229370117187500000e-01
3.000000000000000000e+00,3.000000000000000000e+00,1.800000000000000000e+01,5.500000000000000000e+01,7.000000000000000000e+00,-1.000000000000000000e+00,0.000000000000000000e+00,1.000000000000000000e+00,-2.540283203125000000e-01,4.246826171875000000e-01,2.789916992187500000e-01,8.229370117187500000e-01
-1.000000000000000000e+00,-1.000000000000000000e+00,-9.000000000000000000e+00,-5.700000000000000000e+01,2.000000000000000000e+00,2.000000000000000000e+00,3.000000000000000000e+00,0.000000000000000000e+00,-2.540283203125000000e-01,4.246826171875000000e-01,2.789916992187500000e-01,8.229370117187500000e-01
-6.000000000000000000e+00,-1.100000000000000000e+01,1.600000000000000000e+01,-1.600000000000000000e+01,-6.000000000000000000e+00,-4.000000000000000000e+00,-6.000000000000000000e+00,-5.000000000000000000e+00,-2.529907226562500000e-01,4.251098632812500000e-01,2.791748046875000000e-01,8.229980468750000000e-01
6.000000000000000000e+00,5.000000000000000000e+00,4.100000000000000000e+01,6.500000000000000000e+01,4.000000000000000000e+00,0.000000000000000000e+00,1.000000000000000000e+00,1.000000000000000000e+00,-2.529907226562500000e-01,4.251098632812500000e-01,2.791748046875000000e-01,8.229980468750000000e-01
-3.000000000000000000e+00,-3.000000000000000000e+00,-2.700000000000000000e+01,-4.300000000000000000e+01,-5.000000000000000000e+00,-1.000000000000000000e+00,-2.000000000000000000e+00,-1.000000000000000000e+00,-2.529907226562500000e-01,4.251098632812500000e-01,2.791748046875000000e-01,8.229980468750000000e-01
-3.000000000000000000e+00,-1.000000000000000000e+00,5.000000000000000000e+00,3.300000000000000000e+01,3.000000000000000000e+00,-1.000000000000000000e+00,-1.000000000000000000e+00,-1.000000000000000000e+00,-2.529907226562500000e-01,4.251098632812500000e-01,2.791748046875000000e-01,8.229980468750000000e-01
-1.000000000000000000e+00,0.000000000000000000e+00,-1.200000000000000000e+01,3.700000000000000000e+01,1.000000000000000000e+01,3.000000000000000000e+00,2.000000000000000000e+00,2.000000000000000000e+00,-2.521362304687500000e-01,4.252929687500000000e-01,2.795410156250000000e-01,8.229980468750000000e-01
2.000000000000000000e+00,4.000000000000000000e+00,4.500000000000000000e+01,-7.700000000000000000e+01,-1.100000000000000000e+01,-5.000000000000000000e+00,-4.000000000000000000e+00,0.000000000000000000e+00,-2.521362304687500000e-01,4.252929687500000000e-01,2.795410156250000000e-01,8.229980468750000000e-01
-5.000000000000000000e+00,-7.000000000000000000e+00,-4.200000000000000000e+01,6.000000000000000000e+00,0.000000000000000000e+00,-1.000000000000000000e+00,-1.000000000000000000e+00,-3.000000000000000000e+00,-2.521362304687500000e-01,4.252929687500000000e-01,2.795410156250000000e-01,8.229980468750000000e-01
-2.000000000000000000e+00,4.000000000000000000e+00,1.300000000000000000e+01,-1.600000000000000000e+01,-5.000000000000000000e+00,8.000000000000000000e+00,4.000000000000000000e+00,-1.000000000000000000e+00,-2.521362304687500000e-01,4.252929687500000000e-01,2.795410156250000000e-01,8.229980468750000000e-01
2.000000000000000000e+00,-1.000000000000000000e+00,-9.000000000000000000e+00,4.000000000000000000e+00,4.000000000000000000e+00,3.000000000000000000e+00,3.000000000000000000e+00,-1.000000000000000000e+00,-2.515258789062500000e-01,4.251708984375000000e-01,2.800903320312500000e-01,8.230590820312500000e-01
-3.000000000000000000e+00,-8.000000000000000000e+00,-2.400000000000000000e+01,7.000000000000000000e+00,-2.000000000000000000e+00,-2.000000000000000000e+00,-2.000000000000000000e+00,-1.000000000000000000e+00,-2.515258789062500000e-01,4.251708984375000000e-01,2.800903320312500000e-01,8.230590820312500000e-01
-1.000000000000000000e+00,7.000000000000000000e+00,3.000000000000000000e+01,6.000000000000000000e+00,0.000000000000000000e+00,-3.000000000000000000e+00,-1.000000000000000000e+00,-1.000000000000000000e+00,-2.515258789062500000e-01,4.251708984375000000e-01,2.800903320312500000e-01,8.230590820312500000e-01
3.000000000000000000e+00,-7.000000000000000000e+00,-1.600000000000000000e+01,-3.100000000000000000e+01,-4.000000000000000000e+00,-2.000000000000000000e+00,8.000000000000000000e+00,2.000000000000000000e+00,-2.515258789062500000e-01,4.251708984375000000e-01,2.800903320312500000e-01,8.230590820312500000e-01
1.800000000000000000e+01,2.000000000000000000e+00,2.100000000000000000e+01,4.300000000000000000e+01,7.000000000000000000e+00,0.000000000000000000e+00,-1.000000000000000000e+01,-3.000000000000000000e+00,-2.515258789062500000e-01,4.243774414062500000e-01,2.806396484375000000e-01,8.233032226562500000e-01
-1.000000000000000000e+00,-3.000000000000000000e+00,-1.700000000000000000e+01,-5.000000000000000000e+00,2.000000000000000000e+00,2.000000000000000000e+00,2.000000000000000000e+00,2.000000000000000000e+00,-2.515258789062500000e-01,4.243774414062500000e-01,2.806396484375000000e-01,8.233032226562500000e-01
2.000000000000000000e+00,6.000000000000000000e+00,1.700000000000000000e+01,-2.500000000000000000e+01,-7.000000000000000000e+00,4.000000000000000000e+00,4.000000000000000000e+00,2.000000000000000000e+00,-2.515258789062500000e-01,4.243774414062500000e-01,2.806396484375000000e-01,8.233032226562500000e-01
-7.000000000000000000e+00,-4.000000000000000000e+00,9.000000000000000000e+00,6.900000000000000000e+01,1.000000000000000000e+01,3.000000000000000000e+00,5.000000000000000000e+00,0.000000000000000000e+00,-2.515258789062500000e-01,4.243774414062500000e-01,2.806396484375000000e-01,8.233032226562500000e-01
1.000000000000000000e+00,-2.000000000000000000e+00,3.000000000000000000e+00,-7.000000000000000000e+01,-9.000000000000000000e+00,-7.000000000000000000e+00,-4.000000000000000000e+00,-4.000000000000000000e+00,-2.516479492187500000e-01,4.234619140625000000e-01,2.806396484375000000e-01,8.237304687500000000e-01
3.000000000000000000e+00,1.000000000000000000e+00,0.000000000000000000e+00,-1.100000000000000000e+01,-5.000000000000000000e+00,0.000000000000000000e+00,-2.000000000000000000e+00,1.000000000000000000e+00,-2.516479492187500000e-01,4.234619140625000000e-01,2.806396484375000000e-01,8.237304687500000000e-01
-2.000000000000000000e+00,-8.000000000000000000e+00,-1.300000000000000000e+01,1.600000000000000000e+01,-1.000000000000000000e+00,-4.000000000000000000e+00,-2.000000000000000000e+00,-1.000000000000000000e+00,-2.516479492187500000e-01,4.234619140625000000e-01,2.806396484375000000e-01,8.237304687500000000e-01
6.000000000000000000e+00,2.000000000000000000e+00,7.000000000000000000e+00,2.100000000000000000e+01,1.000000000000000000e+00,1.000000000000000000e+00,-2.000000000000000000e+00,2.000000000000000000e+00,-2.516479492187500000e-01,4.234619140625000000e-01,2.806396484375000000e-01,8.237304687500000000e-01
-1.100000000000000000e+01,-6.000000000000000000e+00,-6.100000000000000000e+01,3.000000000000000000e+00,0.000000000000000000e+00,-5.000000000000000000e+00,-3.000000000000000000e+00,-3.000000000000000000e+00,-2.509155273437500000e-01,4.230957031250000000e-01,2.804565429687500000e-01,8.242187500000000000e-01
-1.000000000000000000e+00,-3.000000000000000000e+00,3.000000000000000000e+00,-1.200000000000000000e+01,0.000000000000000000e+00,-2.000000000000000000e+00,-5.000000000000000000e+00,-2.000000000000000000e+00,-2.509155273437500000e-01,4.230957031250000000e-01,2.804565429687500000e-01,8.242187500000000000e-01
1.000000000000000000e+00,5.000000000000000000e+00,-1.000000000000000000e+00,-2.000000000000000000e+01,-4.000000000000000000e+00,-3.000000000000000000e+00,-1.000000000000000000e+00,1.000000000000000000e+00,-2.509155273437500000e-01,4.230957031250000000e-01,2.804565429687500000e-01,8.242187500000000000e-01
-2.000000000000000000e+00,-2.000000000000000000e+00,-6.000000000000000000e+00,-5.000000000000000000e+00,-2.000000000000000000e+00,-3.000000000000000000e+00,-4.000000000000000000e+00,-5.000000000000000000e+00,-2.509155273437500000e-01,4.230957031250000000e-01,2.804565429687500000e-01,8.242187500000000000e-01
-5.000000000000000000e+00,-3.000000000000000000e+00,0.000000000000000000e+00,3.700000000000000000e+01,-1.000000000000000000e+00,-1.000000000000000000e+00,-1.000000000000000000e+00,1.000000000000000000e+00,-2.498779296875000000e-01,4.230346679687500000e-01,2.807617187500000000e-01,8.244018554687500000e-01
0.000000000000000000e+00,2.000000000000000000e+00,5.000000000000000000e+00,-6.500000000000000000e+01,-4.000000000000000000e+00,1.000000000000000000e+00,2.000000000000000000e+00,-1.000000000000000000e+00,-2.498779296875000000e-01,4.230346679687500000e-01,2.807617187500000000e-01,8.244018554687500000e-01
2.000000000000000000e+00,-5.000000000000000000e+00,-1.800000000000000000e+01,2.200000000000000000e+01,1.000000000000000000e+00,0.000000000000000000e+00,0.000000000000000000e+00,-1.000000000000000000e+00,-2.498779296875000000e-01,4.230346679687500000e-01,2.807617187500000000e-01,8.244018554687500000e-01
-9.000000000000000000e+00,-9.000000000000000000e+00,-1.900000000000000000e+01,-6.900000000000000000e+01,-5.000000000000000000e+00,-5.000000000000000000e+00,-3.000000000000000000e+00,0.000000000000000000e+00,-2.498779296875000000e-01,4.230346679687500000e-01,2.807617187500000000e-01,8.244018554687500000e-01
4.000000000000000000e+00,1.400000000000000000e+01,1.900000000000000000e+01,1.200000000000000000e+01,2.000000000000000000e+00,1.000000000000000000e+00,0.000000000000000000e+00,0.000000000000000000e+00,-2.500610351562500000e-01,4.227294921875000000e-01,2.819824218750000000e-01,8.240966796875000000e-01
0.000000000000000000e+00,0.000000000000000000e+00,2.000000000000000000e+01,2.700000000000000000e+01,-4.000000000000000000e+00,-1.000000000000000000e+00,4.000000000000000000e+00,1.000000000000000000e+00,-2.500610351562500000e-01,4.227294921875000000e-01,2.819824218750000000e-01,8.240966796875000000e-01
-2.000000000000000000e+00,-5.000000000000000000e+00,-8.000000000000000000e+00,-3.000000000000000000e+00,3.000000000000000000e+00,-2.000000000000000000e+00,-6.000000000000000000e+00,-2.000000000000000000e+00,-2.500610351562500000e-01,4.227294921875000000e-01,2.819824218750000000e-01,8.240966796875000000e-01
-4.000000000000000000e+00,0.000000000000000000e+00,-1.000000000000000000e+01,-1.500000000000000000e+01,-8.000000000000000000e+00,-6.000000000000000000e+00,-6.000000000000000000e+00,-1.000000000000000000e+00,-2.500610351562500000e-01,4.227294921875000000e-01,2.819824218750000000e-01,8.240966796875000000e-01
-5.000000000000000000e+00,-3.000000000000000000e+00,2.000000000000000000e+00,1.900000000000000000e+01,4.000000000000000000e+00,4.000000000000000000e+00,1.000000000000000000e+00,-1.000000000000000000e+00,-2.506713867187500000e-01,4.221191406250000000e-01,2.833251953125000000e-01,8.237915039062500000e-01
-2.000000000000000000e+00,-7.000000000000000000e+00,-1.300000000000000000e+01,1.700000000000000000e+01,8.000000000000000000e+00,1.000000000000000000e+00,2.000000000000000000e+00,-1.000000000000000000e+00,-2.506713867187500000e-01,4.221191406250000000e-01,2.833251953125000000e-01,8.237915039062500000e-01
0.000000000000000000e+00,8.000000000000000000e+00,4.100000000000000000e+01,8.000000000000000000e+00,3.000000000000000000e+00,-4.000000000000000000e+00,-3.000000000000000000e+00,0.000000000000000000e+00,-2.506713867187500000e-01,4.221191406250000000e-01,2.833251953125000000e-01,8.237915039062500000e-01
3.000000000000000000e+00,-1.000000000000000000e+00,0.000000000000000000e+00,-7.000000000000000000e+00,-1.100000000000000000e+01,-7.000000000000000000e+00,-8.000000000000000000e+00,-4.000000000000000000e+00,-2.506713867187500000e-01,4.221191406250000000e-01,2.833251953125000000e-01,8.237915039062500000e-01
1.000000000000000000e+00,-4.000000000000000000e+00,-8.000000000000000000e+00,6.000000000000000000e+00,-3.000000000000000000e+00,4.000000000000000000e+00,4.000000000000000000e+00,3.000000000000000000e+00,-2.512817382812500000e-01,4.213867187500000000e-01,2.837524414062500000e-01,8.238525390625000000e-01
9.000000000000000000e+00,5.000000000000000000e+00,-1.100000000000000000e+01,1.800000000000000000e+01,3.000000000000000000e+00,1.000000000000000000e+00,-1.000000000000000000e+00,3.000000000000000000e+00,-2.512817382812500000e-01,4.213867187500000000e-01,2.837524414062500000e-01,8.238525390625000000e-01
-3.200000000000000000e+01,-9.000000000000000000e+00,1.500000000000000000e+01,-1.200000000000000000e+01,-7.000000000000000000e+00,-3.000000000000000000e+00,-1.000000000000000000e+00,-8.000000000000000000e+00,-2.512817382812500000e-01,4.213867187500000000e-01,2.837524414062500000e-01,8.238525390625000000e-01
1.000000000000000000e+00,4.000000000000000000e+00,2.000000000000000000e+00,1.200000000000000000e+01,3.000000000000000000e+00,1.000000000000000000e+00,-1.000000000000000000e+00,2.000000000000000000e+00,-2.512817382812500000e-01,4.213867187500000000e-01,2.837524414062500000e-01,8.238525390625000000e-01
-4.000000000000000000e+00,-7.000000000000000000e+00,-3.000000000000000000e+00,4.000000000000000000e+00,-3.000000000000000000e+00,-7.000000000000000000e+00,-2.000000000000000000e+00,-2.000000000000000000e+00,-2.513427734375000000e-01,4.212646484375000000e-01,2.836914062500000000e-01,8.239135742187500000e-01
-4.000000000000000000e+00,6.000000000000000000e+00,-4.000000000000000000e+00,-3.200000000000000000e+01,-6.000000000000000000e+00,-1.000000000000000000e+00,-1.000000000000000000e+00,-2.000000000000000000e+00,-2.513427734375000000e-01,4.212646484375000000e-01,2.836914062500000000e-01,8.239135742187500000e-01
8.000000000000000000e+00,1.000000000000000000e+00,1.200000000000000000e+01,1.800000000000000000e+01,3.000000000000000000e+00,0.000000000000000000e+00,1.000000000000000000e+00,1.000000000000000000e+00,-2.513427734375000000e-01,4.212646484375000000e-01,2.836914062500000000e-01,8.239135742187500000e-01
-2.000000000000000000e+00,-4.000000000000000000e+00,-1.800000000000000000e+01,-2.700000000000000000e+01,-2.000000000000000000e+00,-5.000000000000000000e+00,-2.000000000000000000e+00,-2.000000000000000000e+00,-2.513427734375000000e-01,4.212646484375000000e-01,2.836914062500000000e-01,8.239135742187500000e-01
-3.000000000000000000e+00,0.000000000000000000e+00,-5.000000000000000000e+00,-5.000000000000000000e+00,-7.000000000000000000e+00,-3.000000000000000000e+00,-3.000000000000000000e+00,-1.000000000000000000e+00,-2.513427734375000000e-01,4.212036132812500000e-01,2.832031250000000000e-01,8.240966796875000000e-01
2.000000000000000000e+00,-5.000000000000000000e+00,-1.500000000000000000e+01,4.000000000000000000e+00,1.000000000000000000e+00,1.000000000000000000e+00,2.000000000000000000e+00,0.000000000000000000e+00,-2.513427734375000000e-01,4.212036132812500000e-01,2.832031250000000000e-01,8.240966796875000000e-01
4.000000000000000000e+00,1.000000000000000000e+00,-6.000000000000000000e+00,-3.000000000000000000e+00,6.000000000000000000e+00,1.000000000000000000e+00,-1.000000000000000000e+00,0.000000000000000000e+00,-2.513427734375000000e-01,4.212036132812500000e-01,2.832031250000000000e-01,8.240966796875000000e-01
0.000000000000000000e+00,6.000000000000000000e+00,3.300000000000000000e+01,2.500000000000000000e+01,1.000000000000000000e+00,0.000000000000000000e+00,0.000000000000000000e+00,-4.000000000000000000e+00,-2.513427734375000000e-01,4.212036132812500000e-01,2.832031250000000000e-01,8.240966796875000000e-01
2.000000000000000000e+00,-7.000000000000000000e+00,-5.100000000000000000e+01,-2.700000000000000000e+01,-4.000000000000000000e+00,-3.000000000000000000e+00,-3.000000000000000000e+00,-1.000000000000000000e+00,-2.515258789062500000e-01,4.212646484375000000e-01,2.830200195312500000e-01,8.240966796875000000e-01
-4.000000000000000000e+00,-5.000000000000000000e+00,-2.800000000000000000e+01,-1.600000000000000000e+01,-5.000000000000000000e+00,-3.000000000000000000e+00,1.000000000000000000e+00,-3.000000000000000000e+00,-2.515258789062500000e-01,4.212646484375000000e-01,2.830200195312500000e-01,8.240966796875000000e-01
4.000000000000000000e+00,0.000000000000000000e+00,-7.000000000000000000e+00,9.000000000000000000e+00,-2.000000000000000000e+00,0.000000000000000000e+00,-2.000000000000000000e+00,-1.000000000000000000e+00,-2.515258789062500000e-01,4.212646484375000000e-01,2.830200195312500000e-01,8.240966796875000000e-01
-5.000000000000000000e+00,-2.000000000000000000e+00,-7.000000000000000000e+00,4.000000000000000000e+00,1.000000000000000000e+00,0.000000000000000000e+00,-1.000000000000000000e+00,0.000000000000000000e+00,-2.515258789062500000e-01,4.212646484375000000e-01,2.830200195312500000e-01,8.240966796875000000e-01
2.000000000000000000e+00,2.000000000000000000e+00,1.600000000000000000e+01,-2.800000000000000000e+01,-2.000000000000000000e+00,-4.000000000000000000e+00,-2.000000000000000000e+00,1.000000000000000000e+00,-2.525634765625000000e-01,4.207763671875000000e-01,2.830200195312500000e-01,8.239746093750000000e-01
-2.000000000000000000e+00,2.000000000000000000e+00,-9.000000000000000000e+00,6.000000000000000000e+00,2.000000000000000000e+00,-1.000000000000000000e+00,-1.000000000000000000e+00,-2.000000000000000000e+00,-2.525634765625000000e-01,4.207763671875000000e-01,2.830200195312500000e-01,8.239746093750000000e-01
-3.000000000000000000e+00,-6.000000000000000000e+00,-3.600000000000000000e+01,-1.700000000000000000e+01,-6.000000000000000000e+00,0.000000000000000000e+00,2.000000000000000000e+00,0.000000000000000000e+00,-2.525634765625000000e-01,4.207763671875000000e-01,2.830200195312500000e-01,8.239746093750000000e-01
1.000000000000000000e+00,-5.000000000000000000e+00,-1.200000000000000000e+01,1.000000000000000000e+00,-1.000000000000000000e+00,-4.000000000000000000e+00,-3.000000000000000000e+00,-4.000000000000000000e+00,-2.525634765625000000e-01,4.207763671875000000e-01,2.830200195312500000e-01,8.239746093750000000e-01
0.000000000000000000e+00,4.000000000000000000e+00,2.100000000000000000e+01,7.000000000000000000e+00,-6.000000000000000000e+00,-1.000000000000000000e+00,-2.000000000000000000e+00,2.000000000000000000e+00,-2.537231445312500000e-01,4.201049804687500000e-01,2.827758789062500000e-01,8.240966796875000000e-01
-3.000000000000000000e+00,-3.000000000000000000e+00,-1.000000000000000000e+00,-4.000000000000000000e+00,-1.000000000000000000e+00,-5.000000000000000000e+00,1.000000000000000000e+00,-1.000000000000000000e+00,-2.537231445312500000e-01,4.201049804687500000e-01,2.827758789062500000e-01,8.240966796875000000e-01
4.000000000000000000e+00,0.000000000000000000e+00,5.000000000000000000e+00,-2.000000000000000000e+00,6.000000000000000000e+00,1.000000000000000000e+00,-4.000000000000000000e+00,1.000000000000000000e+00,-2.537231445312500000e-01,4.201049804687500000e-01,2.827758789062500000e-01,8.240966796875000000e-01
0.000000000000000000e+00,0.000000000000000000e+00,-1.100000000000000000e+01,1.500000000000000000e+01,4.000000000000000000e+00,0.000000000000000000e+00,-1.000000000000000000e+00,1.000000000000000000e+00,-2.537231445312500000e-01,4.201049804687500000e-01,2.827758789062500000e-01,8.240966796875000000e-01
-7.000000000000000000e+00,-1.000000000000000000e+01,-3.200000000000000000e+01,-4.000000000000000000e+00,-1.000000000000000000e+00,-2.000000000000000000e+00,3.000000000000000000e+00,-4.000000000000000000e+00,-2.542114257812500000e-01,4.200439453125000000e-01,2.821655273437500000e-01,8.241577148437500000e-01
-3.000000000000000000e+00,2.000000000000000000e+00,1.300000000000000000e+01,1.400000000000000000e+01,-2.000000000000000000e+00,2.000000000000000000e+00,0.000000000000000000e+00,1.000000000000000000e+00,-2.542114257812500000e-01,4.200439453125000000e-01,2.821655273437500000e-01,8.241577148437500000e-01
-8.000000000000000000e+00,-2.000000000000000000e+00,1.000000000000000000e+00,2.600000000000000000e+01,0.000000000000000000e+00,-3.000000000000000000e+00,-1.000000000000000000e+00,0.000000000000000000e+00,-2.542114257812500000e-01,4.200439453125000000e-01,2.821655273437500000e-01,8.241577148437500000e-01
7.000000000000000000e+00,1.000000000000000000e+00,1.100000000000000000e+01,-4.800000000000000000e+01,-9.000000000000000000e+00,0.000000000000000000e+00,-1.000000000000000000e+00,-2.000000000000000000e+00,-2.542114257812500000e-01,4.200439453125000000e-01,2.821655273437500000e-01,8.241577148437500000e-01
-5.000000000000000000e+00,1.000000000000000000e+00,1.100000000000000000e+01,3.000000000000000000e+00,3.000000000000000000e+00,-2.000000000000000000e+00,-1.000000000000000000e+00,-2.000000000000000000e+00,-2.542114257812500000e-01,4.200439453125000000e-01,2.817382812500000000e-01,8.242797851562500000e-01
0.000000000000000000e+00,-1.000000000000000000e+00,-7.000000000000000000e+00,7.000000000000000000e+00,-1.000000000000000000e+00,-1.000000000000000000e+00,-5.000000000000000000e+00,1.000000000000000000e+00,-2.542114257812500000e-01,4.200439453125000000e-01,2.817382812500000000e-01,8.242797851562500000e-01
1.000000000000000000e+00,-1.000000000000000000e+00,6.000000000000000000e+00,-4.000000000000000000e+00,-3.000000000000000000e+00,-3.000000000000000000e+00,1.000000000000000000e+00,-1.000000000000000000e+00,-2.542114257812500000e-01,4.200439453125000000e-01,2.817382812500000000e-01,8.242797851562500000e-01
-5.000000000000000000e+00,1.000000000000000000e+00,1.700000000000000000e+01,-6.000000000000000000e+00,-1.000000000000000000e+00,-2.000000000000000000e+00,0.000000000000000000e+00,0.000000000000000000e+00,-2.542114257812500000e-01,4.200439453125000000e-01,2.817382812500000000e-01,8.242797851562500000e-01
5.000000000000000000e+00,-2.000000000000000000e+00,-8.000000000000000000e+00,3.000000000000000000e+00,-1.000000000000000000e+00,2.000000000000000000e+00,3.000000000000000000e+00,2.000000000000000000e+00,-2.540893554687500000e-01,4.202880859375000000e-01,2.815551757812500000e-01,8.242797851562500000e-01
-5.000000000000000000e+00,-7.000000000000000000e+00,-1.400000000000000000e+01,2.900000000000000000e+01,3.000000000000000000e+00,-1.000000000000000000e+00,-3.000000000000000000e+00,-4.000000000000000000e+00,-2.540893554687500000e-01,4.202880859375000000e-01,2.815551757812500000e-01,8.242797851562500000e-01
3.000000000000000000e+00,5.000000000000000000e+00,3.800000000000000000e+01,-6.300000000000000000e+01,-1.100000000000000000e+01,1.000000000000000000e+00,-2.000000000000000000e+00,-2.000000000000000000e+00,-2.540893554687500000e-01,4.202880859375000000e-01,2.815551757812500000e-01,8.242797851562500000e-01
-1.000000000000000000e+00,-3.000000000000000000e+00,-1.700000000000000000e+01,3.000000000000000000e+01,5.000000000000000000e+00,2.000000000000000000e+00,1.000000000000000000e+00,-2.000000000000000000e+00,-2.540893554687500000e-01,4.202880859375000000e-01,2.815551757812500000e-01,8.242797851562500000e-01
2.000000000000000000e+00,4.000000000000000000e+00,1.000000000000000000e+01,-6.000000000000000000e+00,1.000000000000000000e+00,3.000000000000000000e+00,-3.000000000000000000e+00,-1.000000000000000000e+00,-2.537841796875000000e-01,4.207153320312500000e-01,2.813110351562500000e-01,8.242187500000000000e-01
-2.000000000000000000e+00,-3.000000000000000000e+00,9.000000000000000000e+00,-4.000000000000000000e+00,-4.000000000000000000e+00,-2.000000000000000000e+00,-1.000000000000000000e+00,0.000000000000000000e+00,-2.537841796875000000e-01,4.207153320312500000e-01,2.813110351562500000e-01,8.242187500000000000e-01
1.000000000000000000e+00,-3.000000000000000000e+00,-1.900000000000000000e+01,9.000000000000000000e+00,1.000000000000000000e+00,-5.000000000000000000e+00,-3.000000000000000000e+00,-3.000000000000000000e+00,-2.537841796875000000e-01,4.207153320312500000e-01,2.813110351562500000e-01,8.242187500000000000e-01
1.000000000000000000e+00,0.000000000000000000e+00,6.000000000000000000e+00,-3.000000000000000000e+00,-4.000000000000000000e+00,3.000000000000000000e+00,3.000000000000000000e+00,-1.000000000000000000e+00,-2.537841796875000000e-01,4.207153320312500000e-01,2.813110351562500000e-01,8.242187500000000000e-01
-6.000000000000000000e+00,4.000000000000000000e+00,1.500000000000000000e+01,1.400000000000000000e+01,3.000000000000000000e+00,2.000000000000000000e+00,1.000000000000000000e+00,-1.000000000000000000e+00,-2.536010742187500000e-01,4.209594726562500000e-01,2.811889648437500000e-01,8.242187500000000000e-01
8.000000000000000000e+00,-3.000000000000000000e+00,-4.000000000000000000e+00,-1.200000000000000000e+01,-1.000000000000000000e+00,1.000000000000000000e+00,2.000000000000000000e+00,-2.000000000000000000e+00,-2.536010742187500000e-01,4.209594726562500000e-01,2.811889648437500000e-01,8.242187500000000000e-01
2.000000000000000000e+00,1.000000000000000000e+00,-9.000000000000000000e+00,-6.000000000000000000e+00,0.000000000000000000e+00,-2.000000000000000000e+00,-2.000000000000000000e+00,-2.000000000000000000e+00,-2.536010742187500000e-01,4.209594726562500000e-01,2.811889648437500000e-01,8.242187500000000000e-01
-1.000000000000000000e+01,0.000000000000000000e+00,1.700000000000000000e+01,2.300000000000000000e+01,-1.000000000000000000e+00,-1.000000000000000000e+00,-4.000000000000000000e+00,-2.000000000000000000e+00,-2.536010742187500000e-01,4.209594726562500000e-01,2.811889648437500000e-01,8.242187500000000000e-01
1.600000000000000000e+01,-1.000000000000000000e+00,1.900000000000000000e+01,2.700000000000000000e+01,4.000000000000000000e+00,0.000000000000000000e+00,-1.000000000000000000e+00,0.000000000000000000e+00,-2.536010742187500000e-01,4.210205078125000000e-01,2.808837890625000000e-01,8.242797851562500000e-01
-4.000000000000000000e+00,-4.000000000000000000e+00,-4.000000000000000000e+01,-8.600000000000000000e+01,-1.800000000000000000e+01,-8.000000000000000000e+00,-7.000000000000000000e+00,-2.000000000000000000e+00,-2.536010742187500000e-01,4.210205078125000000e-01,2.808837890625000000e-01,8.242797851562500000e-01
-1.000000000000000000e+00,-1.000000000000000000e+00,8.000000000000000000e+00,1.200000000000000000e+01,0.000000000000000000e+00,5.000000000000000000e+00,4.000000000000000000e+00,-1.000000000000000000e+00,-2.536010742187500000e-01,4.210205078125000000e-01,2.808837890625000000e-01,8.242797851562500000e-01
3.000000000000000000e+00,1.000000000000000000e+00,-2.000000000000000000e+00,1.000000000000000000e+00,3.000000000000000000e+00,2.000000000000000000e+00,4.000000000000000000e+00,1.000000000000000000e+00,-2.536010742187500000e-01,4.210205078125000000e-01,2.808837890625000000e-01,8.242797851562500000e-01
-1.000000000000000000e+01,-2.000000000000000000e+00,1.000000000000000000e+01,1.200000000000000000e+01,0.000000000000000000e+00,-1.000000000000000000e+00,-1.000000000000000000e+00,-2.000000000000000000e+00,-2.535400390625000000e-01,4.211425781250000000e-01,2.806396484375000000e-01,8.243408203125000000e-01
-4.000000000000000000e+00,0.000000000000000000e+00,8.000000000000000000e+00,1.500000000000000000e+01,2.000000000000000000e+00,2.000000000000000000e+00,0.000000000000000000e+00,-4.000000000000000000e+00,-2.535400390625000000e-01,4.211425781250000000e-01,2.806396484375000000e-01,8.243408203125000000e-01
3.000000000000000000e+00,-2.000000000000000000e+00,-2.000000000000000000e+00,1.000000000000000000e+00,-1.000000000000000000e+00,-8.000000000000000000e+00,-5.000000000000000000e+00,-2.000000000000000000e+00,-2.535400390625000000e-01,4.211425781250000000e-01,2.806396484375000000e-01,8.243408203125000000e-01
-5.000000000000000000e+00,-5.000000000000000000e+00,-7.000000000000000000e+00,6.000000000000000000e+01,2.000000000000000000e+00,0.000000000000000000e+00,-2.000000000000000000e+00,-2.000000000000000000e+00,-2.535400390625000000e-01,4.211425781250000000e-01,2.806396484375000000e-01,8.243408203125000000e-01
-5.000000000000000000e+00,-4.000000000000000000e+00,-2.500000000000000000e+01,-9.300000000000000000e+01,-1.000000000000000000e+01,0.000000000000000000e+00,1.000000000000000000e+00,-1.000000000000000000e+00,-2.534179687500000000e-01,4.211425781250000000e-01,2.803955078125000000e-01,8.244628906250000000e-01
0.000000000000000000e+00,1.000000000000000000e+00,4.000000000000000000e+00,1.100000000000000000e+01,-7.000000000000000000e+00,-4.000000000000000000e+00,-1.000000000000000000e+00,0.000000000000000000e+00,-2.534179687500000000e-01,4.211425781250000000e-01,2.803955078125000000e-01,8.244628906250000000e-01
-1.000000000000000000e+00,-3.000000000000000000e+00,-1.300000000000000000e+01,6.000000000000000000e+00,1.000000000000000000e+00,0.000000000000000000e+00,0.000000000000000000e+00,0.000000000000000000e+00,-2.534179687500000000e-01,4.211425781250000000e-01,2.803955078125000000e-01,8.244628906250000000e-01
1.000000000000000000e+00,0.000000000000000000e+00,-2.000000000000000000e+00,4.000000000000000000e+00,-3.000000000000000000e+00,-3.000000000000000000e+00,-2.000000000000000000e+00,1.000000000000000000e+00,-2.534179687500000000e-01,4.211425781250000000e-01,2.803955078125000000e-01,8.244628906250000000e-01
-4.000000000000000000e+00,-3.000000000000000000e+00,-3.000000000000000000e+00,2.300000000000000000e+01,5.000000000000000000e+00,-3.000000000000000000e+00,-3.000000000000000000e+00,-4.000000000000000000e+00,-2.534790039062500000e-01,4.211425781250000000e-01,2.803955078125000000e-01,8.244628906250000000e-01
1.000000000000000000e+00,1.000000000000000000e+00,9.000000000000000000e+00,3.000000000000000000e+00,0.000000000000000000e+00,-1.000000000000000000e+00,-2.000000000000000000e+00,1.000000000000000000e+00,-2.534790039062500000e-01,4.211425781250000000e-01,2.803955078125000000e-01,8.244628906250000000e-01
-1.000000000000000000e+00,-3.000000000000000000e+00,1.400000000000000000e+01,-1.900000000000000000e+01,-1.000000000000000000e+00,2.000000000000000000e+00,3.000000000000000000e+00,0.000000000000000000e+00,-2.534790039062500000e-01,4.211425781250000000e-01,2.803955078125000000e-01,8.244628906250000000e-01
-1.000000000000000000e+00,1.000000000000000000e+00,-1.200000000000000000e+01,0.000000000000000000e+00,1.000000000000000000e+00,-2.000000000000000000e+00,0.000000000000000000e+00,0.000000000000000000e+00,-2.534790039062500000e-01,4.211425781250000000e-01,2.803955078125000000e-01,8.244628906250000000e-01
-2.000000000000000000e+00,-3.000000000000000000e+00,-3.000000000000000000e+00,3.200000000000000000e+01,-4.000000000000000000e+00,-1.000000000000000000e+00,-2.000000000000000000e+00,1.000000000000000000e+00,-2.533569335937500000e-01,4.207763671875000000e-01,2.799682617187500000e-01,8.247680664062500000e-01
-5.000000000000000000e+00,0.000000000000000000e+00,-2.500000000000000000e+01,-6.400000000000000000e+01,-1.000000000000000000e+00,-4.000000000000000000e+00,-3.000000000000000000e+00,-3.000000000000000000e+00,-2.533569335937500000e-01,4.207763671875000000e-01,2.799682617187500000e-01,8.247680664062500000e-01
-1.000000000000000000e+00,1.000000000000000000e+00,1.000000000000000000e+01,2.100000000000000000e+01,0.000000000000000000e+00,-6.000000000000000000e+00,-5.000000000000000000e+00,-3.000000000000000000e+00,-2.533569335937500000e-01,4.207763671875000000e-01,2.799682617187500000e-01,8.247680664062500000e-01
0.000000000000000000e+00,-1.000000000000000000e+00,2.200000000000000000e+01,-1.600000000000000000e+01,0.000000000000000000e+00,-1.000000000000000000e+00,0.000000000000000000e+00,1.000000000000000000e+00,-2.533569335937500000e-01,4.207763671875000000e-01,2.799682617187500000e-01,8.247680664062500000e-01
-6.000000000000000000e+00,1.000000000000000000e+00,5.000000000000000000e+00,1.300000000000000000e+01,3.000000000000000000e+00,-1.000000000000000000e+00,-4.000000000000000000e+00,-1.000000000000000000e+00,-2.535400390625000000e-01,4.202880859375000000e-01,2.797241210937500000e-01,8.250732421875000000e-01
5.000000000000000000e+00,2.000000000000000000e+00,-1.000000000000000000e+01,1.100000000000000000e+01,2.000000000000000000e+00,1.100000000000000000e+01,8.000000000000000000e+00,1.000000000000000000e+00,-2.535400390625000000e-01,4.202880859375000000e-01,2.797241210937500000e-01,8.250732421875000000e-01
-3.000000000000000000e+00,-8.000000000000000000e+00,-2.300000000000000000e+01,1.000000000000000000e+01,0.000000000000000000e+00,1.000000000000000000e+00,3.000000000000000000e+00,-2.000000000000000000e+00,-2.535400390625000000e-01,4.202880859375000000e-01,2.797241210937500000e-01,8.250732421875000000e-01
3.000000000000000000e+00,-3.000000000000000000e+00,-1.000000000000000000e+00,6.000000000000000000e+00,2.000000000000000000e+00,-1.000000000000000000e+00,0.000000000000000000e+00,0.000000000000000000e+00,-2.535400390625000000e-01,4.202880859375000000e-01,2.797241210937500000e-01,8.250732421875000000e-01
3.000000000000000000e+00,4.000000000000000000e+00,1.200000000000000000e+01,-2.700000000000000000e+01,-3.000000000000000000e+00,-3.000000000000000000e+00,1.000000000000000000e+00,0.000000000000000000e+00,-2.538452148437500000e-01,4.198608398437500000e-01,2.797241210937500000e-01,8.251953125000000000e-01
-2.000000000000000000e+00,-1.000000000000000000e+00,1.400000000000000000e+01,4.600000000000000000e+01,8.000000000000000000e+00,-1.000000000000000000e+00,-4.000000000000000000e+00,0.000000000000000000e+00,-2.538452148437500000e-01,4.198608398437500000e-01,2.797241210937500000e-01,8.251953125000000000e-01
0.000000000000000000e+00,-6.000000000000000000e+00,-6.000000000000000000e+00,-1.300000000000000000e+01,-6.000000000000000000e+00,1.000000000000000000e+00,1.000000000000000000e+00,-1.000000000000000000e+00,-2.538452148437500000e-01,4.198608398437500000e-01,2.797241210937500000e-01,8.251953125000000000e-01
0.000000000000000000e+00,7.000000000000000000e+00,-3.000000000000000000e+00,-2.800000000000000000e+01,-5.000000000000000000e+00,-2.000000000000000000e+00,-4.000000000000000000e+00,-2.000000000000000000e+00,-2.538452148437500000e-01,4.198608398437500000e-01,2.797241210937500000e-01,8.251953125000000000e-01
-2.000000000000000000e+00,-7.000000000000000000e+00,8.000000000000000000e+00,1.900000000000000000e+01,2.000000000000000000e+00,-1.000000000000000000e+00,1.000000000000000000e+00,2.000000000000000000e+00,-2.540893554687500000e-01,4.195556640625000000e-01,2.797241210937500000e-01,8.252563476562500000e-01
1.000000000000000000e+00,1.200000000000000000e+01,3.000000000000000000e+01,1.000000000000000000e+01,3.000000000000000000e+00,-2.000000000000000000e+00,0.000000000000000000e+00,2.000000000000000000e+00,-2.540893554687500000e-01,4.195556640625000000e-01,2.797241210937500000e-01,8.252563476562500000e-01
-2.000000000000000000e+00,-3.000000000000000000e+00,-1.000000000000000000e+01,4.000000000000000000e+00,1.000000000000000000e+00,4.000000000000000000e+00,3.000000000000000000e+00,0.000000000000000000e+00,-2.540893554687500000e-01,4.195556640625000000e-01,2.797241210937500000e-01,8.252563476562500000e-01
-1.000000000000000000e+00,0.000000000000000000e+00,1.300000000000000000e+01,5.000000000000000000e+00,-6.000000000000000000e+00,-5.000000000000000000e+00,-6.000000000000000000e+00,-2.000000000000000000e+00,-2.540893554687500000e-01,4.195556640625000000e-01,2.797241210937500000e-01,8.252563476562500000e-01
-4.000000000000000000e+00,-1.000000000000000000e+01,-2.200000000000000000e+01,-1.300000000000000000e+01,-2.000000000000000000e+00,-3.000000000000000000e+00,0.000000000000000000e+00,-2.000000000000000000e+00,-2.539672851562500000e-01,4.194335937500000000e-01,2.798461914062500000e-01,8.253173828125000000e-01
-1.000000000000000000e+00,-5.000000000000000000e+00,1.700000000000000000e+01,2.500000000000000000e+01,2.000000000000000000e+00,0.000000000000000000e+00,-2.000000000000000000e+00,-4.000000000000000000e+00,-2.539672851562500000e-01,4.194335937500000000e-01,2.798461914062500000e-01,8.253173828125000000e-01
3.000000000000000000e+00,8.000000000000000000e+00,2.000000000000000000e+00,-2.500000000000000000e+01,-8.000000000000000000e+00,-1.000000000000000000e+00,0.000000000000000000e+00,2.000000000000000000e+00,-2.539672851562500000e-01,4.194335937500000000e-01,2.798461914062500000e-01,8.253173828125000000e-01
-3.000000000000000000e+00,-2.000000000000000000e+00,-7.000000000000000000e+00,-1.000000000000000000e+01,5.000000000000000000e+00,4.000000000000000000e+00,2.000000000000000000e+00,1.000000000000000000e+00,-2.539672851562500000e-01,4.194335937500000000e-01,2.798461914062500000e-01,8.253173828125000000e-01
8.000000000000000000e+00,1.000000000000000000e+00,-1.000000000000000000e+00,1.700000000000000000e+01,-1.000000000000000000e+00,-8.000000000000000000e+00,-1.000000000000000000e+00,-3.000000000000000000e+00,-2.539062500000000000e-01,4.194335937500000000e-01,2.798461914062500000e-01,8.253173828125000000e-01
0.000000000000000000e+00,-1.000000000000000000e+00,2.200000000000000000e+01,-6.000000000000000000e+00,-5.000000000000000000e+00,-2.000000000000000000e+00,-2.000000000000000000e+00,-1.000000000000000000e+00,-2.539062500000000000e-01,4.194335937500000000e-01,2.798461914062500000e-01,8.253173828125000000e-01
2.000000000000000000e+00,4.000000000000000000e+00,1.200000000000000000e+01,-9.000000000000000000e+00,0.000000000000000000e+00,5.000000000000000000e+00,4.000000000000000000e+00,1.000000000000000000e+00,-2.539062500000000000e-01,4.194335937500000000e-01,2.798461914062500000e-01,8.253173828125000000e-01
-4.000000000000000000e+00,-1.000000000000000000e+01,-5.400000000000000000e+01,-1.900000000000000000e+01,-5.000000000000000000e+00,-1.000000000000000000e+00,0.000000000000000000e+00,-3.000000000000000000e+00,-2.539062500000000000e-01,4.194335937500000000e-01,2.798461914062500000e-01,8.253173828125000000e-01
-3.000000000000000000e+00,6.000000000000000000e+00,1.200000000000000000e+01,2.000000000000000000e+00,-1.000000000000000000e+00,3.000000000000000000e+00,2.000000000000000000e+00,1.000000000000000000e+00,-2.542114257812500000e-01,4.193115234375000000e-01,2.801513671875000000e-01,8.251953125000000000e-01
-1.000000000000000000e+00,1.000000000000000000e+00,1.800000000000000000e+01,3.300000000000000000e+01,4.000000000000000000e+00,-7.000000000000000000e+00,-3.000000000000000000e+00,-2.000000000000000000e+00,-2.542114257812500000e-01,4.193115234375000000e-01,2.801513671875000000e-01,8.251953125000000000e-01
-2.000000000000000000e+00,-5.000000000000000000e+00,-3.100000000000000000e+01,-1.700000000000000000e+01,-2.000000000000000000e+00,-5.000000000000000000e+00,-3.000000000000000000e+00,-2.000000000000000000e+00,-2.542114257812500000e-01,4.193115234375000000e-01,2.801513671875000000e-01,8.251953125000000000e-01
2.000000000000000000e+00,2.000000000000000000e+00,6.000000000000000000e+00,-2.000000000000000000e+01,-9.000000000000000000e+00,-3.000000000000000000e+00,0.000000000000000000e+00,-1.000000000000000000e+00,-2.542114257812500000e-01,4.193115234375000000e-01,2.801513671875000000e-01,8.251953125000000000e-01
-1.000000000000000000e+00,-1.000000000000000000e+00,0.000000000000000000e+00,2.300000000000000000e+01,5.000000000000000000e+00,-1.000000000000000000e+00,-3.000000000000000000e+00,-3.000000000000000000e+00,-2.540893554687500000e-01,4.193115234375000000e-01,2.803344726562500000e-01,8.251953125000000000e-01
-3.000000000000000000e+00,-8.000000000000000000e+00,-2.800000000000000000e+01,1.000000000000000000e+00,-2.000000000000000000e+00,-2.000000000000000000e+00,-2.000000000000000000e+00,1.000000000000000000e+00,-2.540893554687500000e-01,4.193115234375000000e-01,2.803344726562500000e-01,8.251953125000000000e-01
-1.000000000000000000e+00,5.000000000000000000e+00,2.400000000000000000e+01,-2.900000000000000000e+01,-3.000000000000000000e+00,-3.000000000000000000e+00,-5.000000000000000000e+00,-1.000000000000000000e+00,-2.540893554687500000e-01,4.193115234375000000e-01,2.803344726562500000e-01,8.251953125000000000e-01
1.000000000000000000e+00,0.000000000000000000e+00,9.000000000000000000e+00,1.400000000000000000e+01,1.000000000000000000e+00,-1.000000000000000000e+00,1.000000000000000000e+00,0.000000000000000000e+00,-2.540893554687500000e-01,4.193115234375000000e-01,2.803344726562500000e-01,8.251953125000000000e-01
-3.000000000000000000e+00,-3.000000000000000000e+00,-1.500000000000000000e+01,-1.300000000000000000e+01,0.000000000000000000e+00,0.000000000000000000e+00,-1.000000000000000000e+00,-2.000000000000000000e+00,-2.539062500000000000e-01,4.193725585937500000e-01,2.805786132812500000e-01,8.251342773437500000e-01
-2.000000000000000000e+00,2.000000000000000000e+00,-1.200000000000000000e+01,2.500000000000000000e+01,4.000000000000000000e+00,1.000000000000000000e+00,0.000000000000000000e+00,-1.000000000000000000e+00,-2.539062500000000000e-01,4.193725585937500000e-01,2.805786132812500000e-01,8.251342773437500000e-01
-2.000000000000000000e+00,2.000000000000000000e+00,1.000000000000000000e+00,-1.000000000000000000e+00,-1.000000000000000000e+00,-2.000000000000000000e+00,-3.000000000000000000e+00,-1.000000000000000000e+00,-2.539062500000000000e-01,4.193725585937500000e-01,2.805786132812500000e-01,8.251342773437500000e-01
-3.000000000000000000e+00,-7.000000000000000000e+00,-1.500000000000000000e+01,-1.100000000000000000e+01,-7.000000000000000000e+00,-6.000000000000000000e+00,-3.000000000000000000e+00,-1.000000000000000000e+00,-2.539062500000000000e-01,4.193725585937500000e-01,2.805786132812500000e-01,8.251342773437500000e-01
-5.000000000000000000e+00,-1.000000000000000000e+00,5.000000000000000000e+00,-1.100000000000000000e+01,-2.000000000000000000e+00,-2.000000000000000000e+00,-2.000000000000000000e+00,-1.000000000000000000e+00,-2.536010742187500000e-01,4.193725585937500000e-01,2.809448242187500000e-01,8.251342773437500000e-01
8.000000000000000000e+00,-1.000000000000000000e+00,8.000000000000000000e+00,-3.000000000000000000e+00,-2.000000000000000000e+00,1.000000000000000000e+00,-3.000000000000000000e+00,1.000000000000000000e+00,-2.536010742187500000e-01,4.193725585937500000e-01,2.809448242187500000e-01,8.251342773437500000e-01
1.000000000000000000e+00,-4.000000000000000000e+00,-1.400000000000000000e+01,2.800000000000000000e+01,0.000000000000000000e+00,-1.000000000000000000e+00,1.000000000000000000e+00,-1.000000000000000000e+00,-2.536010742187500000e-01,4.193725585937500000e-01,2.809448242187500000e-01,8.251342773437500000e-01
0.000000000000000000e+00,1.000000000000000000e+00,1.600000000000000000e+01,-8.000000000000000000e+00,-1.000000000000000000e+00,-1.000000000000000000e+00,-2.000000000000000000e+00,-1.000000000000000000e+00,-2.536010742187500000e-01,4.193725585937500000e-01,2.809448242187500000e-01,8.251342773437500000e-01
-2.000000000000000000e+00,3.000000000000000000e+00,-6.000000000000000000e+00,2.300000000000000000e+01,0.000000000000000000e+00,0.000000000000000000e+00,-3.000000000000000000e+00,1.000000000000000000e+00,-2.534790039062500000e-01,4.191284179687500000e-01,2.814331054687500000e-01,8.251342773437500000e-01
-1.000000000000000000e+01,-6.000000000000000000e+00,-7.000000000000000000e+00,-3.900000000000000000e+01,-7.000000000000000000e+00,-7.000000000000000000e+00,-3.000000000000000000e+00,-5.000000000000000000e+00,-2.534790039062500000e-01,4.191284179687500000e-01,2.814331054687500000e-01,8.251342773437500000e-01
1.000000000000000000e+01,3.000000000000000000e+00,1.200000000000000000e+01,3.200000000000000000e+01,6.000000000000000000e+00,6.000000000000000000e+00,4.000000000000000000e+00,1.000000000000000000e+00,-2.534790039062500000e-01,4.191284179687500000e-01,2.814331054687500000e-01,8.251342773437500000e-01
-1.000000000000000000e+00,-3.000000000000000000e+00,-1.300000000000000000e+01,-1.700000000000000000e+01,-1.100000000000000000e+01,-5.000000000000000000e+00,-4.000000000000000000e+00,-2.000000000000000000e+00,-2.534790039062500000e-01,4.191284179687500000e-01,2.814331054687500000e-01,8.251342773437500000e-01
-1.000000000000000000e+00,-3.000000000000000000e+00,-4.000000000000000000e+00,2.000000000000000000e+00,1.000000000000000000e+00,3.000000000000000000e+00,0.000000000000000000e+00,-1.000000000000000000e+00,-2.534179687500000000e-01,4.188232421875000000e-01,2.817993164062500000e-01,8.251342773437500000e-01
-2.000000000000000000e+00,0.000000000000000000e+00,1.000000000000000000e+00,1.000000000000000000e+00,2.000000000000000000e+00,-1.000000000000000000e+00,-6.000000000000000000e+00,-2.000000000000000000e+00,-2.534179687500000000e-01,4.188232421875000000e-01,2.817993164062500000e-01,8.251342773437500000e-01
-2.000000000000000000e+00,-1.000000000000000000e+00,1.500000000000000000e+01,2.000000000000000000e+00,-2.000000000000000000e+00,-6.000000000000000000e+00,-5.000000000000000000e+00,-2.000000000000000000e+00,-2.534179687500000000e-01,4.188232421875000000e-01,2.817993164062500000e-01,8.251342773437500000e-01
-5.000000000000000000e+00,-4.000000000000000000e+00,-4.000000000000000000e+00,5.000000000000000000e+00,5.000000000000000000e+00,2.000000000000000000e+00,-2.000000000000000000e+00,-2.000000000000000000e+00,-2.534179687500000000e-01,4.188232421875000000e-01,2.817993164062500000e-01,8.251342773437500000e-01
0.000000000000000000e+00,-2.000000000000000000e+00,-1.100000000000000000e+01,-1.800000000000000000e+01,-1.000000000000000000e+00,-2.000000000000000000e+00,0.000000000000000000e+00,-1.000000000000000000e+00,-2.532958984375000000e-01,4.187622070312500000e-01,2.821044921875000000e-01,8.251342773437500000e-01
2.000000000000000000e+00,5.000000000000000000e+00,1.200000000000000000e+01,-1.800000000000000000e+01,-3.000000000000000000e+00,-3.000000000000000000e+00,0.000000000000000000e+00,2.000000000000000000e+00,-2.532958984375000000e-01,4.187622070312500000e-01,2.821044921875000000e-01,8.251342773437500000e-01
-6.000000000000000000e+00,-4.000000000000000000e+00,8.000000000000000000e+00,3.500000000000000000e+01,4.000000000000000000e+00,3.000000000000000000e+00,-1.000000000000000000e+00,-3.000000000000000000e+00,-2.532958984375000000e-01,4.187622070312500000e-01,2.821044921875000000e-01,8.251342773437500000e-01
0.000000000000000000e+00,-2.000000000000000000e+00,-8.000000000000000000e+00,-7.000000000000000000e+00,-1.000000000000000000e+00,-2.000000000000000000e+00,0.000000000000000000e+00,-2.000000000000000000e+00,-2.532958984375000000e-01,4.187622070312500000e-01,2.821044921875000000e-01,8.251342773437500000e-01
-5.000000000000000000e+00,-4.000000000000000000e+00,-1.000000000000000000e+00,-7.000000000000000000e+00,3.000000000000000000e+00,-1.000000000000000000e+00,-3.000000000000000000e+00,-4.000000000000000000e+00,-2.528686523437500000e-01,4.189453125000000000e-01,2.822875976562500000e-01,8.250732421875000000e-01
6.000000000000000000e+00,-1.000000000000000000e+00,1.000000000000000000e+00,-3.200000000000000000e+01,-1.200000000000000000e+01,-1.000000000000000000e+00,2.000000000000000000e+00,2.000000000000000000e+00,-2.528686523437500000e-01,4.189453125000000000e-01,2.822875976562500000e-01,8.250732421875000000e-01
-3.000000000000000000e+00,1.000000000000000000e+00,-2.400000000000000000e+01,-1.000000000000000000e+00,0.000000000000000000e+00,0.000000000000000000e+00,-1.000000000000000000e+00,2.000000000000000000e+00,-2.528686523437500000e-01,4.189453125000000000e-01,2.822875976562500000e-01,8.250732421875000000e-01
-1.000000000000000000e+00,-4.000000000000000000e+00,-2.600000000000000000e+01,-3.000000000000000000e+00,-1.000000000000000000e+00,1.000000000000000000e+00,-1.000000000000000000e+00,1.000000000000000000e+00,-2.528686523437500000e-01,4.189453125000000000e-01,2.822875976562500000e-01,8.250732421875000000e-01
1.000000000000000000e+00,0.000000000000000000e+00,-1.000000000000000000e+00,6.000000000000000000e+00,0.000000000000000000e+00,-1.000000000000000000e+00,-1.000000000000000000e+00,-3.000000000000000000e+00,-2.528076171875000000e-01,4.190063476562500000e-01,2.822875976562500000e-01,8.250732421875000000e-01
-4.000000000000000000e+00,-3.000000000000000000e+00,-1.000000000000000000e+01,9.000000000000000000e+00,3.000000000000000000e+00,1.000000000000000000e+00,1.000000000000000000e+00,-2.000000000000000000e+00,-2.528076171875000000e-01,4.190063476562500000e-01,2.822875976562500000e-01,8.250732421875000000e-01
-1.000000000000000000e+00,0.000000000000000000e+00,2.300000000000000000e+01,2.000000000000000000e+00,-1.000000000000000000e+00,-6.000000000000000000e+00,-3.000000000000000000e+00,-1.000000000000000000e+00,-2.528076171875000000e-01,4.190063476562500000e-01,2.822875976562500000e-01,8.250732421875000000e-01
0.000000000000000000e+00,1.000000000000000000e+00,-1.300000000000000000e+01,-7.000000000000000000e+00,-4.000000000000000000e+00,-5.000000000000000000e+00,-3.000000000000000000e+00,0.000000000000000000e+00,-2.528076171875000000e-01,4.190063476562500000e-01,2.822875976562500000e-01,8.250732421875000000e-01
0.000000000000000000e+00,0.000000000000000000e+00,7.000000000000000000e+00,3.000000000000000000e+00,-1.000000000000000000e+00,8.000000000000000000e+00,6.000000000000000000e+00,0.000000000000000000e+00,-2.523803710937500000e-01,4.187622070312500000e-01,2.824707031250000000e-01,8.252563476562500000e-01
-2.000000000000000000e+00,-4.000000000000000000e+00,-6.000000000000000000e+00,-1.000000000000000000e+00,2.000000000000000000e+00,2.000000000000000000e+00,-1.000000000000000000e+00,1.000000000000000000e+00,-2.523803710937500000e-01,4.187622070312500000e-01,2.824707031250000000e-01,8.252563476562500000e-01
-9.000000000000000000e+00,-3.000000000000000000e+00,-6.000000000000000000e+00,3.000000000000000000e+00,-4.000000000000000000e+00,-5.000000000000000000e+00,-4.000000000000000000e+00,-3.000000000000000000e+00,-2.523803710937500000e-01,4.187622070312500000e-01,2.824707031250000000e-01,8.252563476562500000e-01
0.000000000000000000e+00,2.000000000000000000e+00,2.900000000000000000e+01,-1.900000000000000000e+01,-2.000000000000000000e+00,-1.000000000000000000e+00,-1.000000000000000000e+00,-1.000000000000000000e+00,-2.523803710937500000e-01,4.187622070312500000e-01,2.824707031250000000e-01,8.252563476562500000e-01
0.000000000000000000e+00,-1.000000000000000000e+00,-2.100000000000000000e+01,-1.000000000000000000e+00,-3.000000000000000000e+00,-5.000000000000000000e+00,-1.000000000000000000e+00,-2.000000000000000000e+00,-2.520141601562500000e-01,4.187011718750000000e-01,2.825927734375000000e-01,8.253784179687500000e-01
-2.000000000000000000e+00,-2.000000000000000000e+00,4.000000000000000000e+00,7.000000000000000000e+00,-2.000000000000000000e+00,2.000000000000000000e+00,1.000000000000000000e+00,-1.000000000000000000e+00,-2.520141601562500000e-01,4.187011718750000000e-01,2.825927734375000000e-01,8.253784179687500000e-01
1.000000000000000000e+00,1.000000000000000000e+00,-5.000000000000000000e+00,1.000000000000000000e+00,1.000000000000000000e+00,1.000000000000000000e+00,0.000000000000000000e+00,-1.000000000000000000e+00,-2.520141601562500000e-01,4.187011718750000000e-01,2.825927734375000000e-01,8.253784179687500000e-01
-4.000000000000000000e+00,-3.000000000000000000e+00,2.500000000000000000e+01,2.000000000000000000e+00,2.000000000000000000e+00,0.000000000000000000e+00,-3.000000000000000000e+00,-2.000000000000000000e+00,-2.520141601562500000e-01,4.187011718750000000e-01,2.825927734375000000e-01,8.253784179687500000e-01
1.000000000000000000e+00,2.000000000000000000e+00,5.000000000000000000e+00,1.600000000000000000e+01,0.000000000000000000e+00,-1.000000000000000000e+00,-2.000000000000000000e+00,0.000000000000000000e+00,-2.517700195312500000e-01,4.190063476562500000e-01,2.828369140625000000e-01,8.251953125000000000e-01
-4.000000000000000000e+00,-2.000000000000000000e+00,-4.000000000000000000e+00,1.000000000000000000e+00,-3.000000000000000000e+00,-2.000000000000000000e+00,0.000000000000000000e+00,-3.000000000000000000e+00,-2.517700195312500000e-01,4.190063476562500000e-01,2.828369140625000000e-01,8.251953125000000000e-01
-1.000000000000000000e+00,-7.000000000000000000e+00,-3.500000000000000000e+01,-1.400000000000000000e+01,1.000000000000000000e+00,-2.000000000000000000e+00,-1.000000000000000000e+00,-1.000000000000000000e+00,-2.517700195312500000e-01,4.190063476562500000e-01,2.828369140625000000e-01,8.251953125000000000e-01
2.000000000000000000e+00,1.000000000000000000e+00,2.400000000000000000e+01,5.500000000000000000e+01,3.000000000000000000e+00,-1.000000000000000000e+00,-1.000000000000000000e+00,0.000000000000000000e+00,-2.517700195312500000e-01,4.190063476562500000e-01,2.828369140625000000e-01,8.251953125000000000e-01
1.000000000000000000e+00,1.000000000000000000e+00,2.800000000000000000e+01,-6.700000000000000000e+01,-1.000000000000000000e+01,-3.000000000000000000e+00,-3.000000000000000000e+00,-1.000000000000000000e+00,-2.517700195312500000e-01,4.193115234375000000e-01,2.833862304687500000e-01,8.248901367187500000e-01
-2.000000000000000000e+00,-4.000000000000000000e+00,-2.100000000000000000e+01,2.000000000000000000e+00,1.000000000000000000e+00,1.000000000000000000e+00,2.000000000000000000e+00,-1.000000000000000000e+00,-2.517700195312500000e-01,4.193115234375000000e-01,2.833862304687500000e-01,8.248901367187500000e-01
-4.000000000000000000e+00,-4.000000000000000000e+00,-1.600000000000000000e+01,-6.000000000000000000e+00,-2.000000000000000000e+00,-2.000000000000000000e+00,0.000000000000000000e+00,-1.000000000000000000e+00,-2.517700195312500000e-01,4.193115234375000000e-01,2.833862304687500000e-01,8.248901367187500000e-01
7.000000000000000000e+00,2.000000000000000000e+00,2.000000000000000000e+00,1.000000000000000000e+01,2.000000000000000000e+00,0.000000000000000000e+00,1.000000000000000000e+00,-1.000000000000000000e+00,-2.517700195312500000e-01,4.193115234375000000e-01,2.833862304687500000e-01,8.248901367187500000e-01
-4.000000000000000000e+00,-2.000000000000000000e+00,-4.000000000000000000e+00,2.800000000000000000e+01,-1.000000000000000000e+00,-4.000000000000000000e+00,-2.000000000000000000e+00,-1.000000000000000000e+00,-2.518920898437500000e-01,4.194946289062500000e-01,2.838745117187500000e-01,8.245849609375000000e-01
0.000000000000000000e+00,-4.000000000000000000e+00,1.300000000000000000e+01,-1.400000000000000000e+01,-3.000000000000000000e+00,-3.000000000000000000e+00,-4.000000000000000000e+00,0.000000000000000000e+00,-2.518920898437500000e-01,4.194946289062500000e-01,2.838745117187500000e-01,8.245849609375000000e-01
2.000000000000000000e+00,1.000000000000000000e+00,-2.000000000000000000e+00,-1.400000000000000000e+01,0.000000000000000000e+00,2.000000000000000000e+00,4.000000000000000000e+00,-1.000000000000000000e+00,-2.518920898437500000e-01,4.194946289062500000e-01,2.838745117187500000e-01,8.245849609375000000e-01
-6.000000000000000000e+00,-3.000000000000000000e+00,-1.000000000000000000e+01,-7.000000000000000000e+00,2.000000000000000000e+00,2.000000000000000000e+00,4.000000000000000000e+00,2.000000000000000000e+00,-2.518920898437500000e-01,4.194946289062500000e-01,2.838745117187500000e-01,8.245849609375000000e-01
7.000000000000000000e+00,0.000000000000000000e+00,-4.000000000000000000e+00,9.000000000000000000e+00,0.000000000000000000e+00,0.000000000000000000e+00,-3.000000000000000000e+00,-2.000000000000000000e+00,-2.517700195312500000e-01,4.196166992187500000e-01,2.839965820312500000e-01,8.245239257812500000e-01
0.000000000000000000e+00,-2.000000000000000000e+00,8.000000000000000000e+00,3.300000000000000000e+01,2.000000000000000000e+00,-1.000000000000000000e+00,-1.000000000000000000e+00,-3.000000000000000000e+00,-2.517700195312500000e-01,4.196166992187500000e-01,2.839965820312500000e-01,8.245239257812500000e-01
-4.000000000000000000e+00,-3.000000000000000000e+00,-6.000000000000000000e+00,-3.100000000000000000e+01,-8.000000000000000000e+00,-2.000000000000000000e+00,-2.000000000000000000e+00,-2.000000000000000000e+00,-2.517700195312500000e-01,4.196166992187500000e-01,2.839965820312500000e-01,8.245239257812500000e-01
-1.000000000000000000e+00,4.000000000000000000e+00,8.000000000000000000e+00,-1.500000000000000000e+01,-3.000000000000000000e+00,-3.000000000000000000e+00,-2.000000000000000000e+00,-2.000000000000000000e+00,-2.517700195312500000e-01,4.196166992187500000e-01,2.839965820312500000e-01,8.245239257812500000e-01
-3.000000000000000000e+00,-2.000000000000000000e+00,-2.300000000000000000e+01,-6.000000000000000000e+00,3.000000000000000000e+00,2.000000000000000000e+00,0.000000000000000000e+00,-1.000000000000000000e+00,-2.511596679687500000e-01,4.200439453125000000e-01,2.839355468750000000e-01,8.244628906250000000e-01
0.000000000000000000e+00,3.000000000000000000e+00,1.100000000000000000e+01,1.900000000000000000e+01,2.000000000000000000e+00,-1.000000000000000000e+00,-2.000000000000000000e+00,1.000000000000000000e+00,-2.511596679687500000e-01,4.200439453125000000e-01,2.839355468750000000e-01,8.244628906250000000e-01
-1.000000000000000000e+00,-7.000000000000000000e+00,7.000000000000000000e+00,8.000000000000000000e+00,2.000000000000000000e+00,1.000000000000000000e+00,-3.000000000000000000e+00,0.000000000000000000e+00,-2.511596679687500000e-01,4.200439453125000000e-01,2.839355468750000000e-01,8.244628906250000000e-01
1.000000000000000000e+00,3.000000000000000000e+00,-2.000000000000000000e+00,2.000000000000000000e+01,2.000000000000000000e+00,0.000000000000000000e+00,-2.000000000000000000e+00,1.000000000000000000e+00,-2.511596679687500000e-01,4.200439453125000000e-01,2.839355468750000000e-01,8.244628906250000000e-01
-2.000000000000000000e+00,0.000000000000000000e+00,1.700000000000000000e+01,-1.400000000000000000e+01,-1.100000000000000000e+01,-6.000000000000000000e+00,-2.000000000000000000e+00,-1.000000000000000000e+00,-2.505493164062500000e-01,4.203491210937500000e-01,2.841796875000000000e-01,8.244628906250000000e-01
0.000000000000000000e+00,0.000000000000000000e+00,-1.500000000000000000e+01,-5.000000000000000000e+00,0.000000000000000000e+00,3.000000000000000000e+00,1.000000000000000000e+00,-1.000000000000000000e+00,-2.505493164062500000e-01,4.203491210937500000e-01,2.841796875000000000e-01,8.244628906250000000e-01
-2.000000000000000000e+00,-3.000000000000000000e+00,-1.500000000000000000e+01,-1.900000000000000000e+01,4.000000000000000000e+00,-2.000000000000000000e+00,0.000000000000000000e+00,-1.000000000000000000e+00,-2.505493164062500000e-01,4.203491210937500000e-01,2.841796875000000000e-01,8.244628906250000000e-01
2.000000000000000000e+00,0.000000000000000000e+00,8.000000000000000000e+00,-1.000000000000000000e+01,-2.000000000000000000e+00,1.000000000000000000e+00,1.000000000000000000e+00,1.000000000000000000e+00,-2.505493164062500000e-01,4.203491210937500000e-01,2.841796875000000000e-01,8.244628906250000000e-01
-1.000000000000000000e+00,1.000000000000000000e+00,1.400000000000000000e+01,1.800000000000000000e+01,2.000000000000000000e+00,-1.000000000000000000e+00,2.000000000000000000e+00,-1.000000000000000000e+00,-2.506103515625000000e-01,4.199829101562500000e-01,2.849121093750000000e-01,8.243408203125000000e-01
0.000000000000000000e+00,-2.000000000000000000e+00,-1.600000000000000000e+01,-8.000000000000000000e+00,-1.000000000000000000e+00,-4.000000000000000000e+00,-1.000000000000000000e+00,-1.000000000000000000e+00,-2.506103515625000000e-01,4.199829101562500000e-01,2.849121093750000000e-01,8.243408203125000000e-01
1.000000000000000000e+00,3.000000000000000000e+00,9.000000000000000000e+00,1.800000000000000000e+01,-1.000000000000000000e+00,-4.000000000000000000e+00,-1.000000000000000000e+00,0.000000000000000000e+00,-2.506103515625000000e-01,4.199829101562500000e-01,2.849121093750000000e-01,8.243408203125000000e-01
-1.000000000000000000e+00,-2.000000000000000000e+00,1.000000000000000000e+00,-3.000000000000000000e+00,2.000000000000000000e+00,1.000000000000000000e+00,0.000000000000000000e+00,-2.000000000000000000e+00,-2.506103515625000000e-01,4.199829101562500000e-01,2.849121093750000000e-01,8.243408203125000000e-01
-2.000000000000000000e+00,-2.000000000000000000e+00,-4.000000000000000000e+00,0.000000000000000000e+00,-4.000000000000000000e+00,-3.000000000000000000e+00,-2.000000000000000000e+00,1.000000000000000000e+00,-2.510986328125000000e-01,4.189453125000000000e-01,2.859497070312500000e-01,8.244018554687500000e-01
-2.000000000000000000e+00,0.000000000000000000e+00,4.000000000000000000e+00,-7.000000000000000000e+00,-1.000000000000000000e+00,4.000000000000000000e+00,2.000000000000000000e+00,-1.000000000000000000e+00,-2.510986328125000000e-01,4.189453125000000000e-01,2.859497070312500000e-01,8.244018554687500000e-01
-2.000000000000000000e+00,-5.000000000000000000e+00,-2.700000000000000000e+01,-9.000000000000000000e+00,-6.000000000000000000e+00,-3.000000000000000000e+00,-4.000000000000000000e+00,-2.000000000000000000e+00,-2.510986328125000000e-01,4.189453125000000000e-01,2.859497070312500000e-01,8.244018554687500000e-01
-1.000000000000000000e+00,0.000000000000000000e+00,-3.000000000000000000e+00,0.000000000000000000e+00,-2.000000000000000000e+00,-3.000000000000000000e+00,-4.000000000000000000e+00,-2.000000000000000000e+00,-2.510986328125000000e-01,4.189453125000000000e-01,2.859497070312500000e-01,8.244018554687500000e-01
-3.000000000000000000e+00,-3.000000000000000000e+00,-2.400000000000000000e+01,-2.900000000000000000e+01,-6.000000000000000000e+00,0.000000000000000000e+00,1.000000000000000000e+00,1.000000000000000000e+00,-2.519531250000000000e-01,4.173583984375000000e-01,2.869262695312500000e-01,8.245849609375000000e-01
-1.000000000000000000e+00,1.000000000000000000e+00,6.000000000000000000e+00,7.000000000000000000e+00,0.000000000000000000e+00,0.000000000000000000e+00,0.000000000000000000e+00,0.000000000000000000e+00,-2.519531250000000000e-01,4.173583984375000000e-01,2.869262695312500000e-01,8.245849609375000000e-01
0.000000000000000000e+00,3.000000000000000000e+00,1.000000000000000000e+01,1.300000000000000000e+01,2.000000000000000000e+00,-1.000000000000000000e+00,0.000000000000000000e+00,1.000000000000000000e+00,-2.519531250000000000e-01,4.173583984375000000e-01,2.869262695312500000e-01,8.245849609375000000e-01
-1.000000000000000000e+00,-6.000000000000000000e+00,-8.000000000000000000e+00,-2.500000000000000000e+01,-3.000000000000000000e+00,0.000000000000000000e+00,0.000000000000000000e+00,-1.000000000000000000e+00,-2.519531250000000000e-01,4.173583984375000000e-01,2.869262695312500000e-01,8.245849609375000000e-01
-4.000000000000000000e+00,1.000000000000000000e+00,3.000000000000000000e+00,-1.500000000000000000e+01,-4.000000000000000000e+00,-3.000000000000000000e+00,-3.000000000000000000e+00,-4.000000000000000000e+00,-2.523803710937500000e-01,4.161987304687500000e-01,2.874145507812500000e-01,8.248901367187500000e-01
-1.000000000000000000e+00,-2.000000000000000000e+00,-4.000000000000000000e+00,-1.200000000000000000e+01,-8.000000000000000000e+00,-4.000000000000000000e+00,-3.000000000000000000e+00,-2.000000000000000000e+00,-2.523803710937500000e-01,4.161987304687500000e-01,2.874145507812500000e-01,8.248901367187500000e-01
0.000000000000000000e+00,4.000000000000000000e+00,2.200000000000000000e+01,3.800000000000000000e+01,4.000000000000000000e+00,0.000000000000000000e+00,0.000000000000000000e+00,-2.000000000000000000e+00,-2.523803710937500000e-01,4.161987304687500000e-01,2.874145507812500000e-01,8.248901367187500000e-01
-1.000000000000000000e+00,-8.000000000000000000e+00,-4.800000000000000000e+01,-1.600000000000000000e+01,-2.000000000000000000e+00,-1.000000000000000000e+00,0.000000000000000000e+00,0.000000000000000000e+00,-2.523803710937500000e-01,4.161987304687500000e-01,2.874145507812500000e-01,8.248901367187500000e-01
-1.000000000000000000e+00,-4.000000000000000000e+00,1.100000000000000000e+01,2.200000000000000000e+01,5.000000000000000000e+00,0.000000000000000000e+00,-1.000000000000000000e+00,-1.000000000000000000e+00,-2.525634765625000000e-01,4.154663085937500000e-01,2.872314453125000000e-01,8.252563476562500000e-01
-3.000000000000000000e+00,-2.000000000000000000e+00,-1.500000000000000000e+01,-4.000000000000000000e+01,-3.000000000000000000e+00,-1.000000000000000000e+00,-2.000000000000000000e+00,-2.000000000000000000e+00,-2.525634765625000000e-01,4.154663085937500000e-01,2.872314453125000000e-01,8.252563476562500000e-01
-1.000000000000000000e+00,1.000000000000000000e+00,6.000000000000000000e+00,-3.000000000000000000e+00,-2.000000000000000000e+00,1.000000000000000000e+00,-1.000000000000000000e+00,-2.000000000000000000e+00,-2.525634765625000000e-01,4.154663085937500000e-01,2.872314453125000000e-01,8.252563476562500000e-01
-2.000000000000000000e+00,0.000000000000000000e+00,-9.000000000000000000e+00,6.000000000000000000e+00,3.000000000000000000e+00,4.000000000000000000e+00,0.000000000000000000e+00,-1.000000000000000000e+00,-2.525634765625000000e-01,4.154663085937500000e-01,2.872314453125000000e-01,8.252563476562500000e-01
-1.000000000000000000e+00,-1.000000000000000000e+00,4.000000000000000000e+00,7.000000000000000000e+00,0.000000000000000000e+00,-4.000000000000000000e+00,-3.000000000000000000e+00,0.000000000000000000e+00,-2.521972656250000000e-01,4.150390625000000000e-01,2.869262695312500000e-01,8.256835937500000000e-01
-4.000000000000000000e+00,-6.000000000000000000e+00,-5.000000000000000000e+00,1.300000000000000000e+01,1.000000000000000000e+00,-5.000000000000000000e+00,-5.000000000000000000e+00,-4.000000000000000000e+00,-2.521972656250000000e-01,4.150390625000000000e-01,2.869262695312500000e-01,8.256835937500000000e-01
6.000000000000000000e+00,6.000000000000000000e+00,3.000000000000000000e+01,0.000000000000000000e+00,-1.000000000000000000e+00,1.000000000000000000e+01,1.000000000000000000e+01,3.000000000000000000e+00,-2.521972656250000000e-01,4.150390625000000000e-01,2.869262695312500000e-01,8.256835937500000000e-01
-2.000000000000000000e+00,-3.000000000000000000e+00,-1.200000000000000000e+01,-5.000000000000000000e+00,1.000000000000000000e+00,1.000000000000000000e+00,1.000000000000000000e+00,-1.000000000000000000e+00,-2.521972656250000000e-01,4.150390625000000000e-01,2.869262695312500000e-01,8.256835937500000000e-01
0.000000000000000000e+00,-4.000000000000000000e+00,-8.000000000000000000e+00,-3.000000000000000000e+00,3.000000000000000000e+00,1.000000000000000000e+00,-2.000000000000000000e+00,0.000000000000000000e+00,-2.523193359375000000e-01,4.138793945312500000e-01,2.869262695312500000e-01,8.262329101562500000e-01
1.000000000000000000e+00,1.000000000000000000e+00,9.000000000000000000e+00,-8.000000000000000000e+00,-6.000000000000000000e+00,-2.000000000000000000e+00,-1.000000000000000000e+00,2.000000000000000000e+00,-2.523193359375000000e-01,4.138793945312500000e-01,2.869262695312500000e-01,8.262329101562500000e-01
