0.000000000000000000e+00,0.000000000000000000e+00,-1.000000000000000000e+00,5.000000000000000000e+00,1.000000000000000000e+00,1.000000000000000000e+00,0.000000000000000000e+00,0.000000000000000000e+00,-4.411010742187500000e-01,1.668090820312500000e-01,7.379760742187500000e-01,4.826049804687500000e-01
-5.000000000000000000e+00,-4.000000000000000000e+00,1.000000000000000000e+00,-1.000000000000000000e+01,-4.000000000000000000e+00,1.000000000000000000e+00,3.000000000000000000e+00,0.000000000000000000e+00,-4.411010742187500000e-01,1.668090820312500000e-01,7.379760742187500000e-01,4.826049804687500000e-01
-1.000000000000000000e+00,-4.000000000000000000e+00,2.000000000000000000e+00,-5.000000000000000000e+00,-2.000000000000000000e+00,-5.000000000000000000e+00,-1.000000000000000000e+00,-4.000000000000000000e+00,-4.412841796875000000e-01,1.666870117187500000e-01,7.378540039062500000e-01,4.826660156250000000e-01
0.000000000000000000e+00,-2.000000000000000000e+00,-1.000000000000000000e+00,1.000000000000000000e+00,-3.000000000000000000e+00,-5.000000000000000000e+00,1.000000000000000000e+00,-5.000000000000000000e+00,-4.412841796875000000e-01,1.666870117187500000e-01,7.378540039062500000e-01,4.826660156250000000e-01
1.000000000000000000e+00,3.000000000000000000e+00,-2.000000000000000000e+00,-6.000000000000000000e+00,-2.000000000000000000e+00,5.000000000000000000e+00,-2.000000000000000000e+00,0.000000000000000000e+00,-4.412841796875000000e-01,1.666870117187500000e-01,7.378540039062500000e-01,4.826660156250000000e-01
1.000000000000000000e+00,2.000000000000000000e+00,-1.000000000000000000e+01,2.000000000000000000e+00,4.000000000000000000e+00,-3.000000000000000000e+00,4.000000000000000000e+00,0.000000000000000000e+00,-4.412841796875000000e-01,1.666870117187500000e-01,7.378540039062500000e-01,4.826660156250000000e-01
-9.000000000000000000e+00,-1.000000000000000000e+01,-5.000000000000000000e+00,-3.000000000000000000e+00,-5.000000000000000000e+00,0.000000000000000000e+00,-3.000000000000000000e+00,2.000000000000000000e+00,-4.420776367187500000e-01,1.655273437500000000e-01,7.379150390625000000e-01,4.823608398437500000e-01
0.000000000000000000e+00,0.000000000000000000e+00,3.000000000000000000e+00,-3.000000000000000000e+00,-1.000000000000000000e+00,2.000000000000000000e+00,-2.000000000000000000e+00,6.000000000000000000e+00,-4.420776367187500000e-01,1.655273437500000000e-01,7.379150390625000000e-01,4.823608398437500000e-01
-2.000000000000000000e+00,-5.000000000000000000e+00,1.000000000000000000e+00,-4.000000000000000000e+00,-1.000000000000000000e+00,-2.000000000000000000e+00,-6.000000000000000000e+00,-1.100000000000000000e+01,-4.420776367187500000e-01,1.655273437500000000e-01,7.379150390625000000e-01,4.823608398437500000e-01
-1.000000000000000000e+00,1.000000000000000000e+00,3.000000000000000000e+00,3.000000000000000000e+00,-2.000000000000000000e+00,-1.000000000000000000e+00,2.000000000000000000e+00,2.000000000000000000e+00,-4.420776367187500000e-01,1.655273437500000000e-01,7.379150390625000000e-01,4.823608398437500000e-01
-3.000000000000000000e+00,-1.000000000000000000e+00,-3.000000000000000000e+00,-2.000000000000000000e+00,0.000000000000000000e+00,-2.000000000000000000e+00,1.000000000000000000e+00,-2.000000000000000000e+00,-4.433593750000000000e-01,1.638183593750000000e-01,7.377929687500000000e-01,4.818725585937500000e-01
-1.000000000000000000e+00,-4.000000000000000000e+00,-7.000000000000000000e+00,-1.200000000000000000e+01,-3.000000000000000000e+00,-4.000000000000000000e+00,-1.200000000000000000e+01,-5.000000000000000000e+00,-4.433593750000000000e-01,1.638183593750000000e-01,7.377929687500000000e-01,4.818725585937500000e-01
0.000000000000000000e+00,8.000000000000000000e+00,2.000000000000000000e+00,4.000000000000000000e+00,0.000000000000000000e+00,0.000000000000000000e+00,4.000000000000000000e+00,3.000000000000000000e+00,-4.433593750000000000e-01,1.638183593750000000e-01,7.377929687500000000e-01,4.818725585937500000e-01
1.000000000000000000e+00,2.000000000000000000e+00,-1.000000000000000000e+00,-3.000000000000000000e+00,-2.000000000000000000e+00,-2.000000000000000000e+00,1.000000000000000000e+00,1.000000000000000000e+00,-4.433593750000000000e-01,1.638183593750000000e-01,7.377929687500000000e-01,4.818725585937500000e-01
-1.200000000000000000e+01,-7.000000000000000000e+00,-1.000000000000000000e+00,-4.000000000000000000e+00,-2.000000000000000000e+00,0.000000000000000000e+00,4.000000000000000000e+00,-2.000000000000000000e+00,-4.445190429687500000e-01,1.624145507812500000e-01,7.376098632812500000e-01,4.815063476562500000e-01
3.000000000000000000e+00,3.000000000000000000e+00,4.000000000000000000e+00,-1.000000000000000000e+00,1.000000000000000000e+00,1.000000000000000000e+00,0.000000000000000000e+00,-2.000000000000000000e+00,-4.445190429687500000e-01,1.624145507812500000e-01,7.376098632812500000e-01,4.815063476562500000e-01
1.000000000000000000e+00,4.000000000000000000e+00,2.000000000000000000e+00,6.000000000000000000e+00,-1.000000000000000000e+00,-1.000000000000000000e+00,-7.000000000000000000e+00,1.000000000000000000e+00,-4.445190429687500000e-01,1.624145507812500000e-01,7.376098632812500000e-01,4.815063476562500000e-01
-3.000000000000000000e+00,-1.500000000000000000e+01,-3.000000000000000000e+00,-4.000000000000000000e+00,-3.000000000000000000e+00,0.000000000000000000e+00,-2.000000000000000000e+00,0.000000000000000000e+00,-4.445190429687500000e-01,1.624145507812500000e-01,7.376098632812500000e-01,4.815063476562500000e-01
7.000000000000000000e+00,1.100000000000000000e+01,1.000000000000000000e+01,3.000000000000000000e+00,0.000000000000000000e+00,-4.000000000000000000e+00,-1.100000000000000000e+01,0.000000000000000000e+00,-4.456787109375000000e-01,1.616210937500000000e-01,7.371215820312500000e-01,4.815063476562500000e-01
-1.000000000000000000e+00,-1.000000000000000000e+00,0.000000000000000000e+00,1.000000000000000000e+00,2.000000000000000000e+00,2.000000000000000000e+00,1.100000000000000000e+01,-1.000000000000000000e+00,-4.456787109375000000e-01,1.616210937500000000e-01,7.371215820312500000e-01,4.815063476562500000e-01
-2.000000000000000000e+00,0.000000000000000000e+00,2.000000000000000000e+00,-6.000000000000000000e+00,-3.000000000000000000e+00,2.000000000000000000e+00,3.000000000000000000e+00,-2.000000000000000000e+00,-4.456787109375000000e-01,1.616210937500000000e-01,7.371215820312500000e-01,4.815063476562500000e-01
-9.000000000000000000e+00,-1.000000000000000000e+01,-8.000000000000000000e+00,-8.000000000000000000e+00,-4.000000000000000000e+00,0.000000000000000000e+00,3.000000000000000000e+00,0.000000000000000000e+00,-4.456787109375000000e-01,1.616210937500000000e-01,7.371215820312500000e-01,4.815063476562500000e-01
2.000000000000000000e+00,-2.000000000000000000e+00,-8.000000000000000000e+00,1.000000000000000000e+00,-2.000000000000000000e+00,-1.000000000000000000e+00,-2.000000000000000000e+00,0.000000000000000000e+00,-4.461669921875000000e-01,1.614379882812500000e-01,7.366943359375000000e-01,4.817504882812500000e-01
-2.000000000000000000e+00,-4.000000000000000000e+00,9.000000000000000000e+00,1.200000000000000000e+01,2.000000000000000000e+00,-2.000000000000000000e+00,-9.000000000000000000e+00,-2.000000000000000000e+00,-4.461669921875000000e-01,1.614379882812500000e-01,7.366943359375000000e-01,4.817504882812500000e-01
2.000000000000000000e+00,0.000000000000000000e+00,-1.000000000000000000e+00,-1.500000000000000000e+01,-1.000000000000000000e+00,-3.000000000000000000e+00,0.000000000000000000e+00,1.000000000000000000e+00,-4.461669921875000000e-01,1.614379882812500000e-01,7.366943359375000000e-01,4.817504882812500000e-01
-1.000000000000000000e+00,-2.000000000000000000e+00,0.000000000000000000e+00,0.000000000000000000e+00,-3.000000000000000000e+00,-2.000000000000000000e+00,-2.000000000000000000e+00,-4.000000000000000000e+00,-4.461669921875000000e-01,1.614379882812500000e-01,7.366943359375000000e-01,4.817504882812500000e-01
1.000000000000000000e+00,0.000000000000000000e+00,9.000000000000000000e+00,-3.000000000000000000e+00,0.000000000000000000e+00,-1.000000000000000000e+00,0.000000000000000000e+00,-3.000000000000000000e+00,-4.465942382812500000e-01,1.613769531250000000e-01,7.363281250000000000e-01,4.819335937500000000e-01
2.000000000000000000e+00,3.000000000000000000e+00,5.000000000000000000e+00,5.000000000000000000e+00,2.000000000000000000e+00,2.000000000000000000e+00,1.000000000000000000e+00,-1.000000000000000000e+00,-4.465942382812500000e-01,1.613769531250000000e-01,7.363281250000000000e-01,4.819335937500000000e-01
-1.000000000000000000e+00,0.000000000000000000e+00,3.000000000000000000e+00,0.000000000000000000e+00,1.000000000000000000e+00,0.000000000000000000e+00,5.000000000000000000e+00,1.000000000000000000e+00,-4.465942382812500000e-01,1.613769531250000000e-01,7.363281250000000000e-01,4.819335937500000000e-01
0.000000000000000000e+00,-1.000000000000000000e+00,-8.000000000000000000e+00,-6.000000000000000000e+00,-1.000000000000000000e+00,-1.000000000000000000e+00,-5.000000000000000000e+00,-3.000000000000000000e+00,-4.465942382812500000e-01,1.613769531250000000e-01,7.363281250000000000e-01,4.819335937500000000e-01
0.000000000000000000e+00,-3.000000000000000000e+00,-9.000000000000000000e+00,1.100000000000000000e+01,-3.000000000000000000e+00,-3.000000000000000000e+00,-8.000000000000000000e+00,2.000000000000000000e+00,-4.470825195312500000e-01,1.607666015625000000e-01,7.363281250000000000e-01,4.816284179687500000e-01
-4.000000000000000000e+00,-4.000000000000000000e+00,-1.000000000000000000e+00,-1.500000000000000000e+01,-5.000000000000000000e+00,-1.000000000000000000e+00,1.000000000000000000e+00,4.000000000000000000e+00,-4.470825195312500000e-01,1.607666015625000000e-01,7.363281250000000000e-01,4.816284179687500000e-01
-1.000000000000000000e+00,-2.000000000000000000e+00,5.000000000000000000e+00,2.000000000000000000e+00,-1.000000000000000000e+00,-3.000000000000000000e+00,-9.000000000000000000e+00,-4.000000000000000000e+00,-4.470825195312500000e-01,1.607666015625000000e-01,7.363281250000000000e-01,4.816284179687500000e-01
-2.000000000000000000e+00,1.000000000000000000e+00,1.000000000000000000e+00,-2.000000000000000000e+00,-2.000000000000000000e+00,-1.000000000000000000e+00,0.000000000000000000e+00,1.000000000000000000e+00,-4.470825195312500000e-01,1.607666015625000000e-01,7.363281250000000000e-01,4.816284179687500000e-01
5.000000000000000000e+00,4.000000000000000000e+00,3.000000000000000000e+00,1.000000000000000000e+00,0.000000000000000000e+00,0.000000000000000000e+00,0.000000000000000000e+00,-1.000000000000000000e+00,-4.474487304687500000e-01,1.602172851562500000e-01,7.363891601562500000e-01,4.813842773437500000e-01
-6.000000000000000000e+00,-7.000000000000000000e+00,-9.000000000000000000e+00,-1.000000000000000000e+00,-1.000000000000000000e+00,-4.000000000000000000e+00,-2.000000000000000000e+00,-2.000000000000000000e+00,-4.474487304687500000e-01,1.602172851562500000e-01,7.363891601562500000e-01,4.813842773437500000e-01
5.000000000000000000e+00,4.000000000000000000e+00,3.000000000000000000e+00,2.000000000000000000e+00,1.000000000000000000e+00,5.000000000000000000e+00,0.000000000000000000e+00,0.000000000000000000e+00,-4.474487304687500000e-01,1.602172851562500000e-01,7.363891601562500000e-01,4.813842773437500000e-01
0.000000000000000000e+00,1.000000000000000000e+00,0.000000000000000000e+00,1.000000000000000000e+00,0.000000000000000000e+00,0.000000000000000000e+00,1.000000000000000000e+01,-2.000000000000000000e+00,-4.474487304687500000e-01,1.602172851562500000e-01,7.363891601562500000e-01,4.813842773437500000e-01
-5.000000000000000000e+00,-4.000000000000000000e+00,8.000000000000000000e+00,-1.000000000000000000e+00,1.000000000000000000e+00,0.000000000000000000e+00,-4.000000000000000000e+00,-2.000000000000000000e+00,-4.473876953125000000e-01,1.600341796875000000e-01,7.365112304687500000e-01,4.813232421875000000e-01
2.000000000000000000e+00,-3.000000000000000000e+00,-2.100000000000000000e+01,-7.000000000000000000e+00,-3.000000000000000000e+00,0.000000000000000000e+00,1.200000000000000000e+01,0.000000000000000000e+00,-4.473876953125000000e-01,1.600341796875000000e-01,7.365112304687500000e-01,4.813232421875000000e-01
-5.000000000000000000e+00,-6.000000000000000000e+00,-1.000000000000000000e+00,7.000000000000000000e+00,0.000000000000000000e+00,-1.000000000000000000e+00,0.000000000000000000e+00,1.000000000000000000e+00,-4.473876953125000000e-01,1.600341796875000000e-01,7.365112304687500000e-01,4.813232421875000000e-01
0.000000000000000000e+00,-1.000000000000000000e+00,7.000000000000000000e+00,7.000000000000000000e+00,1.000000000000000000e+00,-4.000000000000000000e+00,-4.000000000000000000e+00,-3.000000000000000000e+00,-4.473876953125000000e-01,1.600341796875000000e-01,7.365112304687500000e-01,4.813232421875000000e-01
4.000000000000000000e+00,7.000000000000000000e+00,6.000000000000000000e+00,-2.000000000000000000e+00,1.000000000000000000e+00,5.000000000000000000e+00,8.000000000000000000e+00,1.000000000000000000e+00,-4.471435546875000000e-01,1.601562500000000000e-01,7.366333007812500000e-01,4.813842773437500000e-01
-2.000000000000000000e+00,3.000000000000000000e+00,-2.000000000000000000e+00,-3.000000000000000000e+00,-1.000000000000000000e+00,-3.000000000000000000e+00,-1.000000000000000000e+00,-3.000000000000000000e+00,-4.471435546875000000e-01,1.601562500000000000e-01,7.366333007812500000e-01,4.813842773437500000e-01
-4.000000000000000000e+00,-2.000000000000000000e+00,-4.000000000000000000e+00,-5.000000000000000000e+00,0.000000000000000000e+00,-5.000000000000000000e+00,-5.000000000000000000e+00,-1.300000000000000000e+01,-4.471435546875000000e-01,1.601562500000000000e-01,7.366333007812500000e-01,4.813842773437500000e-01
9.000000000000000000e+00,8.000000000000000000e+00,2.000000000000000000e+00,3.000000000000000000e+00,1.000000000000000000e+00,-1.000000000000000000e+00,-3.000000000000000000e+00,2.000000000000000000e+00,-4.471435546875000000e-01,1.601562500000000000e-01,7.366333007812500000e-01,4.813842773437500000e-01
1.000000000000000000e+00,-1.000000000000000000e+00,-1.400000000000000000e+01,-9.000000000000000000e+00,-2.000000000000000000e+00,1.000000000000000000e+00,1.800000000000000000e+01,3.000000000000000000e+00,-4.470214843750000000e-01,1.605224609375000000e-01,7.366333007812500000e-01,4.813842773437500000e-01
0.000000000000000000e+00,-1.000000000000000000e+00,3.000000000000000000e+00,-5.000000000000000000e+00,-3.000000000000000000e+00,-1.000000000000000000e+00,-1.200000000000000000e+01,-5.000000000000000000e+00,-4.470214843750000000e-01,1.605224609375000000e-01,7.366333007812500000e-01,4.813842773437500000e-01
-1.100000000000000000e+01,-7.000000000000000000e+00,-9.000000000000000000e+00,2.000000000000000000e+00,-2.000000000000000000e+00,0.000000000000000000e+00,9.000000000000000000e+00,1.000000000000000000e+00,-4.470214843750000000e-01,1.605224609375000000e-01,7.366333007812500000e-01,4.813842773437500000e-01
-2.000000000000000000e+00,0.000000000000000000e+00,4.000000000000000000e+00,-1.000000000000000000e+00,1.000000000000000000e+00,-1.000000000000000000e+00,-4.000000000000000000e+00,-3.000000000000000000e+00,-4.470214843750000000e-01,1.605224609375000000e-01,7.366333007812500000e-01,4.813842773437500000e-01
0.000000000000000000e+00,4.000000000000000000e+00,1.400000000000000000e+01,9.000000000000000000e+00,4.000000000000000000e+00,-1.000000000000000000e+00,-2.000000000000000000e+00,-2.000000000000000000e+00,-4.468994140625000000e-01,1.610717773437500000e-01,7.365722656250000000e-01,4.813842773437500000e-01
-2.000000000000000000e+00,-5.000000000000000000e+00,-1.000000000000000000e+01,-6.000000000000000000e+00,-4.000000000000000000e+00,-2.000000000000000000e+00,-7.000000000000000000e+00,-5.000000000000000000e+00,-4.468994140625000000e-01,1.610717773437500000e-01,7.365722656250000000e-01,4.813842773437500000e-01
-5.000000000000000000e+00,-7.000000000000000000e+00,-4.000000000000000000e+00,-4.000000000000000000e+00,-3.000000000000000000e+00,-2.000000000000000000e+00,-4.000000000000000000e+00,3.000000000000000000e+00,-4.468994140625000000e-01,1.610717773437500000e-01,7.365722656250000000e-01,4.813842773437500000e-01
-6.000000000000000000e+00,-2.000000000000000000e+00,7.000000000000000000e+00,2.000000000000000000e+00,-2.000000000000000000e+00,0.000000000000000000e+00,0.000000000000000000e+00,0.000000000000000000e+00,-4.468994140625000000e-01,1.610717773437500000e-01,7.365722656250000000e-01,4.813842773437500000e-01
1.000000000000000000e+00,-1.000000000000000000e+00,-1.100000000000000000e+01,2.000000000000000000e+00,-1.000000000000000000e+00,-2.000000000000000000e+00,-1.000000000000000000e+00,1.000000000000000000e+00,-4.468994140625000000e-01,1.611328125000000000e-01,7.365722656250000000e-01,4.813232421875000000e-01
-3.000000000000000000e+00,0.000000000000000000e+00,-2.000000000000000000e+00,0.000000000000000000e+00,-2.000000000000000000e+00,-1.000000000000000000e+00,-7.000000000000000000e+00,-2.000000000000000000e+00,-4.468994140625000000e-01,1.611328125000000000e-01,7.365722656250000000e-01,4.813232421875000000e-01
4.000000000000000000e+00,2.000000000000000000e+00,4.000000000000000000e+00,4.000000000000000000e+00,-3.000000000000000000e+00,-5.000000000000000000e+00,-5.000000000000000000e+00,2.000000000000000000e+00,-4.468994140625000000e-01,1.611328125000000000e-01,7.365722656250000000e-01,4.813232421875000000e-01
-3.000000000000000000e+00,3.000000000000000000e+00,2.000000000000000000e+00,-3.000000000000000000e+00,2.000000000000000000e+00,5.000000000000000000e+00,1.600000000000000000e+01,0.000000000000000000e+00,-4.468994140625000000e-01,1.611328125000000000e-01,7.365722656250000000e-01,4.813232421875000000e-01
3.000000000000000000e+00,-3.000000000000000000e+00,-7.000000000000000000e+00,-2.000000000000000000e+00,-5.000000000000000000e+00,-2.000000000000000000e+00,-6.000000000000000000e+00,-1.000000000000000000e+00,-4.473266601562500000e-01,1.608276367187500000e-01,7.366943359375000000e-01,4.808959960937500000e-01
5.000000000000000000e+00,6.000000000000000000e+00,9.000000000000000000e+00,0.000000000000000000e+00,0.000000000000000000e+00,3.000000000000000000e+00,1.100000000000000000e+01,3.000000000000000000e+00,-4.473266601562500000e-01,1.608276367187500000e-01,7.366943359375000000e-01,4.808959960937500000e-01
2.000000000000000000e+00,2.000000000000000000e+00,2.000000000000000000e+00,5.000000000000000000e+00,-1.000000000000000000e+00,-1.000000000000000000e+00,-6.000000000000000000e+00,-1.000000000000000000e+00,-4.473266601562500000e-01,1.608276367187500000e-01,7.366943359375000000e-01,4.808959960937500000e-01
0.000000000000000000e+00,-4.000000000000000000e+00,-7.000000000000000000e+00,-1.000000000000000000e+00,0.000000000000000000e+00,0.000000000000000000e+00,-6.000000000000000000e+00,1.000000000000000000e+00,-4.473266601562500000e-01,1.608276367187500000e-01,7.366943359375000000e-01,4.808959960937500000e-01
-9.000000000000000000e+00,0.000000000000000000e+00,7.000000000000000000e+00,-1.000000000000000000e+00,-1.000000000000000000e+00,-1.000000000000000000e+00,-5.000000000000000000e+00,-6.000000000000000000e+00,-4.476318359375000000e-01,1.606445312500000000e-01,7.367553710937500000e-01,4.805297851562500000e-01
2.000000000000000000e+00,-2.000000000000000000e+00,-6.000000000000000000e+00,-9.000000000000000000e+00,-2.000000000000000000e+00,0.000000000000000000e+00,9.000000000000000000e+00,3.000000000000000000e+00,-4.476318359375000000e-01,1.606445312500000000e-01,7.367553710937500000e-01,4.805297851562500000e-01
-5.000000000000000000e+00,-3.000000000000000000e+00,-2.000000000000000000e+00,3.000000000000000000e+00,0.000000000000000000e+00,1.000000000000000000e+00,-1.000000000000000000e+00,0.000000000000000000e+00,-4.476318359375000000e-01,1.606445312500000000e-01,7.367553710937500000e-01,4.805297851562500000e-01
0.000000000000000000e+00,3.000000000000000000e+00,-3.000000000000000000e+00,-2.000000000000000000e+00,-4.000000000000000000e+00,-6.000000000000000000e+00,-2.000000000000000000e+00,-1.800000000000000000e+01,-4.476318359375000000e-01,1.606445312500000000e-01,7.367553710937500000e-01,4.805297851562500000e-01
1.000000000000000000e+00,0.000000000000000000e+00,9.000000000000000000e+00,3.000000000000000000e+00,1.000000000000000000e+00,-1.000000000000000000e+00,-5.000000000000000000e+00,-1.000000000000000000e+00,-4.476318359375000000e-01,1.605834960937500000e-01,7.367553710937500000e-01,4.805908203125000000e-01
-2.000000000000000000e+00,0.000000000000000000e+00,8.000000000000000000e+00,1.000000000000000000e+00,-2.000000000000000000e+00,-2.000000000000000000e+00,-2.000000000000000000e+00,0.000000000000000000e+00,-4.476318359375000000e-01,1.605834960937500000e-01,7.367553710937500000e-01,4.805908203125000000e-01
1.000000000000000000e+00,-2.000000000000000000e+00,-1.000000000000000000e+00,2.000000000000000000e+00,0.000000000000000000e+00,2.000000000000000000e+00,4.000000000000000000e+00,3.000000000000000000e+00,-4.476318359375000000e-01,1.605834960937500000e-01,7.367553710937500000e-01,4.805908203125000000e-01
-5.000000000000000000e+00,-8.000000000000000000e+00,-7.000000000000000000e+00,-1.100000000000000000e+01,-1.000000000000000000e+00,-1.000000000000000000e+00,-2.000000000000000000e+00,-1.000000000000000000e+00,-4.476318359375000000e-01,1.605834960937500000e-01,7.367553710937500000e-01,4.805908203125000000e-01
2.000000000000000000e+00,2.000000000000000000e+00,-1.000000000000000000e+00,7.000000000000000000e+00,1.000000000000000000e+00,-2.000000000000000000e+00,0.000000000000000000e+00,4.000000000000000000e+00,-4.474487304687500000e-01,1.607666015625000000e-01,7.366333007812500000e-01,4.808959960937500000e-01
-4.000000000000000000e+00,-4.000000000000000000e+00,1.000000000000000000e+00,-6.000000000000000000e+00,-4.000000000000000000e+00,-1.000000000000000000e+00,-6.000000000000000000e+00,-6.000000000000000000e+00,-4.474487304687500000e-01,1.607666015625000000e-01,7.366333007812500000e-01,4.808959960937500000e-01
5.000000000000000000e+00,1.000000000000000000e+00,-7.000000000000000000e+00,-6.000000000000000000e+00,0.000000000000000000e+00,-1.000000000000000000e+00,-8.000000000000000000e+00,1.000000000000000000e+00,-4.474487304687500000e-01,1.607666015625000000e-01,7.366333007812500000e-01,4.808959960937500000e-01
-7.000000000000000000e+00,-1.100000000000000000e+01,1.000000000000000000e+00,0.000000000000000000e+00,-5.000000000000000000e+00,-3.000000000000000000e+00,0.000000000000000000e+00,1.000000000000000000e+00,-4.474487304687500000e-01,1.607666015625000000e-01,7.366333007812500000e-01,4.808959960937500000e-01
1.000000000000000000e+00,0.000000000000000000e+00,3.000000000000000000e+00,0.000000000000000000e+00,-1.000000000000000000e+00,1.000000000000000000e+00,7.000000000000000000e+00,1.000000000000000000e+00,-4.469604492187500000e-01,1.610107421875000000e-01,7.366943359375000000e-01,4.811401367187500000e-01
0.000000000000000000e+00,-2.000000000000000000e+00,-1.000000000000000000e+00,3.000000000000000000e+00,0.000000000000000000e+00,-1.000000000000000000e+00,-3.000000000000000000e+00,1.000000000000000000e+00,-4.469604492187500000e-01,1.610107421875000000e-01,7.366943359375000000e-01,4.811401367187500000e-01
-1.000000000000000000e+00,2.000000000000000000e+00,-1.000000000000000000e+00,1.000000000000000000e+00,0.000000000000000000e+00,-1.000000000000000000e+00,-5.000000000000000000e+00,-1.000000000000000000e+00,-4.469604492187500000e-01,1.610107421875000000e-01,7.366943359375000000e-01,4.811401367187500000e-01
-1.000000000000000000e+00,1.000000000000000000e+00,-4.000000000000000000e+00,-7.000000000000000000e+00,-2.000000000000000000e+00,-1.000000000000000000e+00,-4.000000000000000000e+00,1.000000000000000000e+00,-4.469604492187500000e-01,1.610107421875000000e-01,7.366943359375000000e-01,4.811401367187500000e-01
-2.000000000000000000e+00,1.000000000000000000e+00,-4.000000000000000000e+00,-6.000000000000000000e+00,-1.000000000000000000e+00,1.000000000000000000e+00,-2.000000000000000000e+00,0.000000000000000000e+00,-4.467773437500000000e-01,1.610107421875000000e-01,7.365722656250000000e-01,4.815063476562500000e-01
-3.000000000000000000e+00,-4.000000000000000000e+00,5.000000000000000000e+00,6.000000000000000000e+00,-1.000000000000000000e+00,-2.000000000000000000e+00,-4.000000000000000000e+00,-1.000000000000000000e+00,-4.467773437500000000e-01,1.610107421875000000e-01,7.365722656250000000e-01,4.815063476562500000e-01
3.000000000000000000e+00,-5.000000000000000000e+00,-5.000000000000000000e+00,-1.100000000000000000e+01,-3.000000000000000000e+00,0.000000000000000000e+00,5.000000000000000000e+00,0.000000000000000000e+00,-4.467773437500000000e-01,1.610107421875000000e-01,7.365722656250000000e-01,4.815063476562500000e-01
1.000000000000000000e+00,5.000000000000000000e+00,2.000000000000000000e+00,8.000000000000000000e+00,1.000000000000000000e+00,1.000000000000000000e+00,-4.000000000000000000e+00,-2.000000000000000000e+00,-4.467773437500000000e-01,1.610107421875000000e-01,7.365722656250000000e-01,4.815063476562500000e-01
0.000000000000000000e+00,-4.000000000000000000e+00,-4.000000000000000000e+00,-5.000000000000000000e+00,-2.000000000000000000e+00,-1.000000000000000000e+00,-2.000000000000000000e+00,-1.000000000000000000e+00,-4.465332031250000000e-01,1.611938476562500000e-01,7.361450195312500000e-01,4.823608398437500000e-01
-1.000000000000000000e+00,4.000000000000000000e+00,8.000000000000000000e+00,6.000000000000000000e+00,4.000000000000000000e+00,0.000000000000000000e+00,-2.000000000000000000e+00,-1.000000000000000000e+00,-4.465332031250000000e-01,1.611938476562500000e-01,7.361450195312500000e-01,4.823608398437500000e-01
-5.000000000000000000e+00,3.000000000000000000e+00,6.000000000000000000e+00,-8.000000000000000000e+00,-2.000000000000000000e+00,-4.000000000000000000e+00,-1.000000000000000000e+00,0.000000000000000000e+00,-4.465332031250000000e-01,1.611938476562500000e-01,7.361450195312500000e-01,4.823608398437500000e-01
5.000000000000000000e+00,-3.000000000000000000e+00,-3.000000000000000000e+00,4.000000000000000000e+00,-1.000000000000000000e+00,-5.000000000000000000e+00,-3.000000000000000000e+00,3.000000000000000000e+00,-4.465332031250000000e-01,1.611938476562500000e-01,7.361450195312500000e-01,4.823608398437500000e-01
-5.000000000000000000e+00,0.000000000000000000e+00,0.000000000000000000e+00,-3.000000000000000000e+00,0.000000000000000000e+00,4.000000000000000000e+00,-1.000000000000000000e+00,-1.000000000000000000e+00,-4.464721679687500000e-01,1.612548828125000000e-01,7.355346679687500000e-01,4.833374023437500000e-01
-2.000000000000000000e+00,-4.000000000000000000e+00,3.000000000000000000e+00,3.000000000000000000e+00,5.000000000000000000e+00,-2.000000000000000000e+00,-1.000000000000000000e+00,8.000000000000000000e+00,-4.464721679687500000e-01,1.612548828125000000e-01,7.355346679687500000e-01,4.833374023437500000e-01
1.000000000000000000e+00,2.000000000000000000e+00,-8.000000000000000000e+00,8.000000000000000000e+00,2.000000000000000000e+00,1.000000000000000000e+00,9.000000000000000000e+00,-1.300000000000000000e+01,-4.464721679687500000e-01,1.612548828125000000e-01,7.355346679687500000e-01,4.833374023437500000e-01
-2.000000000000000000e+00,4.000000000000000000e+00,0.000000000000000000e+00,-1.000000000000000000e+01,-2.000000000000000000e+00,7.000000000000000000e+00,1.100000000000000000e+01,2.000000000000000000e+00,-4.464721679687500000e-01,1.612548828125000000e-01,7.355346679687500000e-01,4.833374023437500000e-01
3.000000000000000000e+00,-5.000000000000000000e+00,0.000000000000000000e+00,1.000000000000000000e+00,-1.000000000000000000e+00,2.000000000000000000e+00,5.000000000000000000e+00,1.000000000000000000e+00,-4.467773437500000000e-01,1.605834960937500000e-01,7.349243164062500000e-01,4.841918945312500000e-01
3.000000000000000000e+00,-3.000000000000000000e+00,-6.000000000000000000e+00,-3.000000000000000000e+00,0.000000000000000000e+00,-1.000000000000000000e+00,-9.000000000000000000e+00,0.000000000000000000e+00,-4.467773437500000000e-01,1.605834960937500000e-01,7.349243164062500000e-01,4.841918945312500000e-01
1.000000000000000000e+00,3.000000000000000000e+00,1.100000000000000000e+01,4.000000000000000000e+00,0.000000000000000000e+00,-7.000000000000000000e+00,-5.000000000000000000e+00,1.000000000000000000e+00,-4.467773437500000000e-01,1.605834960937500000e-01,7.349243164062500000e-01,4.841918945312500000e-01
-8.000000000000000000e+00,8.000000000000000000e+00,2.000000000000000000e+00,1.000000000000000000e+00,0.000000000000000000e+00,-1.000000000000000000e+00,4.000000000000000000e+00,0.000000000000000000e+00,-4.467773437500000000e-01,1.605834960937500000e-01,7.349243164062500000e-01,4.841918945312500000e-01
3.000000000000000000e+00,-1.300000000000000000e+01,-2.200000000000000000e+01,-4.000000000000000000e+00,-4.000000000000000000e+00,-5.000000000000000000e+00,-7.000000000000000000e+00,-7.000000000000000000e+00,-4.475708007812500000e-01,1.593017578125000000e-01,7.341918945312500000e-01,4.849853515625000000e-01
7.000000000000000000e+00,1.000000000000000000e+00,8.000000000000000000e+00,-4.000000000000000000e+00,0.000000000000000000e+00,1.000000000000000000e+00,7.000000000000000000e+00,4.000000000000000000e+00,-4.475708007812500000e-01,1.593017578125000000e-01,7.341918945312500000e-01,4.849853515625000000e-01
-2.000000000000000000e+00,0.000000000000000000e+00,-1.000000000000000000e+01,2.000000000000000000e+00,0.000000000000000000e+00,0.000000000000000000e+00,2.000000000000000000e+00,1.000000000000000000e+00,-4.475708007812500000e-01,1.593017578125000000e-01,7.341918945312500000e-01,4.849853515625000000e-01
-6.000000000000000000e+00,-9.000000000000000000e+00,-5.000000000000000000e+00,-3.000000000000000000e+00,-6.000000000000000000e+00,0.000000000000000000e+00,-1.600000000000000000e+01,-6.000000000000000000e+00,-4.475708007812500000e-01,1.593017578125000000e-01,7.341918945312500000e-01,4.849853515625000000e-01
-6.000000000000000000e+00,0.000000000000000000e+00,1.000000000000000000e+01,-2.000000000000000000e+00,0.000000000000000000e+00,-2.000000000000000000e+00,-3.000000000000000000e+00,-2.000000000000000000e+00,-4.483642578125000000e-01,1.575317382812500000e-01,7.338256835937500000e-01,4.854125976562500000e-01
-1.000000000000000000e+00,3.000000000000000000e+00,-3.000000000000000000e+00,7.000000000000000000e+00,0.000000000000000000e+00,-3.000000000000000000e+00,-2.000000000000000000e+00,0.000000000000000000e+00,-4.483642578125000000e-01,1.575317382812500000e-01,7.338256835937500000e-01,4.854125976562500000e-01
-4.000000000000000000e+00,-6.000000000000000000e+00,-8.000000000000000000e+00,-7.000000000000000000e+00,-3.000000000000000000e+00,0.000000000000000000e+00,-1.100000000000000000e+01,-1.000000000000000000e+00,-4.483642578125000000e-01,1.575317382812500000e-01,7.338256835937500000e-01,4.854125976562500000e-01
6.000000000000000000e+00,2.000000000000000000e+00,6.000000000000000000e+00,5.000000000000000000e+00,3.000000000000000000e+00,0.000000000000000000e+00,1.500000000000000000e+01,6.000000000000000000e+00,-4.483642578125000000e-01,1.575317382812500000e-01,7.338256835937500000e-01,4.854125976562500000e-01
-2.000000000000000000e+00,0.000000000000000000e+00,-4.000000000000000000e+00,-3.000000000000000000e+00,-2.000000000000000000e+00,2.000000000000000000e+00,3.000000000000000000e+00,0.000000000000000000e+00,-4.494018554687500000e-01,1.555175781250000000e-01,7.334594726562500000e-01,4.856567382812500000e-01
-1.000000000000000000e+00,3.000000000000000000e+00,1.000000000000000000e+00,2.000000000000000000e+00,0.000000000000000000e+00,0.000000000000000000e+00,-3.000000000000000000e+00,-3.000000000000000000e+00,-4.494018554687500000e-01,1.555175781250000000e-01,7.334594726562500000e-01,4.856567382812500000e-01
2.000000000000000000e+00,-2.000000000000000000e+00,-7.000000000000000000e+00,-1.000000000000000000e+00,-1.000000000000000000e+00,2.000000000000000000e+00,2.000000000000000000e+00,1.000000000000000000e+00,-4.494018554687500000e-01,1.555175781250000000e-01,7.334594726562500000e-01,4.856567382812500000e-01
-2.000000000000000000e+00,-1.000000000000000000e+00,6.000000000000000000e+00,-6.000000000000000000e+00,-2.000000000000000000e+00,-5.000000000000000000e+00,-7.000000000000000000e+00,-2.000000000000000000e+00,-4.494018554687500000e-01,1.555175781250000000e-01,7.334594726562500000e-01,4.856567382812500000e-01
0.000000000000000000e+00,2.000000000000000000e+00,-4.000000000000000000e+00,0.000000000000000000e+00,-1.000000000000000000e+00,-1.000000000000000000e+00,-9.000000000000000000e+00,-1.000000000000000000e+00,-4.502563476562500000e-01,1.540527343750000000e-01,7.330322265625000000e-01,4.860229492187500000e-01
-6.000000000000000000e+00,-3.000000000000000000e+00,-4.000000000000000000e+00,-3.000000000000000000e+00,-2.000000000000000000e+00,-1.000000000000000000e+00,2.000000000000000000e+00,-5.000000000000000000e+00,-4.502563476562500000e-01,1.540527343750000000e-01,7.330322265625000000e-01,4.860229492187500000e-01
0.000000000000000000e+00,0.000000000000000000e+00,5.000000000000000000e+00,-3.000000000000000000e+00,1.000000000000000000e+00,2.000000000000000000e+00,2.000000000000000000e+00,1.200000000000000000e+01,-4.502563476562500000e-01,1.540527343750000000e-01,7.330322265625000000e-01,4.860229492187500000e-01
0.000000000000000000e+00,0.000000000000000000e+00,0.000000000000000000e+00,-3.000000000000000000e+00,-1.000000000000000000e+00,-4.000000000000000000e+00,-8.000000000000000000e+00,-9.000000000000000000e+00,-4.502563476562500000e-01,1.540527343750000000e-01,7.330322265625000000e-01,4.860229492187500000e-01
0.000000000000000000e+00,-3.000000000000000000e+00,-1.500000000000000000e+01,3.000000000000000000e+00,-3.000000000000000000e+00,-2.000000000000000000e+00,0.000000000000000000e+00,1.000000000000000000e+00,-4.503784179687500000e-01,1.536865234375000000e-01,7.324829101562500000e-01,4.868164062500000000e-01
-7.000000000000000000e+00,-6.000000000000000000e+00,3.000000000000000000e+00,0.000000000000000000e+00,-2.000000000000000000e+00,-1.000000000000000000e+00,-4.000000000000000000e+00,-4.000000000000000000e+00,-4.503784179687500000e-01,1.536865234375000000e-01,7.324829101562500000e-01,4.868164062500000000e-01
1.000000000000000000e+00,-1.000000000000000000e+00,-4.000000000000000000e+00,-8.000000000000000000e+00,-2.000000000000000000e+00,-1.000000000000000000e+00,0.000000000000000000e+00,1.000000000000000000e+00,-4.503784179687500000e-01,1.536865234375000000e-01,7.324829101562500000e-01,4.868164062500000000e-01
0.000000000000000000e+00,-2.000000000000000000e+00,-1.000000000000000000e+00,-1.000000000000000000e+00,1.000000000000000000e+00,1.000000000000000000e+00,6.000000000000000000e+00,3.000000000000000000e+00,-4.503784179687500000e-01,1.536865234375000000e-01,7.324829101562500000e-01,4.868164062500000000e-01
-1.000000000000000000e+00,6.000000000000000000e+00,7.000000000000000000e+00,-2.000000000000000000e+00,1.000000000000000000e+00,-2.000000000000000000e+00,-6.000000000000000000e+00,-4.000000000000000000e+00,-4.500122070312500000e-01,1.542968750000000000e-01,7.318725585937500000e-01,4.877929687500000000e-01
-2.000000000000000000e+00,-1.000000000000000000e+00,-7.000000000000000000e+00,-4.000000000000000000e+00,-4.000000000000000000e+00,-6.000000000000000000e+00,-9.000000000000000000e+00,-6.000000000000000000e+00,-4.500122070312500000e-01,1.542968750000000000e-01,7.318725585937500000e-01,4.877929687500000000e-01
-3.000000000000000000e+00,-3.000000000000000000e+00,1.000000000000000000e+00,9.000000000000000000e+00,2.000000000000000000e+00,5.000000000000000000e+00,2.600000000000000000e+01,-1.000000000000000000e+00,-4.500122070312500000e-01,1.542968750000000000e-01,7.318725585937500000e-01,4.877929687500000000e-01
2.000000000000000000e+00,8.000000000000000000e+00,-2.000000000000000000e+00,4.000000000000000000e+00,2.000000000000000000e+00,-2.000000000000000000e+00,-4.000000000000000000e+00,2.000000000000000000e+00,-4.500122070312500000e-01,1.542968750000000000e-01,7.318725585937500000e-01,4.877929687500000000e-01
-1.000000000000000000e+00,-8.000000000000000000e+00,-9.000000000000000000e+00,-2.200000000000000000e+01,-5.000000000000000000e+00,-1.000000000000000000e+00,-5.000000000000000000e+00,-2.000000000000000000e+00,-4.492187500000000000e-01,1.555786132812500000e-01,7.313842773437500000e-01,4.888916015625000000e-01
-6.000000000000000000e+00,-1.000000000000000000e+00,-4.000000000000000000e+00,6.000000000000000000e+00,-4.000000000000000000e+00,-2.000000000000000000e+00,-1.000000000000000000e+00,-2.000000000000000000e+00,-4.492187500000000000e-01,1.555786132812500000e-01,7.313842773437500000e-01,4.888916015625000000e-01
2.000000000000000000e+00,-2.000000000000000000e+00,-5.000000000000000000e+00,-6.000000000000000000e+00,-2.000000000000000000e+00,-4.000000000000000000e+00,-7.000000000000000000e+00,-4.000000000000000000e+00,-4.492187500000000000e-01,1.555786132812500000e-01,7.313842773437500000e-01,4.888916015625000000e-01
3.000000000000000000e+00,-1.000000000000000000e+00,2.000000000000000000e+00,2.000000000000000000e+00,0.000000000000000000e+00,-1.000000000000000000e+00,-3.000000000000000000e+00,2.000000000000000000e+00,-4.492187500000000000e-01,1.555786132812500000e-01,7.313842773437500000e-01,4.888916015625000000e-01
-9.000000000000000000e+00,1.000000000000000000e+00,1.500000000000000000e+01,1.200000000000000000e+01,3.000000000000000000e+00,-1.000000000000000000e+00,3.000000000000000000e+00,0.000000000000000000e+00,-4.486083984375000000e-01,1.565551757812500000e-01,7.311401367187500000e-01,4.895019531250000000e-01
3.000000000000000000e+00,1.000000000000000000e+00,-9.000000000000000000e+00,-8.000000000000000000e+00,-3.000000000000000000e+00,-3.000000000000000000e+00,-3.000000000000000000e+00,-1.000000000000000000e+00,-4.486083984375000000e-01,1.565551757812500000e-01,7.311401367187500000e-01,4.895019531250000000e-01
5.000000000000000000e+00,-2.000000000000000000e+00,-7.000000000000000000e+00,-4.000000000000000000e+00,-1.000000000000000000e+00,-1.000000000000000000e+00,-3.000000000000000000e+00,0.000000000000000000e+00,-4.486083984375000000e-01,1.565551757812500000e-01,7.311401367187500000e-01,4.895019531250000000e-01
-4.000000000000000000e+00,0.000000000000000000e+00,3.000000000000000000e+00,2.000000000000000000e+00,-3.000000000000000000e+00,-1.000000000000000000e+00,-4.000000000000000000e+00,0.000000000000000000e+00,-4.486083984375000000e-01,1.565551757812500000e-01,7.311401367187500000e-01,4.895019531250000000e-01
-4.000000000000000000e+00,-1.100000000000000000e+01,-1.100000000000000000e+01,-3.000000000000000000e+00,-2.000000000000000000e+00,-4.000000000000000000e+00,-6.000000000000000000e+00,-3.000000000000000000e+00,-4.479980468750000000e-01,1.568603515625000000e-01,7.311401367187500000e-01,4.899902343750000000e-01
-3.000000000000000000e+00,-1.000000000000000000e+00,3.000000000000000000e+00,-4.000000000000000000e+00,-2.000000000000000000e+00,1.000000000000000000e+00,3.000000000000000000e+00,-1.000000000000000000e+00,-4.479980468750000000e-01,1.568603515625000000e-01,7.311401367187500000e-01,4.899902343750000000e-01
-9.000000000000000000e+00,-6.000000000000000000e+00,0.000000000000000000e+00,0.000000000000000000e+00,-2.000000000000000000e+00,-2.000000000000000000e+00,-9.000000000000000000e+00,-5.000000000000000000e+00,-4.479980468750000000e-01,1.568603515625000000e-01,7.311401367187500000e-01,4.899902343750000000e-01
5.000000000000000000e+00,-2.000000000000000000e+00,2.000000000000000000e+00,0.000000000000000000e+00,0.000000000000000000e+00,0.000000000000000000e+00,-3.000000000000000000e+00,0.000000000000000000e+00,-4.479980468750000000e-01,1.568603515625000000e-01,7.311401367187500000e-01,4.899902343750000000e-01
4.000000000000000000e+00,7.000000000000000000e+00,2.000000000000000000e+00,-3.000000000000000000e+00,0.000000000000000000e+00,-2.000000000000000000e+00,1.000000000000000000e+00,0.000000000000000000e+00,-4.475097656250000000e-01,1.566162109375000000e-01,7.312011718750000000e-01,4.903564453125000000e-01
-3.000000000000000000e+00,-6.000000000000000000e+00,-4.000000000000000000e+00,2.000000000000000000e+00,2.000000000000000000e+00,0.000000000000000000e+00,1.000000000000000000e+00,4.000000000000000000e+00,-4.475097656250000000e-01,1.566162109375000000e-01,7.312011718750000000e-01,4.903564453125000000e-01
2.000000000000000000e+00,0.000000000000000000e+00,5.000000000000000000e+00,3.000000000000000000e+00,-3.000000000000000000e+00,-1.000000000000000000e+00,0.000000000000000000e+00,1.000000000000000000e+00,-4.475097656250000000e-01,1.566162109375000000e-01,7.312011718750000000e-01,4.903564453125000000e-01
-2.000000000000000000e+00,-4.000000000000000000e+00,-8.000000000000000000e+00,-5.000000000000000000e+00,-3.000000000000000000e+00,0.000000000000000000e+00,-2.000000000000000000e+00,-1.000000000000000000e+00,-4.475097656250000000e-01,1.566162109375000000e-01,7.312011718750000000e-01,4.903564453125000000e-01
0.000000000000000000e+00,2.000000000000000000e+00,1.000000000000000000e+00,0.000000000000000000e+00,0.000000000000000000e+00,-2.000000000000000000e+00,2.000000000000000000e+00,-3.000000000000000000e+00,-4.472045898437500000e-01,1.559448242187500000e-01,7.311401367187500000e-01,4.909667968750000000e-01
2.000000000000000000e+00,-2.000000000000000000e+00,-2.000000000000000000e+00,1.000000000000000000e+00,0.000000000000000000e+00,2.000000000000000000e+00,4.000000000000000000e+00,3.000000000000000000e+00,-4.472045898437500000e-01,1.559448242187500000e-01,7.311401367187500000e-01,4.909667968750000000e-01
2.000000000000000000e+00,4.000000000000000000e+00,1.300000000000000000e+01,-1.000000000000000000e+00,1.000000000000000000e+00,-2.000000000000000000e+00,-4.000000000000000000e+00,-2.000000000000000000e+00,-4.472045898437500000e-01,1.559448242187500000e-01,7.311401367187500000e-01,4.909667968750000000e-01
-3.000000000000000000e+00,-2.000000000000000000e+00,-5.000000000000000000e+00,1.000000000000000000e+01,-3.000000000000000000e+00,-3.000000000000000000e+00,-5.000000000000000000e+00,-3.000000000000000000e+00,-4.472045898437500000e-01,1.559448242187500000e-01,7.311401367187500000e-01,4.909667968750000000e-01
0.000000000000000000e+00,1.000000000000000000e+00,-5.000000000000000000e+00,-1.200000000000000000e+01,-6.000000000000000000e+00,-7.000000000000000000e+00,-2.000000000000000000e+00,3.000000000000000000e+00,-4.464111328125000000e-01,1.552124023437500000e-01,7.309570312500000000e-01,4.921875000000000000e-01
-4.000000000000000000e+00,1.000000000000000000e+00,5.000000000000000000e+00,-2.000000000000000000e+00,-2.000000000000000000e+00,0.000000000000000000e+00,-8.000000000000000000e+00,-6.000000000000000000e+00,-4.464111328125000000e-01,1.552124023437500000e-01,7.309570312500000000e-01,4.921875000000000000e-01
-4.000000000000000000e+00,-1.300000000000000000e+01,-1.600000000000000000e+01,1.000000000000000000e+00,2.000000000000000000e+00,5.000000000000000000e+00,1.600000000000000000e+01,5.000000000000000000e+00,-4.464111328125000000e-01,1.552124023437500000e-01,7.309570312500000000e-01,4.921875000000000000e-01
-4.000000000000000000e+00,-6.000000000000000000e+00,2.000000000000000000e+00,-6.000000000000000000e+00,-3.000000000000000000e+00,-2.000000000000000000e+00,-1.000000000000000000e+00,-5.000000000000000000e+00,-4.464111328125000000e-01,1.552124023437500000e-01,7.309570312500000000e-01,4.921875000000000000e-01
4.000000000000000000e+00,2.000000000000000000e+00,7.000000000000000000e+00,9.000000000000000000e+00,2.000000000000000000e+00,1.000000000000000000e+00,5.000000000000000000e+00,1.000000000000000000e+00,-4.455566406250000000e-01,1.544189453125000000e-01,7.307739257812500000e-01,4.935302734375000000e-01
-3.000000000000000000e+00,2.000000000000000000e+00,-4.000000000000000000e+00,-5.000000000000000000e+00,-3.000000000000000000e+00,-1.000000000000000000e+00,-5.000000000000000000e+00,-4.000000000000000000e+00,-4.455566406250000000e-01,1.544189453125000000e-01,7.307739257812500000e-01,4.935302734375000000e-01
-4.000000000000000000e+00,7.000000000000000000e+00,1.200000000000000000e+01,2.000000000000000000e+00,0.000000000000000000e+00,-3.000000000000000000e+00,-8.000000000000000000e+00,-3.000000000000000000e+00,-4.455566406250000000e-01,1.544189453125000000e-01,7.307739257812500000e-01,4.935302734375000000e-01
1.000000000000000000e+00,-1.000000000000000000e+00,-9.000000000000000000e+00,-4.000000000000000000e+00,-1.000000000000000000e+00,-1.000000000000000000e+00,0.000000000000000000e+00,-5.000000000000000000e+00,-4.455566406250000000e-01,1.544189453125000000e-01,7.307739257812500000e-01,4.935302734375000000e-01
3.000000000000000000e+00,4.000000000000000000e+00,2.000000000000000000e+00,3.000000000000000000e+00,0.000000000000000000e+00,2.000000000000000000e+00,0.000000000000000000e+00,-1.000000000000000000e+00,-4.448852539062500000e-01,1.522827148437500000e-01,7.307128906250000000e-01,4.948730468750000000e-01
-2.000000000000000000e+00,-5.000000000000000000e+00,-5.000000000000000000e+00,-1.000000000000000000e+00,1.000000000000000000e+00,-1.000000000000000000e+00,3.000000000000000000e+00,0.000000000000000000e+00,-4.448852539062500000e-01,1.522827148437500000e-01,7.307128906250000000e-01,4.948730468750000000e-01
-5.000000000000000000e+00,1.000000000000000000e+00,8.000000000000000000e+00,-3.000000000000000000e+00,-1.000000000000000000e+00,-2.000000000000000000e+00,-7.000000000000000000e+00,-3.000000000000000000e+00,-4.448852539062500000e-01,1.522827148437500000e-01,7.307128906250000000e-01,4.948730468750000000e-01
6.000000000000000000e+00,1.000000000000000000e+00,3.000000000000000000e+00,1.200000000000000000e+01,0.000000000000000000e+00,-1.000000000000000000e+00,1.000000000000000000e+00,5.000000000000000000e+00,-4.448852539062500000e-01,1.522827148437500000e-01,7.307128906250000000e-01,4.948730468750000000e-01
-1.000000000000000000e+00,-5.000000000000000000e+00,-4.000000000000000000e+00,-2.300000000000000000e+01,2.000000000000000000e+00,-2.000000000000000000e+00,-4.000000000000000000e+00,-4.000000000000000000e+00,-4.439697265625000000e-01,1.494140625000000000e-01,7.307128906250000000e-01,4.965209960937500000e-01
0.000000000000000000e+00,0.000000000000000000e+00,-1.000000000000000000e+01,1.000000000000000000e+01,-4.000000000000000000e+00,-1.000000000000000000e+00,-1.000000000000000000e+00,1.000000000000000000e+00,-4.439697265625000000e-01,1.494140625000000000e-01,7.307128906250000000e-01,4.965209960937500000e-01
-3.000000000000000000e+00,-6.000000000000000000e+00,-4.000000000000000000e+00,-2.000000000000000000e+00,-3.000000000000000000e+00,-2.000000000000000000e+00,-2.000000000000000000e+00,-1.000000000000000000e+00,-4.439697265625000000e-01,1.494140625000000000e-01,7.307128906250000000e-01,4.965209960937500000e-01
2.000000000000000000e+00,2.000000000000000000e+00,1.500000000000000000e+01,-4.000000000000000000e+00,2.000000000000000000e+00,1.000000000000000000e+00,0.000000000000000000e+00,3.000000000000000000e+00,-4.439697265625000000e-01,1.494140625000000000e-01,7.307128906250000000e-01,4.965209960937500000e-01
-6.000000000000000000e+00,-9.000000000000000000e+00,1.000000000000000000e+00,8.000000000000000000e+00,1.000000000000000000e+00,1.000000000000000000e+00,-1.000000000000000000e+00,-6.000000000000000000e+00,-4.432373046875000000e-01,1.466064453125000000e-01,7.305297851562500000e-01,4.982910156250000000e-01
7.000000000000000000e+00,-2.000000000000000000e+00,-8.000000000000000000e+00,0.000000000000000000e+00,-2.000000000000000000e+00,-1.000000000000000000e+00,2.000000000000000000e+00,3.000000000000000000e+00,-4.432373046875000000e-01,1.466064453125000000e-01,7.305297851562500000e-01,4.982910156250000000e-01
2.000000000000000000e+00,-4.000000000000000000e+00,-5.000000000000000000e+00,-8.000000000000000000e+00,-2.000000000000000000e+00,-2.000000000000000000e+00,-4.000000000000000000e+00,2.000000000000000000e+00,-4.432373046875000000e-01,1.466064453125000000e-01,7.305297851562500000e-01,4.982910156250000000e-01
-7.000000000000000000e+00,-5.000000000000000000e+00,-7.000000000000000000e+00,-4.000000000000000000e+00,-2.000000000000000000e+00,0.000000000000000000e+00,-7.000000000000000000e+00,-5.000000000000000000e+00,-4.432373046875000000e-01,1.466064453125000000e-01,7.305297851562500000e-01,4.982910156250000000e-01
3.000000000000000000e+00,2.000000000000000000e+00,1.000000000000000000e+00,5.000000000000000000e+00,1.000000000000000000e+00,0.000000000000000000e+00,0.000000000000000000e+00,0.000000000000000000e+00,-4.426269531250000000e-01,1.442260742187500000e-01,7.302246093750000000e-01,4.999389648437500000e-01
-4.000000000000000000e+00,3.000000000000000000e+00,2.000000000000000000e+00,-7.000000000000000000e+00,-2.000000000000000000e+00,0.000000000000000000e+00,-1.000000000000000000e+00,-3.000000000000000000e+00,-4.426269531250000000e-01,1.442260742187500000e-01,7.302246093750000000e-01,4.999389648437500000e-01
2.000000000000000000e+00,6.000000000000000000e+00,4.000000000000000000e+00,3.000000000000000000e+00,0.000000000000000000e+00,1.000000000000000000e+00,-4.000000000000000000e+00,-1.000000000000000000e+00,-4.426269531250000000e-01,1.442260742187500000e-01,7.302246093750000000e-01,4.999389648437500000e-01
3.000000000000000000e+00,2.000000000000000000e+00,-9.000000000000000000e+00,-1.500000000000000000e+01,-3.000000000000000000e+00,0.000000000000000000e+00,2.000000000000000000e+00,0.000000000000000000e+00,-4.426269531250000000e-01,1.442260742187500000e-01,7.302246093750000000e-01,4.999389648437500000e-01
-2.000000000000000000e+00,-2.000000000000000000e+00,1.000000000000000000e+00,2.000000000000000000e+00,1.000000000000000000e+00,-1.000000000000000000e+00,-4.000000000000000000e+00,2.000000000000000000e+00,-4.422607421875000000e-01,1.418457031250000000e-01,7.294921875000000000e-01,5.020141601562500000e-01
-3.000000000000000000e+00,0.000000000000000000e+00,1.000000000000000000e+01,-1.000000000000000000e+00,1.000000000000000000e+00,-3.000000000000000000e+00,-1.000000000000000000e+00,-2.000000000000000000e+00,-4.422607421875000000e-01,1.418457031250000000e-01,7.294921875000000000e-01,5.020141601562500000e-01
2.000000000000000000e+00,1.000000000000000000e+00,-5.000000000000000000e+00,7.000000000000000000e+00,2.000000000000000000e+00,-1.000000000000000000e+00,0.000000000000000000e+00,-3.000000000000000000e+00,-4.422607421875000000e-01,1.418457031250000000e-01,7.294921875000000000e-01,5.020141601562500000e-01
-4.000000000000000000e+00,-2.000000000000000000e+00,2.000000000000000000e+00,-3.000000000000000000e+00,-3.000000000000000000e+00,-1.000000000000000000e+00,-6.000000000000000000e+00,-1.000000000000000000e+00,-4.422607421875000000e-01,1.418457031250000000e-01,7.294921875000000000e-01,5.020141601562500000e-01
3.000000000000000000e+00,2.000000000000000000e+00,7.000000000000000000e+00,-4.000000000000000000e+00,-3.000000000000000000e+00,-1.000000000000000000e+00,3.000000000000000000e+00,1.000000000000000000e+00,-4.415283203125000000e-01,1.406860351562500000e-01,7.283325195312500000e-01,5.046997070312500000e-01
-2.000000000000000000e+00,-8.000000000000000000e+00,-5.000000000000000000e+00,5.000000000000000000e+00,0.000000000000000000e+00,1.000000000000000000e+00,2.000000000000000000e+00,0.000000000000000000e+00,-4.415283203125000000e-01,1.406860351562500000e-01,7.283325195312500000e-01,5.046997070312500000e-01
1.000000000000000000e+00,3.000000000000000000e+00,8.000000000000000000e+00,-5.000000000000000000e+00,-1.000000000000000000e+00,2.000000000000000000e+00,-2.000000000000000000e+00,-1.000000000000000000e+00,-4.415283203125000000e-01,1.406860351562500000e-01,7.283325195312500000e-01,5.046997070312500000e-01
-1.000000000000000000e+00,-2.000000000000000000e+00,-7.000000000000000000e+00,0.000000000000000000e+00,1.000000000000000000e+00,-1.000000000000000000e+00,0.000000000000000000e+00,1.000000000000000000e+00,-4.415283203125000000e-01,1.406860351562500000e-01,7.283325195312500000e-01,5.046997070312500000e-01
2.000000000000000000e+00,8.000000000000000000e+00,1.000000000000000000e+01,0.000000000000000000e+00,-4.000000000000000000e+00,0.000000000000000000e+00,-1.000000000000000000e+00,6.000000000000000000e+00,-4.406738281250000000e-01,1.403198242187500000e-01,7.272338867187500000e-01,5.071411132812500000e-01
0.000000000000000000e+00,0.000000000000000000e+00,2.000000000000000000e+00,2.000000000000000000e+00,-1.000000000000000000e+00,-1.000000000000000000e+00,-1.000000000000000000e+00,-1.300000000000000000e+01,-4.406738281250000000e-01,1.403198242187500000e-01,7.272338867187500000e-01,5.071411132812500000e-01
-3.000000000000000000e+00,-4.000000000000000000e+00,-1.000000000000000000e+01,-1.400000000000000000e+01,-6.000000000000000000e+00,-2.000000000000000000e+00,-4.000000000000000000e+00,-4.000000000000000000e+00,-4.406738281250000000e-01,1.403198242187500000e-01,7.272338867187500000e-01,5.071411132812500000e-01
0.000000000000000000e+00,1.000000000000000000e+00,-3.000000000000000000e+00,3.000000000000000000e+00,4.000000000000000000e+00,1.000000000000000000e+00,3.000000000000000000e+00,3.000000000000000000e+00,-4.406738281250000000e-01,1.403198242187500000e-01,7.272338867187500000e-01,5.071411132812500000e-01
1.000000000000000000e+00,1.000000000000000000e+00,5.000000000000000000e+00,-4.000000000000000000e+00,0.000000000000000000e+00,1.000000000000000000e+00,1.900000000000000000e+01,2.000000000000000000e+00,-4.401855468750000000e-01,1.393432617187500000e-01,7.266845703125000000e-01,5.086669921875000000e-01
-3.000000000000000000e+00,1.000000000000000000e+00,-1.500000000000000000e+01,-3.000000000000000000e+00,0.000000000000000000e+00,-1.000000000000000000e+00,-3.000000000000000000e+00,3.000000000000000000e+00,-4.401855468750000000e-01,1.393432617187500000e-01,7.266845703125000000e-01,5.086669921875000000e-01
-2.000000000000000000e+00,-3.000000000000000000e+00,-2.000000000000000000e+00,-4.000000000000000000e+00,-6.000000000000000000e+00,-1.000000000000000000e+00,-1.000000000000000000e+01,-5.000000000000000000e+00,-4.401855468750000000e-01,1.393432617187500000e-01,7.266845703125000000e-01,5.086669921875000000e-01
2.000000000000000000e+00,3.000000000000000000e+00,1.400000000000000000e+01,7.000000000000000000e+00,-1.000000000000000000e+00,-2.000000000000000000e+00,-2.000000000000000000e+00,-1.000000000000000000e+00,-4.401855468750000000e-01,1.393432617187500000e-01,7.266845703125000000e-01,5.086669921875000000e-01
-2.000000000000000000e+00,-1.000000000000000000e+00,-9.000000000000000000e+00,-3.000000000000000000e+00,0.000000000000000000e+00,3.000000000000000000e+00,-9.000000000000000000e+00,-5.000000000000000000e+00,-4.406127929687500000e-01,1.368408203125000000e-01,7.265014648437500000e-01,5.092163085937500000e-01
-1.000000000000000000e+00,-3.000000000000000000e+00,0.000000000000000000e+00,-4.000000000000000000e+00,-3.000000000000000000e+00,1.000000000000000000e+00,2.000000000000000000e+00,2.000000000000000000e+00,-4.406127929687500000e-01,1.368408203125000000e-01,7.265014648437500000e-01,5.092163085937500000e-01
-1.000000000000000000e+00,3.000000000000000000e+00,2.000000000000000000e+00,2.000000000000000000e+00,-1.000000000000000000e+00,-4.000000000000000000e+00,-2.000000000000000000e+00,-2.000000000000000000e+00,-4.406127929687500000e-01,1.368408203125000000e-01,7.265014648437500000e-01,5.092163085937500000e-01
1.000000000000000000e+00,2.000000000000000000e+00,6.000000000000000000e+00,0.000000000000000000e+00,0.000000000000000000e+00,-1.000000000000000000e+00,2.000000000000000000e+00,1.000000000000000000e+00,-4.406127929687500000e-01,1.368408203125000000e-01,7.265014648437500000e-01,5.092163085937500000e-01
-2.000000000000000000e+00,-2.000000000000000000e+00,-7.000000000000000000e+00,3.000000000000000000e+00,-3.000000000000000000e+00,0.000000000000000000e+00,-5.000000000000000000e+00,-2.000000000000000000e+00,-4.407348632812500000e-01,1.347045898437500000e-01,7.261962890625000000e-01,5.100708007812500000e-01
-2.000000000000000000e+00,-1.000000000000000000e+00,3.000000000000000000e+00,-7.000000000000000000e+00,-3.000000000000000000e+00,0.000000000000000000e+00,-1.000000000000000000e+00,0.000000000000000000e+00,-4.407348632812500000e-01,1.347045898437500000e-01,7.261962890625000000e-01,5.100708007812500000e-01
2.000000000000000000e+00,0.000000000000000000e+00,6.000000000000000000e+00,4.000000000000000000e+00,1.000000000000000000e+00,1.000000000000000000e+00,2.000000000000000000e+00,0.000000000000000000e+00,-4.407348632812500000e-01,1.347045898437500000e-01,7.261962890625000000e-01,5.100708007812500000e-01
-4.000000000000000000e+00,2.000000000000000000e+00,-4.000000000000000000e+00,-1.000000000000000000e+00,-2.000000000000000000e+00,-1.000000000000000000e+00,-1.000000000000000000e+00,0.000000000000000000e+00,-4.407348632812500000e-01,1.347045898437500000e-01,7.261962890625000000e-01,5.100708007812500000e-01
-5.000000000000000000e+00,-6.000000000000000000e+00,2.000000000000000000e+00,-1.000000000000000000e+00,-2.000000000000000000e+00,-5.000000000000000000e+00,-7.000000000000000000e+00,-5.000000000000000000e+00,-4.406738281250000000e-01,1.332397460937500000e-01,7.258300781250000000e-01,5.111083984375000000e-01
5.000000000000000000e+00,2.000000000000000000e+00,8.000000000000000000e+00,-3.000000000000000000e+00,-2.000000000000000000e+00,1.000000000000000000e+00,1.000000000000000000e+00,3.000000000000000000e+00,-4.406738281250000000e-01,1.332397460937500000e-01,7.258300781250000000e-01,5.111083984375000000e-01
-6.000000000000000000e+00,-3.000000000000000000e+00,-1.700000000000000000e+01,5.000000000000000000e+00,-4.000000000000000000e+00,-3.000000000000000000e+00,0.000000000000000000e+00,-4.000000000000000000e+00,-4.406738281250000000e-01,1.332397460937500000e-01,7.258300781250000000e-01,5.111083984375000000e-01
-3.000000000000000000e+00,-1.000000000000000000e+00,2.000000000000000000e+00,-2.000000000000000000e+00,1.000000000000000000e+00,-2.000000000000000000e+00,0.000000000000000000e+00,0.000000000000000000e+00,-4.406738281250000000e-01,1.332397460937500000e-01,7.258300781250000000e-01,5.111083984375000000e-01
4.000000000000000000e+00,-3.000000000000000000e+00,-6.000000000000000000e+00,-4.000000000000000000e+00,-3.000000000000000000e+00,0.000000000000000000e+00,-3.000000000000000000e+00,0.000000000000000000e+00,-4.406127929687500000e-01,1.318359375000000000e-01,7.254638671875000000e-01,5.119628906250000000e-01
2.000000000000000000e+00,3.000000000000000000e+00,0.000000000000000000e+00,-5.000000000000000000e+00,-3.000000000000000000e+00,-2.000000000000000000e+00,-2.000000000000000000e+00,2.000000000000000000e+00,-4.406127929687500000e-01,1.318359375000000000e-01,7.254638671875000000e-01,5.119628906250000000e-01
-4.000000000000000000e+00,-4.000000000000000000e+00,-4.000000000000000000e+00,-3.000000000000000000e+00,-1.000000000000000000e+00,-2.000000000000000000e+00,-2.000000000000000000e+00,-2.000000000000000000e+00,-4.406127929687500000e-01,1.318359375000000000e-01,7.254638671875000000e-01,5.119628906250000000e-01
-6.000000000000000000e+00,-7.000000000000000000e+00,-8.000000000000000000e+00,1.000000000000000000e+00,-1.000000000000000000e+00,0.000000000000000000e+00,-2.000000000000000000e+00,-5.000000000000000000e+00,-4.406127929687500000e-01,1.318359375000000000e-01,7.254638671875000000e-01,5.119628906250000000e-01
0.000000000000000000e+00,2.000000000000000000e+00,-5.000000000000000000e+00,-8.000000000000000000e+00,0.000000000000000000e+00,-1.000000000000000000e+00,-3.000000000000000000e+00,0.000000000000000000e+00,-4.401245117187500000e-01,1.304931640625000000e-01,7.251586914062500000e-01,5.131835937500000000e-01
0.000000000000000000e+00,-2.000000000000000000e+00,5.000000000000000000e+00,3.000000000000000000e+00,4.000000000000000000e+00,-3.000000000000000000e+00,1.000000000000000000e+00,6.000000000000000000e+00,-4.401245117187500000e-01,1.304931640625000000e-01,7.251586914062500000e-01,5.131835937500000000e-01
0.000000000000000000e+00,-4.000000000000000000e+00,-3.000000000000000000e+00,0.000000000000000000e+00,0.000000000000000000e+00,-1.000000000000000000e+00,-2.000000000000000000e+00,-1.000000000000000000e+00,-4.401245117187500000e-01,1.304931640625000000e-01,7.251586914062500000e-01,5.131835937500000000e-01
-1.000000000000000000e+00,0.000000000000000000e+00,-2.000000000000000000e+00,9.000000000000000000e+00,4.000000000000000000e+00,1.000000000000000000e+00,-1.000000000000000000e+00,-1.000000000000000000e+00,-4.401245117187500000e-01,1.304931640625000000e-01,7.251586914062500000e-01,5.131835937500000000e-01
-2.000000000000000000e+00,-5.000000000000000000e+00,2.000000000000000000e+00,4.000000000000000000e+00,-1.000000000000000000e+00,0.000000000000000000e+00,-1.000000000000000000e+00,-2.000000000000000000e+00,-4.390258789062500000e-01,1.295776367187500000e-01,7.248535156250000000e-01,5.147705078125000000e-01
0.000000000000000000e+00,-3.000000000000000000e+00,0.000000000000000000e+00,0.000000000000000000e+00,1.000000000000000000e+00,-2.000000000000000000e+00,-1.000000000000000000e+00,0.000000000000000000e+00,-4.390258789062500000e-01,1.295776367187500000e-01,7.248535156250000000e-01,5.147705078125000000e-01
1.000000000000000000e+00,2.000000000000000000e+00,-2.000000000000000000e+00,-7.000000000000000000e+00,2.000000000000000000e+00,-2.000000000000000000e+00,3.000000000000000000e+00,3.000000000000000000e+00,-4.390258789062500000e-01,1.295776367187500000e-01,7.248535156250000000e-01,5.147705078125000000e-01
0.000000000000000000e+00,-6.000000000000000000e+00,-1.000000000000000000e+01,-7.000000000000000000e+00,-2.000000000000000000e+00,4.000000000000000000e+00,3.000000000000000000e+00,-1.000000000000000000e+00,-4.390258789062500000e-01,1.295776367187500000e-01,7.248535156250000000e-01,5.147705078125000000e-01
-3.000000000000000000e+00,1.000000000000000000e+00,1.000000000000000000e+00,3.000000000000000000e+00,-4.000000000000000000e+00,-3.000000000000000000e+00,-2.000000000000000000e+01,-1.000000000000000000e+00,-4.379882812500000000e-01,1.287231445312500000e-01,7.246704101562500000e-01,5.161132812500000000e-01
0.000000000000000000e+00,-1.000000000000000000e+00,-1.000000000000000000e+00,-4.000000000000000000e+00,0.000000000000000000e+00,-2.000000000000000000e+00,1.500000000000000000e+01,-4.000000000000000000e+00,-4.379882812500000000e-01,1.287231445312500000e-01,7.246704101562500000e-01,5.161132812500000000e-01
4.000000000000000000e+00,8.000000000000000000e+00,1.200000000000000000e+01,-1.000000000000000000e+00,1.000000000000000000e+00,-3.000000000000000000e+00,0.000000000000000000e+00,4.000000000000000000e+00,-4.379882812500000000e-01,1.287231445312500000e-01,7.246704101562500000e-01,5.161132812500000000e-01
-1.000000000000000000e+00,-3.000000000000000000e+00,-3.000000000000000000e+00,-1.000000000000000000e+00,0.000000000000000000e+00,-1.000000000000000000e+00,-3.000000000000000000e+00,-2.000000000000000000e+00,-4.379882812500000000e-01,1.287231445312500000e-01,7.246704101562500000e-01,5.161132812500000000e-01
-1.000000000000000000e+00,-1.000000000000000000e+00,-5.000000000000000000e+00,-1.000000000000000000e+00,-4.000000000000000000e+00,-5.000000000000000000e+00,-6.000000000000000000e+00,-1.000000000000000000e+00,-4.371948242187500000e-01,1.275634765625000000e-01,7.247314453125000000e-01,5.170288085937500000e-01
-2.000000000000000000e+00,-6.000000000000000000e+00,-1.700000000000000000e+01,-5.000000000000000000e+00,-5.000000000000000000e+00,-1.000000000000000000e+00,-4.000000000000000000e+00,-6.000000000000000000e+00,-4.371948242187500000e-01,1.275634765625000000e-01,7.247314453125000000e-01,5.170288085937500000e-01
-2.000000000000000000e+00,0.000000000000000000e+00,1.000000000000000000e+01,5.000000000000000000e+00,3.000000000000000000e+00,4.000000000000000000e+00,0.000000000000000000e+00,-3.000000000000000000e+00,-4.371948242187500000e-01,1.275634765625000000e-01,7.247314453125000000e-01,5.170288085937500000e-01
1.000000000000000000e+00,-1.000000000000000000e+00,-1.400000000000000000e+01,-8.000000000000000000e+00,-4.000000000000000000e+00,-5.000000000000000000e+00,-2.000000000000000000e+00,0.000000000000000000e+00,-4.371948242187500000e-01,1.275634765625000000e-01,7.247314453125000000e-01,5.170288085937500000e-01
-2.000000000000000000e+00,-7.000000000000000000e+00,4.000000000000000000e+00,1.000000000000000000e+00,0.000000000000000000e+00,2.000000000000000000e+00,5.000000000000000000e+00,-2.000000000000000000e+00,-4.367065429687500000e-01,1.263427734375000000e-01,7.247924804687500000e-01,5.176391601562500000e-01
-3.000000000000000000e+00,0.000000000000000000e+00,3.000000000000000000e+00,6.000000000000000000e+00,1.000000000000000000e+00,-1.000000000000000000e+00,-4.000000000000000000e+00,2.000000000000000000e+00,-4.367065429687500000e-01,1.263427734375000000e-01,7.247924804687500000e-01,5.176391601562500000e-01
0.000000000000000000e+00,-3.000000000000000000e+00,5.000000000000000000e+00,3.000000000000000000e+00,-1.000000000000000000e+00,-3.000000000000000000e+00,3.000000000000000000e+00,-1.300000000000000000e+01,-4.367065429687500000e-01,1.263427734375000000e-01,7.247924804687500000e-01,5.176391601562500000e-01
2.000000000000000000e+00,2.000000000000000000e+00,-9.000000000000000000e+00,-1.700000000000000000e+01,-4.000000000000000000e+00,0.000000000000000000e+00,-4.000000000000000000e+00,1.000000000000000000e+00,-4.367065429687500000e-01,1.263427734375000000e-01,7.247924804687500000e-01,5.176391601562500000e-01
-3.000000000000000000e+00,1.000000000000000000e+00,0.000000000000000000e+00,1.300000000000000000e+01,1.000000000000000000e+00,-2.000000000000000000e+00,4.000000000000000000e+00,-3.000000000000000000e+00,-4.365844726562500000e-01,1.257934570312500000e-01,7.245483398437500000e-01,5.181884765625000000e-01
-1.400000000000000000e+01,-1.000000000000000000e+00,-1.000000000000000000e+00,-6.000000000000000000e+00,-2.000000000000000000e+00,2.000000000000000000e+00,-4.000000000000000000e+00,-5.000000000000000000e+00,-4.365844726562500000e-01,1.257934570312500000e-01,7.245483398437500000e-01,5.181884765625000000e-01
9.000000000000000000e+00,-4.000000000000000000e+00,-3.000000000000000000e+00,0.000000000000000000e+00,-2.000000000000000000e+00,-2.000000000000000000e+00,-1.000000000000000000e+00,5.000000000000000000e+00,-4.365844726562500000e-01,1.257934570312500000e-01,7.245483398437500000e-01,5.181884765625000000e-01
1.000000000000000000e+01,9.000000000000000000e+00,1.400000000000000000e+01,5.000000000000000000e+00,5.000000000000000000e+00,1.000000000000000000e+00,3.000000000000000000e+00,5.000000000000000000e+00,-4.365844726562500000e-01,1.257934570312500000e-01,7.245483398437500000e-01,5.181884765625000000e-01
-8.000000000000000000e+00,-1.100000000000000000e+01,-8.000000000000000000e+00,-8.000000000000000000e+00,-5.000000000000000000e+00,-3.000000000000000000e+00,-7.000000000000000000e+00,-8.000000000000000000e+00,-4.364013671875000000e-01,1.263427734375000000e-01,7.243041992187500000e-01,5.185546875000000000e-01
-2.000000000000000000e+00,4.000000000000000000e+00,5.000000000000000000e+00,-4.000000000000000000e+00,-4.000000000000000000e+00,0.000000000000000000e+00,2.000000000000000000e+00,0.000000000000000000e+00,-4.364013671875000000e-01,1.263427734375000000e-01,7.243041992187500000e-01,5.185546875000000000e-01
-6.000000000000000000e+00,0.000000000000000000e+00,3.000000000000000000e+00,3.000000000000000000e+00,0.000000000000000000e+00,-1.000000000000000000e+00,-1.000000000000000000e+00,-3.000000000000000000e+00,-4.364013671875000000e-01,1.263427734375000000e-01,7.243041992187500000e-01,5.185546875000000000e-01
0.000000000000000000e+00,-3.000000000000000000e+00,-1.000000000000000000e+00,8.000000000000000000e+00,-1.000000000000000000e+00,-2.000000000000000000e+00,-3.000000000000000000e+00,-1.000000000000000000e+00,-4.364013671875000000e-01,1.263427734375000000e-01,7.243041992187500000e-01,5.185546875000000000e-01
2.000000000000000000e+00,3.000000000000000000e+00,1.100000000000000000e+01,1.000000000000000000e+00,1.000000000000000000e+00,1.000000000000000000e+00,1.300000000000000000e+01,4.000000000000000000e+00,-4.365844726562500000e-01,1.275634765625000000e-01,7.241210937500000000e-01,5.183715820312500000e-01
-5.000000000000000000e+00,-4.000000000000000000e+00,-4.000000000000000000e+00,4.000000000000000000e+00,1.000000000000000000e+00,-1.000000000000000000e+00,-8.000000000000000000e+00,-5.000000000000000000e+00,-4.365844726562500000e-01,1.275634765625000000e-01,7.241210937500000000e-01,5.183715820312500000e-01
-1.000000000000000000e+00,-6.000000000000000000e+00,-1.400000000000000000e+01,-1.000000000000000000e+00,-1.000000000000000000e+00,-2.000000000000000000e+00,-9.000000000000000000e+00,2.000000000000000000e+00,-4.365844726562500000e-01,1.275634765625000000e-01,7.241210937500000000e-01,5.183715820312500000e-01
3.000000000000000000e+00,0.000000000000000000e+00,1.100000000000000000e+01,8.000000000000000000e+00,0.000000000000000000e+00,2.000000000000000000e+00,1.300000000000000000e+01,2.000000000000000000e+00,-4.365844726562500000e-01,1.275634765625000000e-01,7.241210937500000000e-01,5.183715820312500000e-01
-1.000000000000000000e+00,5.000000000000000000e+00,-2.000000000000000000e+00,-4.000000000000000000e+00,5.000000000000000000e+00,2.000000000000000000e+00,-1.000000000000000000e+00,3.000000000000000000e+00,-4.371948242187500000e-01,1.283569335937500000e-01,7.241210937500000000e-01,5.177001953125000000e-01
1.000000000000000000e+00,-4.000000000000000000e+00,-1.200000000000000000e+01,-3.000000000000000000e+00,-4.000000000000000000e+00,-4.000000000000000000e+00,-2.000000000000000000e+00,-1.000000000000000000e+00,-4.371948242187500000e-01,1.283569335937500000e-01,7.241210937500000000e-01,5.177001953125000000e-01
-1.000000000000000000e+00,0.000000000000000000e+00,3.000000000000000000e+00,-6.000000000000000000e+00,-1.000000000000000000e+00,1.000000000000000000e+00,1.000000000000000000e+00,2.000000000000000000e+00,-4.371948242187500000e-01,1.283569335937500000e-01,7.241210937500000000e-01,5.177001953125000000e-01
-4.000000000000000000e+00,-5.000000000000000000e+00,-6.000000000000000000e+00,2.000000000000000000e+00,-2.000000000000000000e+00,-3.000000000000000000e+00,-7.000000000000000000e+00,6.000000000000000000e+00,-4.371948242187500000e-01,1.283569335937500000e-01,7.241210937500000000e-01,5.177001953125000000e-01
-2.000000000000000000e+00,0.000000000000000000e+00,-5.000000000000000000e+00,-2.000000000000000000e+00,-1.000000000000000000e+00,1.000000000000000000e+00,-2.000000000000000000e+00,-1.200000000000000000e+01,-4.382934570312500000e-01,1.287841796875000000e-01,7.242431640625000000e-01,5.164794921875000000e-01
5.000000000000000000e+00,0.000000000000000000e+00,-7.000000000000000000e+00,-8.000000000000000000e+00,-5.000000000000000000e+00,-3.000000000000000000e+00,-8.000000000000000000e+00,-3.000000000000000000e+00,-4.382934570312500000e-01,1.287841796875000000e-01,7.242431640625000000e-01,5.164794921875000000e-01
-1.000000000000000000e+00,-2.000000000000000000e+00,3.000000000000000000e+00,4.000000000000000000e+00,-1.000000000000000000e+00,1.000000000000000000e+00,9.000000000000000000e+00,3.000000000000000000e+00,-4.382934570312500000e-01,1.287841796875000000e-01,7.242431640625000000e-01,5.164794921875000000e-01
-3.000000000000000000e+00,-4.000000000000000000e+00,-9.000000000000000000e+00,-4.000000000000000000e+00,-6.000000000000000000e+00,-3.000000000000000000e+00,-3.000000000000000000e+00,-3.000000000000000000e+00,-4.382934570312500000e-01,1.287841796875000000e-01,7.242431640625000000e-01,5.164794921875000000e-01
-3.000000000000000000e+00,-3.000000000000000000e+00,-2.000000000000000000e+00,-5.000000000000000000e+00,-5.000000000000000000e+00,-2.000000000000000000e+00,1.000000000000000000e+00,2.000000000000000000e+00,-4.391479492187500000e-01,1.298217773437500000e-01,7.244262695312500000e-01,5.151977539062500000e-01
8.000000000000000000e+00,6.000000000000000000e+00,0.000000000000000000e+00,2.000000000000000000e+00,1.000000000000000000e+00,1.000000000000000000e+00,-3.000000000000000000e+00,1.000000000000000000e+00,-4.391479492187500000e-01,1.298217773437500000e-01,7.244262695312500000e-01,5.151977539062500000e-01
0.000000000000000000e+00,-1.000000000000000000e+00,-1.000000000000000000e+00,-8.000000000000000000e+00,-4.000000000000000000e+00,-2.000000000000000000e+00,4.000000000000000000e+00,-2.000000000000000000e+00,-4.391479492187500000e-01,1.298217773437500000e-01,7.244262695312500000e-01,5.151977539062500000e-01
-3.000000000000000000e+00,-5.000000000000000000e+00,4.000000000000000000e+00,2.000000000000000000e+00,-1.000000000000000000e+00,1.000000000000000000e+00,1.000000000000000000e+00,-4.000000000000000000e+00,-4.391479492187500000e-01,1.298217773437500000e-01,7.244262695312500000e-01,5.151977539062500000e-01
4.000000000000000000e+00,5.000000000000000000e+00,6.000000000000000000e+00,2.000000000000000000e+00,0.000000000000000000e+00,-2.000000000000000000e+00,0.000000000000000000e+00,2.000000000000000000e+00,-4.396972656250000000e-01,1.317138671875000000e-01,7.243652343750000000e-01,5.143432617187500000e-01
2.000000000000000000e+00,-4.000000000000000000e+00,0.000000000000000000e+00,1.000000000000000000e+00,0.000000000000000000e+00,-2.000000000000000000e+00,-4.000000000000000000e+00,-2.000000000000000000e+00,-4.396972656250000000e-01,1.317138671875000000e-01,7.243652343750000000e-01,5.143432617187500000e-01
0.000000000000000000e+00,3.000000000000000000e+00,7.000000000000000000e+00,3.000000000000000000e+00,0.000000000000000000e+00,-1.000000000000000000e+00,-5.000000000000000000e+00,1.000000000000000000e+00,-4.396972656250000000e-01,1.317138671875000000e-01,7.243652343750000000e-01,5.143432617187500000e-01
-6.000000000000000000e+00,1.000000000000000000e+00,4.000000000000000000e+00,-6.000000000000000000e+00,-4.000000000000000000e+00,-5.000000000000000000e+00,0.000000000000000000e+00,-2.000000000000000000e+00,-4.396972656250000000e-01,1.317138671875000000e-01,7.243652343750000000e-01,5.143432617187500000e-01
4.000000000000000000e+00,1.000000000000000000e+00,-1.000000000000000000e+00,4.000000000000000000e+00,0.000000000000000000e+00,4.000000000000000000e+00,-3.000000000000000000e+00,3.000000000000000000e+00,-4.401245117187500000e-01,1.338500976562500000e-01,7.241210937500000000e-01,5.137939453125000000e-01
5.000000000000000000e+00,4.000000000000000000e+00,9.000000000000000000e+00,5.000000000000000000e+00,0.000000000000000000e+00,-1.000000000000000000e+00,0.000000000000000000e+00,6.000000000000000000e+00,-4.401245117187500000e-01,1.338500976562500000e-01,7.241210937500000000e-01,5.137939453125000000e-01
-3.000000000000000000e+00,-3.000000000000000000e+00,3.000000000000000000e+00,-7.000000000000000000e+00,-4.000000000000000000e+00,0.000000000000000000e+00,0.000000000000000000e+00,-2.000000000000000000e+00,-4.401245117187500000e-01,1.338500976562500000e-01,7.241210937500000000e-01,5.137939453125000000e-01
-3.000000000000000000e+00,-3.000000000000000000e+00,-7.000000000000000000e+00,-1.000000000000000000e+00,3.000000000000000000e+00,-3.000000000000000000e+00,0.000000000000000000e+00,5.000000000000000000e+00,-4.401245117187500000e-01,1.338500976562500000e-01,7.241210937500000000e-01,5.137939453125000000e-01
-4.000000000000000000e+00,-1.000000000000000000e+00,2.000000000000000000e+00,0.000000000000000000e+00,2.000000000000000000e+00,-3.000000000000000000e+00,-1.200000000000000000e+01,-2.000000000000000000e+00,-4.406127929687500000e-01,1.356811523437500000e-01,7.238159179687500000e-01,5.133056640625000000e-01
-6.000000000000000000e+00,-5.000000000000000000e+00,7.000000000000000000e+00,4.000000000000000000e+00,1.000000000000000000e+00,0.000000000000000000e+00,1.100000000000000000e+01,-1.000000000000000000e+00,-4.406127929687500000e-01,1.356811523437500000e-01,7.238159179687500000e-01,5.133056640625000000e-01
0.000000000000000000e+00,0.000000000000000000e+00,-5.000000000000000000e+00,4.000000000000000000e+00,-2.000000000000000000e+00,-1.000000000000000000e+00,-7.000000000000000000e+00,0.000000000000000000e+00,-4.406127929687500000e-01,1.356811523437500000e-01,7.238159179687500000e-01,5.133056640625000000e-01
-3.000000000000000000e+00,-3.000000000000000000e+00,-2.000000000000000000e+00,-2.000000000000000000e+00,-6.000000000000000000e+00,-1.000000000000000000e+00,3.000000000000000000e+00,-1.000000000000000000e+00,-4.406127929687500000e-01,1.356811523437500000e-01,7.238159179687500000e-01,5.133056640625000000e-01
