-7.000000000000000000e+00,-1.500000000000000000e+01,1.400000000000000000e+01,-5.000000000000000000e+01,-2.000000000000000000e+01,-8.000000000000000000e+00,2.000000000000000000e+00,0.000000000000000000e+00,2.191162109375000000e-01,-1.119384765625000000e-01,-6.303710937500000000e-01,-7.363281250000000000e-01
-1.000000000000000000e+00,1.000000000000000000e+00,2.500000000000000000e+01,3.800000000000000000e+01,3.700000000000000000e+01,2.700000000000000000e+01,1.000000000000000000e+01,1.000000000000000000e+00,2.191162109375000000e-01,-1.119384765625000000e-01,-6.303710937500000000e-01,-7.363281250000000000e-01
1.000000000000000000e+00,-4.000000000000000000e+00,-1.700000000000000000e+01,-2.500000000000000000e+01,-4.000000000000000000e+00,-3.000000000000000000e+00,6.000000000000000000e+00,1.000000000000000000e+00,2.261352539062500000e-01,-1.039428710937500000e-01,-6.349487304687500000e-01,-7.313842773437500000e-01
0.000000000000000000e+00,1.000000000000000000e+00,8.000000000000000000e+00,-7.000000000000000000e+00,-1.000000000000000000e+01,-1.900000000000000000e+01,-9.000000000000000000e+00,-3.000000000000000000e+00,2.261352539062500000e-01,-1.039428710937500000e-01,-6.349487304687500000e-01,-7.313842773437500000e-01
1.300000000000000000e+01,1.600000000000000000e+01,4.100000000000000000e+01,-2.300000000000000000e+01,-1.100000000000000000e+01,-3.000000000000000000e+00,1.000000000000000000e+00,0.000000000000000000e+00,2.261352539062500000e-01,-1.039428710937500000e-01,-6.349487304687500000e-01,-7.313842773437500000e-01
-2.200000000000000000e+01,-1.900000000000000000e+01,-5.700000000000000000e+01,7.000000000000000000e+00,-2.000000000000000000e+00,-5.000000000000000000e+00,-6.000000000000000000e+00,-2.000000000000000000e+00,2.261352539062500000e-01,-1.039428710937500000e-01,-6.349487304687500000e-01,-7.313842773437500000e-01
8.000000000000000000e+00,-3.000000000000000000e+00,-7.000000000000000000e+00,-1.400000000000000000e+01,-1.000000000000000000e+01,-1.000000000000000000e+01,-2.000000000000000000e+00,-1.000000000000000000e+00,2.387084960937500000e-01,-8.874511718750000000e-02,-6.382446289062500000e-01,-7.265014648437500000e-01
-1.000000000000000000e+00,-5.000000000000000000e+00,7.000000000000000000e+00,-9.000000000000000000e+00,-7.000000000000000000e+00,-2.000000000000000000e+00,-9.000000000000000000e+00,-1.000000000000000000e+00,2.387084960937500000e-01,-8.874511718750000000e-02,-6.382446289062500000e-01,-7.265014648437500000e-01
1.000000000000000000e+00,7.000000000000000000e+00,-2.300000000000000000e+01,2.100000000000000000e+01,1.000000000000000000e+01,0.000000000000000000e+00,-3.000000000000000000e+00,-1.000000000000000000e+00,2.387084960937500000e-01,-8.874511718750000000e-02,-6.382446289062500000e-01,-7.265014648437500000e-01
8.000000000000000000e+00,3.000000000000000000e+00,3.000000000000000000e+00,-3.600000000000000000e+01,-1.000000000000000000e+01,0.000000000000000000e+00,4.000000000000000000e+00,2.000000000000000000e+00,2.387084960937500000e-01,-8.874511718750000000e-02,-6.382446289062500000e-01,-7.265014648437500000e-01
-1.000000000000000000e+00,4.000000000000000000e+00,1.100000000000000000e+01,3.700000000000000000e+01,-4.000000000000000000e+00,4.000000000000000000e+00,5.000000000000000000e+00,-1.000000000000000000e+00,2.472534179687500000e-01,-7.720947265625000000e-02,-6.373291015625000000e-01,-7.258300781250000000e-01
-1.700000000000000000e+01,-1.000000000000000000e+01,-1.900000000000000000e+01,-6.000000000000000000e+00,0.000000000000000000e+00,-6.000000000000000000e+00,-7.000000000000000000e+00,-3.000000000000000000e+00,2.472534179687500000e-01,-7.720947265625000000e-02,-6.373291015625000000e-01,-7.258300781250000000e-01
6.000000000000000000e+00,0.000000000000000000e+00,-1.000000000000000000e+01,-3.600000000000000000e+01,-2.600000000000000000e+01,-7.000000000000000000e+00,-2.000000000000000000e+00,0.000000000000000000e+00,2.472534179687500000e-01,-7.720947265625000000e-02,-6.373291015625000000e-01,-7.258300781250000000e-01
5.000000000000000000e+00,8.000000000000000000e+00,7.000000000000000000e+00,1.400000000000000000e+01,2.000000000000000000e+01,7.000000000000000000e+00,-5.000000000000000000e+00,3.000000000000000000e+00,2.472534179687500000e-01,-7.720947265625000000e-02,-6.373291015625000000e-01,-7.258300781250000000e-01
-3.000000000000000000e+00,-3.000000000000000000e+00,9.000000000000000000e+00,-1.600000000000000000e+01,6.000000000000000000e+00,5.000000000000000000e+00,5.000000000000000000e+00,-2.000000000000000000e+00,2.454833984375000000e-01,-7.733154296875000000e-02,-6.346435546875000000e-01,-7.287597656250000000e-01
5.000000000000000000e+00,7.000000000000000000e+00,-2.000000000000000000e+00,2.300000000000000000e+01,-1.000000000000000000e+00,-1.400000000000000000e+01,-1.100000000000000000e+01,-1.000000000000000000e+00,2.454833984375000000e-01,-7.733154296875000000e-02,-6.346435546875000000e-01,-7.287597656250000000e-01
-9.000000000000000000e+00,-1.600000000000000000e+01,-2.500000000000000000e+01,1.000000000000000000e+01,1.300000000000000000e+01,8.000000000000000000e+00,1.000000000000000000e+00,-1.000000000000000000e+00,2.454833984375000000e-01,-7.733154296875000000e-02,-6.346435546875000000e-01,-7.287597656250000000e-01
0.000000000000000000e+00,-2.000000000000000000e+00,1.000000000000000000e+00,-2.000000000000000000e+01,-1.100000000000000000e+01,1.000000000000000000e+01,9.000000000000000000e+00,2.000000000000000000e+00,2.454833984375000000e-01,-7.733154296875000000e-02,-6.346435546875000000e-01,-7.287597656250000000e-01
2.000000000000000000e+00,6.000000000000000000e+00,-1.900000000000000000e+01,-2.100000000000000000e+01,-1.000000000000000000e+00,-1.800000000000000000e+01,-4.000000000000000000e+00,-1.000000000000000000e+00,2.376098632812500000e-01,-8.361816406250000000e-02,-6.324462890625000000e-01,-7.325439453125000000e-01
-1.000000000000000000e+00,-1.300000000000000000e+01,3.000000000000000000e+01,1.500000000000000000e+01,1.500000000000000000e+01,9.000000000000000000e+00,0.000000000000000000e+00,-4.000000000000000000e+00,2.376098632812500000e-01,-8.361816406250000000e-02,-6.324462890625000000e-01,-7.325439453125000000e-01
4.000000000000000000e+00,3.000000000000000000e+00,6.000000000000000000e+00,-9.000000000000000000e+00,-7.000000000000000000e+00,1.400000000000000000e+01,-1.000000000000000000e+00,3.000000000000000000e+00,2.376098632812500000e-01,-8.361816406250000000e-02,-6.324462890625000000e-01,-7.325439453125000000e-01
3.000000000000000000e+00,3.000000000000000000e+00,-2.900000000000000000e+01,2.700000000000000000e+01,5.000000000000000000e+00,3.000000000000000000e+00,1.200000000000000000e+01,1.000000000000000000e+00,2.376098632812500000e-01,-8.361816406250000000e-02,-6.324462890625000000e-01,-7.325439453125000000e-01
3.000000000000000000e+00,5.000000000000000000e+00,1.300000000000000000e+01,-6.000000000000000000e+00,4.000000000000000000e+00,1.300000000000000000e+01,1.700000000000000000e+01,6.000000000000000000e+00,2.324829101562500000e-01,-8.758544921875000000e-02,-6.315307617187500000e-01,-7.345581054687500000e-01
4.000000000000000000e+00,3.000000000000000000e+00,-5.000000000000000000e+00,2.300000000000000000e+01,2.400000000000000000e+01,-6.000000000000000000e+00,-5.000000000000000000e+00,0.000000000000000000e+00,2.324829101562500000e-01,-8.758544921875000000e-02,-6.315307617187500000e-01,-7.345581054687500000e-01
-3.000000000000000000e+00,-1.400000000000000000e+01,-2.400000000000000000e+01,-5.800000000000000000e+01,-2.300000000000000000e+01,-1.400000000000000000e+01,-8.000000000000000000e+00,-7.000000000000000000e+00,2.324829101562500000e-01,-8.758544921875000000e-02,-6.315307617187500000e-01,-7.345581054687500000e-01
-7.000000000000000000e+00,-4.000000000000000000e+00,1.500000000000000000e+01,5.300000000000000000e+01,-1.700000000000000000e+01,-9.000000000000000000e+00,-6.000000000000000000e+00,-5.000000000000000000e+00,2.324829101562500000e-01,-8.758544921875000000e-02,-6.315307617187500000e-01,-7.345581054687500000e-01
4.000000000000000000e+00,6.000000000000000000e+00,2.800000000000000000e+01,1.200000000000000000e+01,1.700000000000000000e+01,5.000000000000000000e+00,-4.000000000000000000e+00,1.000000000000000000e+00,2.329101562500000000e-01,-8.673095703125000000e-02,-6.320800781250000000e-01,-7.340087890625000000e-01
0.000000000000000000e+00,-2.000000000000000000e+00,-2.900000000000000000e+01,-3.500000000000000000e+01,-1.800000000000000000e+01,-8.000000000000000000e+00,-2.000000000000000000e+00,-2.000000000000000000e+00,2.329101562500000000e-01,-8.673095703125000000e-02,-6.320800781250000000e-01,-7.340087890625000000e-01
1.000000000000000000e+00,-1.000000000000000000e+00,-1.000000000000000000e+00,-2.300000000000000000e+01,-1.000000000000000000e+00,0.000000000000000000e+00,1.000000000000000000e+00,-2.000000000000000000e+00,2.329101562500000000e-01,-8.673095703125000000e-02,-6.320800781250000000e-01,-7.340087890625000000e-01
-1.700000000000000000e+01,-1.500000000000000000e+01,1.300000000000000000e+01,3.000000000000000000e+01,2.900000000000000000e+01,2.000000000000000000e+00,-5.000000000000000000e+00,-3.000000000000000000e+00,2.329101562500000000e-01,-8.673095703125000000e-02,-6.320800781250000000e-01,-7.340087890625000000e-01
-2.000000000000000000e+00,-2.000000000000000000e+00,-1.300000000000000000e+01,-1.100000000000000000e+01,-7.000000000000000000e+00,-2.000000000000000000e+00,-2.000000000000000000e+00,-1.000000000000000000e+00,2.365112304687500000e-01,-8.349609375000000000e-02,-6.333007812500000000e-01,-7.321777343750000000e-01
0.000000000000000000e+00,0.000000000000000000e+00,2.200000000000000000e+01,-1.000000000000000000e+00,-1.000000000000000000e+01,4.000000000000000000e+00,-1.000000000000000000e+00,2.000000000000000000e+00,2.365112304687500000e-01,-8.349609375000000000e-02,-6.333007812500000000e-01,-7.321777343750000000e-01
4.000000000000000000e+00,7.000000000000000000e+00,-3.800000000000000000e+01,-7.000000000000000000e+00,-4.000000000000000000e+00,0.000000000000000000e+00,0.000000000000000000e+00,-1.000000000000000000e+00,2.365112304687500000e-01,-8.349609375000000000e-02,-6.333007812500000000e-01,-7.321777343750000000e-01
3.000000000000000000e+00,2.000000000000000000e+00,5.000000000000000000e+00,-1.600000000000000000e+01,0.000000000000000000e+00,-1.000000000000000000e+01,-5.000000000000000000e+00,-3.000000000000000000e+00,2.365112304687500000e-01,-8.349609375000000000e-02,-6.333007812500000000e-01,-7.321777343750000000e-01
-6.000000000000000000e+00,-2.000000000000000000e+00,2.500000000000000000e+01,1.300000000000000000e+01,3.000000000000000000e+00,1.000000000000000000e+00,-5.000000000000000000e+00,-3.000000000000000000e+00,2.395629882812500000e-01,-8.105468750000000000e-02,-6.341552734375000000e-01,-7.307128906250000000e-01
1.000000000000000000e+01,9.000000000000000000e+00,-6.000000000000000000e+00,-2.900000000000000000e+01,-6.000000000000000000e+00,2.000000000000000000e+00,4.000000000000000000e+00,3.000000000000000000e+00,2.395629882812500000e-01,-8.105468750000000000e-02,-6.341552734375000000e-01,-7.307128906250000000e-01
-6.000000000000000000e+00,-1.700000000000000000e+01,-6.000000000000000000e+00,3.000000000000000000e+00,1.100000000000000000e+01,-7.000000000000000000e+00,-8.000000000000000000e+00,-2.000000000000000000e+00,2.395629882812500000e-01,-8.105468750000000000e-02,-6.341552734375000000e-01,-7.307128906250000000e-01
3.000000000000000000e+00,6.000000000000000000e+00,6.000000000000000000e+00,-2.000000000000000000e+01,-2.500000000000000000e+01,6.000000000000000000e+00,1.400000000000000000e+01,-2.000000000000000000e+00,2.395629882812500000e-01,-8.105468750000000000e-02,-6.341552734375000000e-01,-7.307128906250000000e-01
-9.000000000000000000e+00,-1.100000000000000000e+01,-7.000000000000000000e+00,-4.500000000000000000e+01,-1.000000000000000000e+00,-7.000000000000000000e+00,-5.000000000000000000e+00,-4.000000000000000000e+00,2.396850585937500000e-01,-8.129882812500000000e-02,-6.345825195312500000e-01,-7.302856445312500000e-01
1.200000000000000000e+01,9.000000000000000000e+00,0.000000000000000000e+00,2.900000000000000000e+01,4.000000000000000000e+01,9.000000000000000000e+00,-5.000000000000000000e+00,1.000000000000000000e+00,2.396850585937500000e-01,-8.129882812500000000e-02,-6.345825195312500000e-01,-7.302856445312500000e-01
-1.800000000000000000e+01,-5.000000000000000000e+00,1.500000000000000000e+01,5.000000000000000000e+01,8.000000000000000000e+00,9.000000000000000000e+00,2.000000000000000000e+00,0.000000000000000000e+00,2.396850585937500000e-01,-8.129882812500000000e-02,-6.345825195312500000e-01,-7.302856445312500000e-01
0.000000000000000000e+00,2.000000000000000000e+00,-2.100000000000000000e+01,-2.300000000000000000e+01,-3.000000000000000000e+00,7.000000000000000000e+00,7.000000000000000000e+00,1.000000000000000000e+00,2.396850585937500000e-01,-8.129882812500000000e-02,-6.345825195312500000e-01,-7.302856445312500000e-01
3.000000000000000000e+00,-4.000000000000000000e+00,2.000000000000000000e+01,-4.600000000000000000e+01,-1.700000000000000000e+01,-1.000000000000000000e+00,-6.000000000000000000e+00,0.000000000000000000e+00,2.377319335937500000e-01,-8.331298828125000000e-02,-6.350097656250000000e-01,-7.302856445312500000e-01
-7.000000000000000000e+00,-6.000000000000000000e+00,0.000000000000000000e+00,2.100000000000000000e+01,-2.000000000000000000e+00,-1.000000000000000000e+01,1.000000000000000000e+00,-3.000000000000000000e+00,2.377319335937500000e-01,-8.331298828125000000e-02,-6.350097656250000000e-01,-7.302856445312500000e-01
6.000000000000000000e+00,1.000000000000000000e+00,-4.400000000000000000e+01,1.500000000000000000e+01,2.000000000000000000e+00,-8.000000000000000000e+00,-4.000000000000000000e+00,-2.000000000000000000e+00,2.377319335937500000e-01,-8.331298828125000000e-02,-6.350097656250000000e-01,-7.302856445312500000e-01
1.000000000000000000e+00,-2.000000000000000000e+00,1.000000000000000000e+01,1.100000000000000000e+01,1.500000000000000000e+01,-1.000000000000000000e+00,-6.000000000000000000e+00,0.000000000000000000e+00,2.377319335937500000e-01,-8.331298828125000000e-02,-6.350097656250000000e-01,-7.302856445312500000e-01
6.000000000000000000e+00,1.400000000000000000e+01,9.000000000000000000e+00,3.600000000000000000e+01,1.000000000000000000e+00,-1.000000000000000000e+00,4.000000000000000000e+00,2.000000000000000000e+00,2.367553710937500000e-01,-8.441162109375000000e-02,-6.357421875000000000e-01,-7.298583984375000000e-01
-8.000000000000000000e+00,-1.800000000000000000e+01,-5.200000000000000000e+01,-2.100000000000000000e+01,6.000000000000000000e+00,-1.000000000000000000e+00,-3.000000000000000000e+00,-4.000000000000000000e+00,2.367553710937500000e-01,-8.441162109375000000e-02,-6.357421875000000000e-01,-7.298583984375000000e-01
0.000000000000000000e+00,4.000000000000000000e+00,3.500000000000000000e+01,1.900000000000000000e+01,-2.000000000000000000e+00,-1.000000000000000000e+00,-3.000000000000000000e+00,-2.000000000000000000e+00,2.367553710937500000e-01,-8.441162109375000000e-02,-6.357421875000000000e-01,-7.298583984375000000e-01
-9.000000000000000000e+00,-3.000000000000000000e+00,-4.000000000000000000e+00,0.000000000000000000e+00,0.000000000000000000e+00,-1.000000000000000000e+00,1.000000000000000000e+00,0.000000000000000000e+00,2.367553710937500000e-01,-8.441162109375000000e-02,-6.357421875000000000e-01,-7.298583984375000000e-01
3.000000000000000000e+00,2.000000000000000000e+00,-8.000000000000000000e+00,2.000000000000000000e+01,-5.000000000000000000e+00,-4.000000000000000000e+00,-4.000000000000000000e+00,1.000000000000000000e+00,2.369995117187500000e-01,-8.447265625000000000e-02,-6.362915039062500000e-01,-7.293090820312500000e-01
9.000000000000000000e+00,1.100000000000000000e+01,1.500000000000000000e+01,-3.000000000000000000e+00,-3.000000000000000000e+00,-1.400000000000000000e+01,-1.100000000000000000e+01,0.000000000000000000e+00,2.369995117187500000e-01,-8.447265625000000000e-02,-6.362915039062500000e-01,-7.293090820312500000e-01
1.000000000000000000e+01,1.000000000000000000e+00,2.800000000000000000e+01,-9.000000000000000000e+00,-2.000000000000000000e+00,2.900000000000000000e+01,2.200000000000000000e+01,2.000000000000000000e+00,2.369995117187500000e-01,-8.447265625000000000e-02,-6.362915039062500000e-01,-7.293090820312500000e-01
-1.600000000000000000e+01,-1.100000000000000000e+01,-1.500000000000000000e+01,-4.100000000000000000e+01,-1.700000000000000000e+01,-8.000000000000000000e+00,-4.000000000000000000e+00,-2.000000000000000000e+00,2.369995117187500000e-01,-8.447265625000000000e-02,-6.362915039062500000e-01,-7.293090820312500000e-01
-1.200000000000000000e+01,-1.900000000000000000e+01,-1.000000000000000000e+01,3.300000000000000000e+01,-8.000000000000000000e+00,1.000000000000000000e+00,0.000000000000000000e+00,-4.000000000000000000e+00,2.369384765625000000e-01,-8.471679687500000000e-02,-6.366577148437500000e-01,-7.290039062500000000e-01
-3.000000000000000000e+00,0.000000000000000000e+00,-4.000000000000000000e+00,-1.000000000000000000e+00,-2.000000000000000000e+00,3.000000000000000000e+00,1.000000000000000000e+00,2.000000000000000000e+00,2.369384765625000000e-01,-8.471679687500000000e-02,-6.366577148437500000e-01,-7.290039062500000000e-01
7.000000000000000000e+00,5.000000000000000000e+00,-2.500000000000000000e+01,1.700000000000000000e+01,9.000000000000000000e+00,-1.200000000000000000e+01,-1.000000000000000000e+01,-5.000000000000000000e+00,2.369384765625000000e-01,-8.471679687500000000e-02,-6.366577148437500000e-01,-7.290039062500000000e-01
5.000000000000000000e+00,1.000000000000000000e+00,1.900000000000000000e+01,-4.000000000000000000e+00,-8.000000000000000000e+00,1.000000000000000000e+00,-3.000000000000000000e+00,-2.000000000000000000e+00,2.369384765625000000e-01,-8.471679687500000000e-02,-6.366577148437500000e-01,-7.290039062500000000e-01
-6.000000000000000000e+00,2.000000000000000000e+00,-1.800000000000000000e+01,-5.000000000000000000e+00,3.000000000000000000e+00,-5.000000000000000000e+00,2.000000000000000000e+00,-1.000000000000000000e+00,2.362670898437500000e-01,-8.532714843750000000e-02,-6.370849609375000000e-01,-7.287597656250000000e-01
-6.000000000000000000e+00,-6.000000000000000000e+00,1.700000000000000000e+01,-1.900000000000000000e+01,-2.000000000000000000e+01,9.000000000000000000e+00,-6.000000000000000000e+00,-5.000000000000000000e+00,2.362670898437500000e-01,-8.532714843750000000e-02,-6.370849609375000000e-01,-7.287597656250000000e-01
-9.000000000000000000e+00,-1.000000000000000000e+00,1.400000000000000000e+01,6.000000000000000000e+01,1.700000000000000000e+01,-3.000000000000000000e+00,0.000000000000000000e+00,0.000000000000000000e+00,2.362670898437500000e-01,-8.532714843750000000e-02,-6.370849609375000000e-01,-7.287597656250000000e-01
6.000000000000000000e+00,1.000000000000000000e+00,1.000000000000000000e+01,8.000000000000000000e+00,1.000000000000000000e+01,4.000000000000000000e+00,-2.000000000000000000e+00,0.000000000000000000e+00,2.362670898437500000e-01,-8.532714843750000000e-02,-6.370849609375000000e-01,-7.287597656250000000e-01
-1.000000000000000000e+00,-7.000000000000000000e+00,-2.900000000000000000e+01,-1.800000000000000000e+01,-6.000000000000000000e+00,-6.000000000000000000e+00,-4.000000000000000000e+00,-3.000000000000000000e+00,2.352905273437500000e-01,-8.630371093750000000e-02,-6.375732421875000000e-01,-7.285156250000000000e-01
-1.000000000000000000e+01,-5.000000000000000000e+00,2.100000000000000000e+01,-4.000000000000000000e+00,-2.800000000000000000e+01,-2.200000000000000000e+01,-6.000000000000000000e+00,-6.000000000000000000e+00,2.352905273437500000e-01,-8.630371093750000000e-02,-6.375732421875000000e-01,-7.285156250000000000e-01
-8.000000000000000000e+00,-1.600000000000000000e+01,-2.100000000000000000e+01,-2.900000000000000000e+01,-9.000000000000000000e+00,2.000000000000000000e+00,-5.000000000000000000e+00,-1.000000000000000000e+00,2.352905273437500000e-01,-8.630371093750000000e-02,-6.375732421875000000e-01,-7.285156250000000000e-01
6.000000000000000000e+00,6.000000000000000000e+00,2.000000000000000000e+01,-2.000000000000000000e+00,-1.000000000000000000e+00,3.000000000000000000e+00,0.000000000000000000e+00,2.000000000000000000e+00,2.352905273437500000e-01,-8.630371093750000000e-02,-6.375732421875000000e-01,-7.285156250000000000e-01
-4.000000000000000000e+00,-1.200000000000000000e+01,-1.400000000000000000e+01,1.800000000000000000e+01,-3.000000000000000000e+00,3.000000000000000000e+00,0.000000000000000000e+00,-4.000000000000000000e+00,2.349243164062500000e-01,-8.648681640625000000e-02,-6.378784179687500000e-01,-7.283325195312500000e-01
1.000000000000000000e+00,5.000000000000000000e+00,0.000000000000000000e+00,3.100000000000000000e+01,-1.000000000000000000e+01,-6.000000000000000000e+00,1.000000000000000000e+00,1.000000000000000000e+00,2.349243164062500000e-01,-8.648681640625000000e-02,-6.378784179687500000e-01,-7.283325195312500000e-01
-4.000000000000000000e+00,9.000000000000000000e+00,3.100000000000000000e+01,-1.600000000000000000e+01,2.200000000000000000e+01,-1.000000000000000000e+00,2.000000000000000000e+00,-2.000000000000000000e+00,2.349243164062500000e-01,-8.648681640625000000e-02,-6.378784179687500000e-01,-7.283325195312500000e-01
1.000000000000000000e+00,-1.200000000000000000e+01,-1.300000000000000000e+01,2.800000000000000000e+01,4.000000000000000000e+00,-7.000000000000000000e+00,-3.000000000000000000e+00,0.000000000000000000e+00,2.349243164062500000e-01,-8.648681640625000000e-02,-6.378784179687500000e-01,-7.283325195312500000e-01
3.000000000000000000e+00,9.000000000000000000e+00,1.200000000000000000e+01,-2.000000000000000000e+00,-4.000000000000000000e+00,1.000000000000000000e+00,-3.000000000000000000e+00,0.000000000000000000e+00,2.352905273437500000e-01,-8.587646484375000000e-02,-6.378173828125000000e-01,-7.283935546875000000e-01
2.000000000000000000e+00,-4.000000000000000000e+00,0.000000000000000000e+00,-2.900000000000000000e+01,-7.000000000000000000e+00,1.000000000000000000e+00,3.000000000000000000e+00,-2.000000000000000000e+00,2.352905273437500000e-01,-8.587646484375000000e-02,-6.378173828125000000e-01,-7.283935546875000000e-01
-1.900000000000000000e+01,-5.000000000000000000e+00,-2.700000000000000000e+01,1.800000000000000000e+01,3.000000000000000000e+01,1.000000000000000000e+01,5.000000000000000000e+00,1.000000000000000000e+00,2.352905273437500000e-01,-8.587646484375000000e-02,-6.378173828125000000e-01,-7.283935546875000000e-01
9.000000000000000000e+00,3.000000000000000000e+00,-2.100000000000000000e+01,-8.700000000000000000e+01,-1.800000000000000000e+01,-7.000000000000000000e+00,-9.000000000000000000e+00,-2.000000000000000000e+00,2.352905273437500000e-01,-8.587646484375000000e-02,-6.378173828125000000e-01,-7.283935546875000000e-01
-4.000000000000000000e+00,3.000000000000000000e+00,7.400000000000000000e+01,4.300000000000000000e+01,-4.000000000000000000e+00,-1.000000000000000000e+00,1.000000000000000000e+00,0.000000000000000000e+00,2.351074218750000000e-01,-8.599853515625000000e-02,-6.376342773437500000e-01,-7.285766601562500000e-01
-3.000000000000000000e+00,-9.000000000000000000e+00,-3.500000000000000000e+01,-2.000000000000000000e+01,1.600000000000000000e+01,6.000000000000000000e+00,1.000000000000000000e+00,2.000000000000000000e+00,2.351074218750000000e-01,-8.599853515625000000e-02,-6.376342773437500000e-01,-7.285766601562500000e-01
6.000000000000000000e+00,4.000000000000000000e+00,1.100000000000000000e+01,-1.600000000000000000e+01,-1.500000000000000000e+01,-9.000000000000000000e+00,-3.000000000000000000e+00,-2.000000000000000000e+00,2.351074218750000000e-01,-8.599853515625000000e-02,-6.376342773437500000e-01,-7.285766601562500000e-01
4.000000000000000000e+00,9.000000000000000000e+00,-6.000000000000000000e+00,-3.100000000000000000e+01,-1.900000000000000000e+01,-1.000000000000000000e+01,-2.000000000000000000e+00,-3.000000000000000000e+00,2.351074218750000000e-01,-8.599853515625000000e-02,-6.376342773437500000e-01,-7.285766601562500000e-01
-2.000000000000000000e+01,-1.200000000000000000e+01,-1.000000000000000000e+00,3.200000000000000000e+01,3.800000000000000000e+01,1.100000000000000000e+01,3.000000000000000000e+00,-3.000000000000000000e+00,2.348632812500000000e-01,-8.630371093750000000e-02,-6.374511718750000000e-01,-7.287597656250000000e-01
1.100000000000000000e+01,-1.000000000000000000e+00,-2.000000000000000000e+01,4.000000000000000000e+00,0.000000000000000000e+00,-4.000000000000000000e+00,-4.000000000000000000e+00,2.000000000000000000e+00,2.348632812500000000e-01,-8.630371093750000000e-02,-6.374511718750000000e-01,-7.287597656250000000e-01
-1.000000000000000000e+00,-9.000000000000000000e+00,6.000000000000000000e+00,2.000000000000000000e+01,-5.000000000000000000e+00,-1.300000000000000000e+01,-1.100000000000000000e+01,-4.000000000000000000e+00,2.348632812500000000e-01,-8.630371093750000000e-02,-6.374511718750000000e-01,-7.287597656250000000e-01
5.000000000000000000e+00,7.000000000000000000e+00,2.500000000000000000e+01,-1.800000000000000000e+01,-9.000000000000000000e+00,1.500000000000000000e+01,1.900000000000000000e+01,2.000000000000000000e+00,2.348632812500000000e-01,-8.630371093750000000e-02,-6.374511718750000000e-01,-7.287597656250000000e-01
0.000000000000000000e+00,-9.000000000000000000e+00,-7.100000000000000000e+01,-4.200000000000000000e+01,-1.000000000000000000e+01,6.000000000000000000e+00,8.000000000000000000e+00,-2.000000000000000000e+00,2.349243164062500000e-01,-8.630371093750000000e-02,-6.372680664062500000e-01,-7.288818359375000000e-01
-9.000000000000000000e+00,2.000000000000000000e+00,3.200000000000000000e+01,-1.000000000000000000e+00,-1.300000000000000000e+01,0.000000000000000000e+00,2.000000000000000000e+00,-3.000000000000000000e+00,2.349243164062500000e-01,-8.630371093750000000e-02,-6.372680664062500000e-01,-7.288818359375000000e-01
3.000000000000000000e+00,7.000000000000000000e+00,4.000000000000000000e+00,-2.800000000000000000e+01,-2.000000000000000000e+00,-5.000000000000000000e+00,1.000000000000000000e+00,0.000000000000000000e+00,2.349243164062500000e-01,-8.630371093750000000e-02,-6.372680664062500000e-01,-7.288818359375000000e-01
-3.000000000000000000e+00,-2.000000000000000000e+00,-1.100000000000000000e+01,8.000000000000000000e+00,-3.000000000000000000e+00,-1.100000000000000000e+01,-1.500000000000000000e+01,-5.000000000000000000e+00,2.349243164062500000e-01,-8.630371093750000000e-02,-6.372680664062500000e-01,-7.288818359375000000e-01
1.100000000000000000e+01,9.000000000000000000e+00,3.600000000000000000e+01,3.800000000000000000e+01,1.800000000000000000e+01,4.000000000000000000e+00,-1.000000000000000000e+00,3.000000000000000000e+00,2.355346679687500000e-01,-8.599853515625000000e-02,-6.370239257812500000e-01,-7.289428710937500000e-01
-5.000000000000000000e+00,-3.000000000000000000e+00,1.100000000000000000e+01,-1.000000000000000000e+00,0.000000000000000000e+00,2.000000000000000000e+00,3.000000000000000000e+00,-2.000000000000000000e+00,2.355346679687500000e-01,-8.599853515625000000e-02,-6.370239257812500000e-01,-7.289428710937500000e-01
-1.400000000000000000e+01,-1.200000000000000000e+01,-1.700000000000000000e+01,-7.000000000000000000e+00,-8.000000000000000000e+00,-4.000000000000000000e+00,-1.000000000000000000e+00,-4.000000000000000000e+00,2.355346679687500000e-01,-8.599853515625000000e-02,-6.370239257812500000e-01,-7.289428710937500000e-01
-2.000000000000000000e+00,-3.000000000000000000e+00,7.000000000000000000e+00,1.800000000000000000e+01,6.000000000000000000e+00,-7.000000000000000000e+00,-7.000000000000000000e+00,-3.000000000000000000e+00,2.355346679687500000e-01,-8.599853515625000000e-02,-6.370239257812500000e-01,-7.289428710937500000e-01
3.000000000000000000e+00,1.000000000000000000e+00,0.000000000000000000e+00,-3.900000000000000000e+01,-1.700000000000000000e+01,-9.000000000000000000e+00,-3.000000000000000000e+00,0.000000000000000000e+00,2.355957031250000000e-01,-8.630371093750000000e-02,-6.365966796875000000e-01,-7.292480468750000000e-01
9.000000000000000000e+00,1.200000000000000000e+01,1.500000000000000000e+01,2.900000000000000000e+01,3.000000000000000000e+00,9.000000000000000000e+00,2.000000000000000000e+00,-1.000000000000000000e+00,2.355957031250000000e-01,-8.630371093750000000e-02,-6.365966796875000000e-01,-7.292480468750000000e-01
1.000000000000000000e+00,-5.000000000000000000e+00,4.000000000000000000e+00,0.000000000000000000e+00,1.100000000000000000e+01,2.000000000000000000e+00,0.000000000000000000e+00,0.000000000000000000e+00,2.355957031250000000e-01,-8.630371093750000000e-02,-6.365966796875000000e-01,-7.292480468750000000e-01
-7.000000000000000000e+00,-6.000000000000000000e+00,-1.500000000000000000e+01,-1.300000000000000000e+01,-5.000000000000000000e+00,-7.000000000000000000e+00,-5.000000000000000000e+00,-1.000000000000000000e+00,2.355957031250000000e-01,-8.630371093750000000e-02,-6.365966796875000000e-01,-7.292480468750000000e-01
6.000000000000000000e+00,3.000000000000000000e+00,-1.500000000000000000e+01,-4.600000000000000000e+01,-8.000000000000000000e+00,-1.000000000000000000e+00,-5.000000000000000000e+00,1.000000000000000000e+00,2.351074218750000000e-01,-8.715820312500000000e-02,-6.364135742187500000e-01,-7.294921875000000000e-01
4.000000000000000000e+00,5.000000000000000000e+00,-1.100000000000000000e+01,4.000000000000000000e+01,2.500000000000000000e+01,1.000000000000000000e+01,1.200000000000000000e+01,1.000000000000000000e+00,2.351074218750000000e-01,-8.715820312500000000e-02,-6.364135742187500000e-01,-7.294921875000000000e-01
-1.500000000000000000e+01,-5.000000000000000000e+00,-1.000000000000000000e+00,3.700000000000000000e+01,-1.700000000000000000e+01,-1.200000000000000000e+01,-1.500000000000000000e+01,-4.000000000000000000e+00,2.351074218750000000e-01,-8.715820312500000000e-02,-6.364135742187500000e-01,-7.294921875000000000e-01
-3.000000000000000000e+00,-5.000000000000000000e+00,-1.400000000000000000e+01,-1.300000000000000000e+01,0.000000000000000000e+00,1.400000000000000000e+01,1.000000000000000000e+01,-1.000000000000000000e+00,2.351074218750000000e-01,-8.715820312500000000e-02,-6.364135742187500000e-01,-7.294921875000000000e-01
8.000000000000000000e+00,1.100000000000000000e+01,3.600000000000000000e+01,1.500000000000000000e+01,1.100000000000000000e+01,-4.000000000000000000e+00,9.000000000000000000e+00,3.000000000000000000e+00,2.351684570312500000e-01,-8.721923828125000000e-02,-6.364135742187500000e-01,-7.294921875000000000e-01
-1.500000000000000000e+01,-1.900000000000000000e+01,-8.000000000000000000e+01,-7.500000000000000000e+01,-2.400000000000000000e+01,3.000000000000000000e+00,-9.000000000000000000e+00,-6.000000000000000000e+00,2.351684570312500000e-01,-8.721923828125000000e-02,-6.364135742187500000e-01,-7.294921875000000000e-01
4.000000000000000000e+00,6.000000000000000000e+00,4.600000000000000000e+01,2.100000000000000000e+01,-1.000000000000000000e+00,7.000000000000000000e+00,9.000000000000000000e+00,3.000000000000000000e+00,2.351684570312500000e-01,-8.721923828125000000e-02,-6.364135742187500000e-01,-7.294921875000000000e-01
6.000000000000000000e+00,-4.000000000000000000e+00,-6.000000000000000000e+00,1.500000000000000000e+01,4.000000000000000000e+00,-1.300000000000000000e+01,-1.200000000000000000e+01,-2.000000000000000000e+00,2.351684570312500000e-01,-8.721923828125000000e-02,-6.364135742187500000e-01,-7.294921875000000000e-01
1.000000000000000000e+00,-3.000000000000000000e+00,-4.600000000000000000e+01,-1.400000000000000000e+01,-1.100000000000000000e+01,-9.000000000000000000e+00,-1.000000000000000000e+01,-3.000000000000000000e+00,2.359008789062500000e-01,-8.685302734375000000e-02,-6.362304687500000000e-01,-7.294311523437500000e-01
-7.000000000000000000e+00,-2.000000000000000000e+00,1.400000000000000000e+01,2.000000000000000000e+01,2.700000000000000000e+01,1.100000000000000000e+01,8.000000000000000000e+00,1.000000000000000000e+00,2.359008789062500000e-01,-8.685302734375000000e-02,-6.362304687500000000e-01,-7.294311523437500000e-01
1.000000000000000000e+01,9.000000000000000000e+00,2.200000000000000000e+01,2.000000000000000000e+00,1.000000000000000000e+00,-5.000000000000000000e+00,-1.000000000000000000e+00,-1.000000000000000000e+00,2.359008789062500000e-01,-8.685302734375000000e-02,-6.362304687500000000e-01,-7.294311523437500000e-01
-4.000000000000000000e+00,-2.000000000000000000e+00,-3.000000000000000000e+00,-2.000000000000000000e+00,-6.000000000000000000e+00,-4.000000000000000000e+00,-5.000000000000000000e+00,-1.000000000000000000e+00,2.359008789062500000e-01,-8.685302734375000000e-02,-6.362304687500000000e-01,-7.294311523437500000e-01
8.000000000000000000e+00,-2.000000000000000000e+00,2.200000000000000000e+01,-1.500000000000000000e+01,-3.000000000000000000e+00,3.000000000000000000e+00,1.000000000000000000e+00,0.000000000000000000e+00,2.362060546875000000e-01,-8.715820312500000000e-02,-6.360473632812500000e-01,-7.294921875000000000e-01
-1.800000000000000000e+01,-1.000000000000000000e+00,5.000000000000000000e+00,2.000000000000000000e+00,-2.100000000000000000e+01,-1.100000000000000000e+01,-5.000000000000000000e+00,0.000000000000000000e+00,2.362060546875000000e-01,-8.715820312500000000e-02,-6.360473632812500000e-01,-7.294921875000000000e-01
6.000000000000000000e+00,5.000000000000000000e+00,-2.000000000000000000e+01,-3.600000000000000000e+01,-5.000000000000000000e+00,2.000000000000000000e+00,1.000000000000000000e+00,0.000000000000000000e+00,2.362060546875000000e-01,-8.715820312500000000e-02,-6.360473632812500000e-01,-7.294921875000000000e-01
3.000000000000000000e+00,2.000000000000000000e+00,3.000000000000000000e+01,3.900000000000000000e+01,2.000000000000000000e+01,4.000000000000000000e+00,3.000000000000000000e+00,1.000000000000000000e+00,2.362060546875000000e-01,-8.715820312500000000e-02,-6.360473632812500000e-01,-7.294921875000000000e-01
-1.000000000000000000e+01,-1.800000000000000000e+01,-3.900000000000000000e+01,-3.900000000000000000e+01,-1.900000000000000000e+01,-1.800000000000000000e+01,-1.100000000000000000e+01,-7.000000000000000000e+00,2.366333007812500000e-01,-8.740234375000000000e-02,-6.357421875000000000e-01,-7.296142578125000000e-01
4.000000000000000000e+00,1.000000000000000000e+00,3.000000000000000000e+00,-2.600000000000000000e+01,-2.000000000000000000e+00,0.000000000000000000e+00,-2.000000000000000000e+00,0.000000000000000000e+00,2.366333007812500000e-01,-8.740234375000000000e-02,-6.357421875000000000e-01,-7.296142578125000000e-01
1.000000000000000000e+00,2.000000000000000000e+00,-9.000000000000000000e+00,9.000000000000000000e+00,-9.000000000000000000e+00,1.300000000000000000e+01,3.000000000000000000e+00,1.000000000000000000e+00,2.366333007812500000e-01,-8.740234375000000000e-02,-6.357421875000000000e-01,-7.296142578125000000e-01
-2.000000000000000000e+00,1.000000000000000000e+00,8.000000000000000000e+00,1.100000000000000000e+01,2.600000000000000000e+01,7.000000000000000000e+00,9.000000000000000000e+00,0.000000000000000000e+00,2.366333007812500000e-01,-8.740234375000000000e-02,-6.357421875000000000e-01,-7.296142578125000000e-01
-2.000000000000000000e+00,1.100000000000000000e+01,5.000000000000000000e+00,3.300000000000000000e+01,6.000000000000000000e+00,1.000000000000000000e+00,-2.000000000000000000e+00,1.000000000000000000e+00,2.373657226562500000e-01,-8.728027343750000000e-02,-6.354370117187500000e-01,-7.296142578125000000e-01
-8.000000000000000000e+00,-1.900000000000000000e+01,-1.500000000000000000e+01,-4.200000000000000000e+01,-2.000000000000000000e+01,-1.100000000000000000e+01,-5.000000000000000000e+00,-5.000000000000000000e+00,2.373657226562500000e-01,-8.728027343750000000e-02,-6.354370117187500000e-01,-7.296142578125000000e-01
6.000000000000000000e+00,-1.000000000000000000e+00,-3.000000000000000000e+00,2.500000000000000000e+01,1.000000000000000000e+01,1.000000000000000000e+00,4.000000000000000000e+00,3.000000000000000000e+00,2.373657226562500000e-01,-8.728027343750000000e-02,-6.354370117187500000e-01,-7.296142578125000000e-01
-3.000000000000000000e+00,1.000000000000000000e+00,3.000000000000000000e+00,5.000000000000000000e+00,-8.000000000000000000e+00,-6.000000000000000000e+00,-7.000000000000000000e+00,-2.000000000000000000e+00,2.373657226562500000e-01,-8.728027343750000000e-02,-6.354370117187500000e-01,-7.296142578125000000e-01
7.000000000000000000e+00,1.000000000000000000e+00,-6.000000000000000000e+00,-3.600000000000000000e+01,-3.900000000000000000e+01,-1.300000000000000000e+01,-9.000000000000000000e+00,-3.000000000000000000e+00,2.380981445312500000e-01,-8.721923828125000000e-02,-6.352539062500000000e-01,-7.295532226562500000e-01
-1.100000000000000000e+01,5.000000000000000000e+00,5.500000000000000000e+01,7.200000000000000000e+01,3.800000000000000000e+01,5.000000000000000000e+00,2.000000000000000000e+00,1.000000000000000000e+00,2.380981445312500000e-01,-8.721923828125000000e-02,-6.352539062500000000e-01,-7.295532226562500000e-01
4.000000000000000000e+00,0.000000000000000000e+00,-1.900000000000000000e+01,1.200000000000000000e+01,2.700000000000000000e+01,2.000000000000000000e+00,1.000000000000000000e+00,0.000000000000000000e+00,2.380981445312500000e-01,-8.721923828125000000e-02,-6.352539062500000000e-01,-7.295532226562500000e-01
0.000000000000000000e+00,-2.000000000000000000e+00,-6.000000000000000000e+00,-2.600000000000000000e+01,-5.000000000000000000e+00,3.000000000000000000e+00,-2.000000000000000000e+00,0.000000000000000000e+00,2.380981445312500000e-01,-8.721923828125000000e-02,-6.352539062500000000e-01,-7.295532226562500000e-01
-1.000000000000000000e+00,2.000000000000000000e+00,1.600000000000000000e+01,1.700000000000000000e+01,5.000000000000000000e+00,8.000000000000000000e+00,8.000000000000000000e+00,1.000000000000000000e+00,2.389526367187500000e-01,-8.721923828125000000e-02,-6.351928710937500000e-01,-7.293090820312500000e-01
2.000000000000000000e+00,-5.000000000000000000e+00,-1.200000000000000000e+01,-2.100000000000000000e+01,-2.400000000000000000e+01,-9.000000000000000000e+00,-4.000000000000000000e+00,-2.000000000000000000e+00,2.389526367187500000e-01,-8.721923828125000000e-02,-6.351928710937500000e-01,-7.293090820312500000e-01
-2.000000000000000000e+00,-5.000000000000000000e+00,-7.000000000000000000e+00,-1.000000000000000000e+00,3.000000000000000000e+00,2.000000000000000000e+00,2.000000000000000000e+00,-2.000000000000000000e+00,2.389526367187500000e-01,-8.721923828125000000e-02,-6.351928710937500000e-01,-7.293090820312500000e-01
1.000000000000000000e+00,3.000000000000000000e+00,0.000000000000000000e+00,3.000000000000000000e+00,5.000000000000000000e+00,-2.000000000000000000e+01,-1.100000000000000000e+01,1.000000000000000000e+00,2.389526367187500000e-01,-8.721923828125000000e-02,-6.351928710937500000e-01,-7.293090820312500000e-01
-1.900000000000000000e+01,-1.000000000000000000e+01,-6.000000000000000000e+00,5.200000000000000000e+01,2.800000000000000000e+01,1.500000000000000000e+01,5.000000000000000000e+00,-1.000000000000000000e+00,2.399902343750000000e-01,-8.697509765625000000e-02,-6.353149414062500000e-01,-7.288818359375000000e-01
5.000000000000000000e+00,-6.000000000000000000e+00,-2.500000000000000000e+01,-2.900000000000000000e+01,-1.700000000000000000e+01,8.000000000000000000e+00,6.000000000000000000e+00,0.000000000000000000e+00,2.399902343750000000e-01,-8.697509765625000000e-02,-6.353149414062500000e-01,-7.288818359375000000e-01
2.000000000000000000e+00,-3.000000000000000000e+00,-2.000000000000000000e+00,-2.300000000000000000e+01,-7.000000000000000000e+00,-7.000000000000000000e+00,-3.000000000000000000e+00,-1.000000000000000000e+00,2.399902343750000000e-01,-8.697509765625000000e-02,-6.353149414062500000e-01,-7.288818359375000000e-01
-1.100000000000000000e+01,-4.000000000000000000e+00,2.000000000000000000e+00,1.200000000000000000e+01,2.000000000000000000e+00,7.000000000000000000e+00,3.000000000000000000e+00,0.000000000000000000e+00,2.399902343750000000e-01,-8.697509765625000000e-02,-6.353149414062500000e-01,-7.288818359375000000e-01
5.000000000000000000e+00,7.000000000000000000e+00,-6.000000000000000000e+00,5.000000000000000000e+00,1.100000000000000000e+01,6.000000000000000000e+00,8.000000000000000000e+00,1.000000000000000000e+00,2.408447265625000000e-01,-8.666992187500000000e-02,-6.353759765625000000e-01,-7.285766601562500000e-01
6.000000000000000000e+00,1.000000000000000000e+00,-8.000000000000000000e+00,-3.200000000000000000e+01,-9.000000000000000000e+00,-8.000000000000000000e+00,-2.000000000000000000e+00,1.000000000000000000e+00,2.408447265625000000e-01,-8.666992187500000000e-02,-6.353759765625000000e-01,-7.285766601562500000e-01
-4.000000000000000000e+00,0.000000000000000000e+00,2.900000000000000000e+01,3.500000000000000000e+01,-1.700000000000000000e+01,-5.000000000000000000e+00,-5.000000000000000000e+00,-1.000000000000000000e+00,2.408447265625000000e-01,-8.666992187500000000e-02,-6.353759765625000000e-01,-7.285766601562500000e-01
0.000000000000000000e+00,-1.100000000000000000e+01,-6.300000000000000000e+01,-8.000000000000000000e+00,2.200000000000000000e+01,-7.000000000000000000e+00,-5.000000000000000000e+00,-3.000000000000000000e+00,2.408447265625000000e-01,-8.666992187500000000e-02,-6.353759765625000000e-01,-7.285766601562500000e-01
2.000000000000000000e+00,0.000000000000000000e+00,9.000000000000000000e+00,6.000000000000000000e+00,3.000000000000000000e+00,7.000000000000000000e+00,-2.000000000000000000e+00,0.000000000000000000e+00,2.410278320312500000e-01,-8.715820312500000000e-02,-6.352539062500000000e-01,-7.285766601562500000e-01
6.000000000000000000e+00,3.000000000000000000e+00,-7.000000000000000000e+00,-8.000000000000000000e+00,-1.000000000000000000e+01,-4.000000000000000000e+00,1.000000000000000000e+00,2.000000000000000000e+00,2.410278320312500000e-01,-8.715820312500000000e-02,-6.352539062500000000e-01,-7.285766601562500000e-01
7.000000000000000000e+00,9.000000000000000000e+00,1.300000000000000000e+01,-3.200000000000000000e+01,-2.000000000000000000e+00,-2.000000000000000000e+00,-1.000000000000000000e+00,0.000000000000000000e+00,2.410278320312500000e-01,-8.715820312500000000e-02,-6.352539062500000000e-01,-7.285766601562500000e-01
-9.000000000000000000e+00,-8.000000000000000000e+00,-3.200000000000000000e+01,-1.400000000000000000e+01,-1.400000000000000000e+01,-4.000000000000000000e+00,-2.000000000000000000e+00,-3.000000000000000000e+00,2.410278320312500000e-01,-8.715820312500000000e-02,-6.352539062500000000e-01,-7.285766601562500000e-01
-6.000000000000000000e+00,-6.000000000000000000e+00,3.000000000000000000e+00,-6.300000000000000000e+01,-3.200000000000000000e+01,-8.000000000000000000e+00,-4.000000000000000000e+00,-3.000000000000000000e+00,2.406616210937500000e-01,-8.782958984375000000e-02,-6.352539062500000000e-01,-7.286376953125000000e-01
8.000000000000000000e+00,4.000000000000000000e+00,-7.000000000000000000e+00,6.900000000000000000e+01,5.100000000000000000e+01,9.000000000000000000e+00,0.000000000000000000e+00,1.000000000000000000e+00,2.406616210937500000e-01,-8.782958984375000000e-02,-6.352539062500000000e-01,-7.286376953125000000e-01
0.000000000000000000e+00,5.000000000000000000e+00,2.000000000000000000e+01,-1.000000000000000000e+00,-4.000000000000000000e+00,-4.000000000000000000e+00,-3.000000000000000000e+00,-2.000000000000000000e+00,2.406616210937500000e-01,-8.782958984375000000e-02,-6.352539062500000000e-01,-7.286376953125000000e-01
1.000000000000000000e+00,3.000000000000000000e+00,3.000000000000000000e+01,2.100000000000000000e+01,-1.000000000000000000e+00,1.000000000000000000e+00,4.000000000000000000e+00,-1.000000000000000000e+00,2.406616210937500000e-01,-8.782958984375000000e-02,-6.352539062500000000e-01,-7.286376953125000000e-01
-2.000000000000000000e+00,1.000000000000000000e+00,-3.800000000000000000e+01,-3.400000000000000000e+01,0.000000000000000000e+00,0.000000000000000000e+00,-5.000000000000000000e+00,-2.000000000000000000e+00,2.406005859375000000e-01,-8.789062500000000000e-02,-6.354370117187500000e-01,-7.284545898437500000e-01
3.000000000000000000e+00,6.000000000000000000e+00,1.500000000000000000e+01,-1.600000000000000000e+01,-1.400000000000000000e+01,-1.800000000000000000e+01,-1.800000000000000000e+01,-2.000000000000000000e+00,2.406005859375000000e-01,-8.789062500000000000e-02,-6.354370117187500000e-01,-7.284545898437500000e-01
3.000000000000000000e+00,9.000000000000000000e+00,-2.300000000000000000e+01,3.000000000000000000e+00,1.000000000000000000e+00,4.000000000000000000e+00,1.800000000000000000e+01,4.000000000000000000e+00,2.406005859375000000e-01,-8.789062500000000000e-02,-6.354370117187500000e-01,-7.284545898437500000e-01
-6.000000000000000000e+00,-1.300000000000000000e+01,-4.000000000000000000e+00,-1.200000000000000000e+01,-5.000000000000000000e+00,1.900000000000000000e+01,1.300000000000000000e+01,1.000000000000000000e+00,2.406005859375000000e-01,-8.789062500000000000e-02,-6.354370117187500000e-01,-7.284545898437500000e-01
4.000000000000000000e+00,-3.000000000000000000e+00,-2.700000000000000000e+01,-3.400000000000000000e+01,-2.000000000000000000e+01,7.000000000000000000e+00,0.000000000000000000e+00,-1.000000000000000000e+00,2.407836914062500000e-01,-8.764648437500000000e-02,-6.356811523437500000e-01,-7.282104492187500000e-01
-3.000000000000000000e+00,4.000000000000000000e+00,6.000000000000000000e+00,1.100000000000000000e+01,1.900000000000000000e+01,9.000000000000000000e+00,7.000000000000000000e+00,0.000000000000000000e+00,2.407836914062500000e-01,-8.764648437500000000e-02,-6.356811523437500000e-01,-7.282104492187500000e-01
-9.000000000000000000e+00,-9.000000000000000000e+00,-6.000000000000000000e+00,5.000000000000000000e+00,1.200000000000000000e+01,-9.000000000000000000e+00,-7.000000000000000000e+00,-2.000000000000000000e+00,2.407836914062500000e-01,-8.764648437500000000e-02,-6.356811523437500000e-01,-7.282104492187500000e-01
6.000000000000000000e+00,6.000000000000000000e+00,3.400000000000000000e+01,-4.900000000000000000e+01,-4.400000000000000000e+01,-1.500000000000000000e+01,-7.000000000000000000e+00,0.000000000000000000e+00,2.407836914062500000e-01,-8.764648437500000000e-02,-6.356811523437500000e-01,-7.282104492187500000e-01
8.000000000000000000e+00,4.000000000000000000e+00,1.800000000000000000e+01,3.900000000000000000e+01,5.100000000000000000e+01,4.000000000000000000e+00,-1.000000000000000000e+00,3.000000000000000000e+00,2.406616210937500000e-01,-8.752441406250000000e-02,-6.358642578125000000e-01,-7.281494140625000000e-01
0.000000000000000000e+00,1.000000000000000000e+00,3.700000000000000000e+01,-2.300000000000000000e+01,-3.400000000000000000e+01,-1.100000000000000000e+01,-5.000000000000000000e+00,-3.000000000000000000e+00,2.406616210937500000e-01,-8.752441406250000000e-02,-6.358642578125000000e-01,-7.281494140625000000e-01
-2.100000000000000000e+01,-1.900000000000000000e+01,-8.300000000000000000e+01,-5.000000000000000000e+00,3.000000000000000000e+00,5.000000000000000000e+00,-2.000000000000000000e+00,-3.000000000000000000e+00,2.406616210937500000e-01,-8.752441406250000000e-02,-6.358642578125000000e-01,-7.281494140625000000e-01
2.000000000000000000e+00,-2.000000000000000000e+00,4.000000000000000000e+01,5.900000000000000000e+01,2.000000000000000000e+01,6.000000000000000000e+00,1.000000000000000000e+00,-3.000000000000000000e+00,2.406616210937500000e-01,-8.752441406250000000e-02,-6.358642578125000000e-01,-7.281494140625000000e-01
-2.000000000000000000e+00,5.000000000000000000e+00,1.400000000000000000e+01,-5.000000000000000000e+00,-4.000000000000000000e+00,-7.000000000000000000e+00,-4.000000000000000000e+00,-1.000000000000000000e+00,2.399291992187500000e-01,-8.758544921875000000e-02,-6.359252929687500000e-01,-7.282714843750000000e-01
6.000000000000000000e+00,6.000000000000000000e+00,-3.300000000000000000e+01,-1.800000000000000000e+01,-2.000000000000000000e+00,-3.000000000000000000e+00,-1.000000000000000000e+00,-1.000000000000000000e+00,2.399291992187500000e-01,-8.758544921875000000e-02,-6.359252929687500000e-01,-7.282714843750000000e-01
-4.000000000000000000e+00,1.000000000000000000e+00,2.000000000000000000e+01,1.500000000000000000e+01,-4.000000000000000000e+00,1.000000000000000000e+00,0.000000000000000000e+00,-2.000000000000000000e+00,2.399291992187500000e-01,-8.758544921875000000e-02,-6.359252929687500000e-01,-7.282714843750000000e-01
-1.000000000000000000e+01,-2.400000000000000000e+01,-8.000000000000000000e+00,-5.100000000000000000e+01,-3.400000000000000000e+01,-1.700000000000000000e+01,-1.600000000000000000e+01,-8.000000000000000000e+00,2.399291992187500000e-01,-8.758544921875000000e-02,-6.359252929687500000e-01,-7.282714843750000000e-01
-2.000000000000000000e+00,2.000000000000000000e+00,8.000000000000000000e+00,2.700000000000000000e+01,8.000000000000000000e+00,-2.500000000000000000e+01,-1.000000000000000000e+01,-1.000000000000000000e+00,2.396850585937500000e-01,-8.746337890625000000e-02,-6.358032226562500000e-01,-7.285156250000000000e-01
-4.000000000000000000e+00,-5.000000000000000000e+00,-8.000000000000000000e+00,3.800000000000000000e+01,1.800000000000000000e+01,3.200000000000000000e+01,2.800000000000000000e+01,-1.000000000000000000e+00,2.396850585937500000e-01,-8.746337890625000000e-02,-6.358032226562500000e-01,-7.285156250000000000e-01
9.000000000000000000e+00,-2.000000000000000000e+00,0.000000000000000000e+00,-6.400000000000000000e+01,-3.100000000000000000e+01,9.000000000000000000e+00,6.000000000000000000e+00,2.000000000000000000e+00,2.396850585937500000e-01,-8.746337890625000000e-02,-6.358032226562500000e-01,-7.285156250000000000e-01
5.000000000000000000e+00,1.300000000000000000e+01,-1.600000000000000000e+01,-6.000000000000000000e+00,-2.000000000000000000e+00,1.000000000000000000e+00,1.000000000000000000e+00,3.000000000000000000e+00,2.396850585937500000e-01,-8.746337890625000000e-02,-6.358032226562500000e-01,-7.285156250000000000e-01
-1.200000000000000000e+01,-1.500000000000000000e+01,2.800000000000000000e+01,3.900000000000000000e+01,1.500000000000000000e+01,8.000000000000000000e+00,2.000000000000000000e+00,-4.000000000000000000e+00,2.398071289062500000e-01,-8.709716796875000000e-02,-6.354980468750000000e-01,-7.287597656250000000e-01
-1.000000000000000000e+00,-5.000000000000000000e+00,-1.000000000000000000e+01,-2.000000000000000000e+01,-8.000000000000000000e+00,-2.000000000000000000e+01,-1.000000000000000000e+01,-1.000000000000000000e+00,2.398071289062500000e-01,-8.709716796875000000e-02,-6.354980468750000000e-01,-7.287597656250000000e-01
4.000000000000000000e+00,4.000000000000000000e+00,1.100000000000000000e+01,9.000000000000000000e+00,3.000000000000000000e+00,-5.000000000000000000e+00,-8.000000000000000000e+00,-2.000000000000000000e+00,2.398071289062500000e-01,-8.709716796875000000e-02,-6.354980468750000000e-01,-7.287597656250000000e-01
2.000000000000000000e+00,2.000000000000000000e+00,-2.400000000000000000e+01,1.400000000000000000e+01,-1.900000000000000000e+01,5.000000000000000000e+00,-1.000000000000000000e+00,1.000000000000000000e+00,2.398071289062500000e-01,-8.709716796875000000e-02,-6.354980468750000000e-01,-7.287597656250000000e-01
0.000000000000000000e+00,-9.000000000000000000e+00,1.300000000000000000e+01,1.400000000000000000e+01,-6.000000000000000000e+00,-4.000000000000000000e+00,2.000000000000000000e+00,-2.000000000000000000e+00,2.401123046875000000e-01,-8.673095703125000000e-02,-6.353759765625000000e-01,-7.288208007812500000e-01
-1.400000000000000000e+01,4.000000000000000000e+00,1.000000000000000000e+00,1.300000000000000000e+01,-2.000000000000000000e+00,1.000000000000000000e+00,-3.000000000000000000e+00,0.000000000000000000e+00,2.401123046875000000e-01,-8.673095703125000000e-02,-6.353759765625000000e-01,-7.288208007812500000e-01
1.000000000000000000e+00,1.000000000000000000e+00,-1.000000000000000000e+00,1.600000000000000000e+01,1.300000000000000000e+01,3.000000000000000000e+00,-3.000000000000000000e+00,-1.000000000000000000e+00,2.401123046875000000e-01,-8.673095703125000000e-02,-6.353759765625000000e-01,-7.288208007812500000e-01
1.000000000000000000e+00,4.000000000000000000e+00,-9.000000000000000000e+00,0.000000000000000000e+00,5.000000000000000000e+00,-6.000000000000000000e+00,-5.000000000000000000e+00,-1.000000000000000000e+00,2.401123046875000000e-01,-8.673095703125000000e-02,-6.353759765625000000e-01,-7.288208007812500000e-01
4.000000000000000000e+00,1.000000000000000000e+00,5.200000000000000000e+01,1.000000000000000000e+00,-1.900000000000000000e+01,-1.000000000000000000e+00,0.000000000000000000e+00,3.000000000000000000e+00,2.401123046875000000e-01,-8.654785156250000000e-02,-6.354980468750000000e-01,-7.287597656250000000e-01
1.000000000000000000e+00,-2.000000000000000000e+00,1.100000000000000000e+01,-9.000000000000000000e+00,-1.200000000000000000e+01,-2.000000000000000000e+00,-3.000000000000000000e+00,-4.000000000000000000e+00,2.401123046875000000e-01,-8.654785156250000000e-02,-6.354980468750000000e-01,-7.287597656250000000e-01
-3.000000000000000000e+00,-2.000000000000000000e+00,-9.000000000000000000e+00,-7.000000000000000000e+00,-5.000000000000000000e+00,-6.000000000000000000e+00,-5.000000000000000000e+00,-1.000000000000000000e+00,2.401123046875000000e-01,-8.654785156250000000e-02,-6.354980468750000000e-01,-7.287597656250000000e-01
3.000000000000000000e+00,-1.000000000000000000e+01,-2.900000000000000000e+01,-3.500000000000000000e+01,-6.000000000000000000e+00,-4.000000000000000000e+00,1.000000000000000000e+00,0.000000000000000000e+00,2.401123046875000000e-01,-8.654785156250000000e-02,-6.354980468750000000e-01,-7.287597656250000000e-01
3.000000000000000000e+00,9.000000000000000000e+00,-1.400000000000000000e+01,-2.000000000000000000e+00,1.200000000000000000e+01,9.000000000000000000e+00,6.000000000000000000e+00,4.000000000000000000e+00,2.407836914062500000e-01,-8.575439453125000000e-02,-6.354980468750000000e-01,-7.286376953125000000e-01
-1.100000000000000000e+01,-1.300000000000000000e+01,-1.300000000000000000e+01,-1.800000000000000000e+01,-1.300000000000000000e+01,-8.000000000000000000e+00,-1.200000000000000000e+01,-5.000000000000000000e+00,2.407836914062500000e-01,-8.575439453125000000e-02,-6.354980468750000000e-01,-7.286376953125000000e-01
-3.000000000000000000e+00,-2.000000000000000000e+00,1.500000000000000000e+01,2.300000000000000000e+01,4.000000000000000000e+00,-9.000000000000000000e+00,3.000000000000000000e+00,-2.000000000000000000e+00,2.407836914062500000e-01,-8.575439453125000000e-02,-6.354980468750000000e-01,-7.286376953125000000e-01
4.000000000000000000e+00,1.500000000000000000e+01,3.700000000000000000e+01,1.500000000000000000e+01,8.000000000000000000e+00,-1.400000000000000000e+01,-1.000000000000000000e+00,2.000000000000000000e+00,2.407836914062500000e-01,-8.575439453125000000e-02,-6.354980468750000000e-01,-7.286376953125000000e-01
2.000000000000000000e+00,-6.000000000000000000e+00,-4.200000000000000000e+01,1.700000000000000000e+01,2.000000000000000000e+01,4.900000000000000000e+01,1.600000000000000000e+01,-1.000000000000000000e+00,2.416381835937500000e-01,-8.532714843750000000e-02,-6.353759765625000000e-01,-7.284545898437500000e-01
5.000000000000000000e+00,4.000000000000000000e+00,2.500000000000000000e+01,-1.700000000000000000e+01,-5.000000000000000000e+00,-6.000000000000000000e+00,-3.000000000000000000e+00,3.000000000000000000e+00,2.416381835937500000e-01,-8.532714843750000000e-02,-6.353759765625000000e-01,-7.284545898437500000e-01
-1.000000000000000000e+00,-2.000000000000000000e+00,-1.900000000000000000e+01,1.800000000000000000e+01,1.600000000000000000e+01,2.000000000000000000e+00,-2.000000000000000000e+00,-4.000000000000000000e+00,2.416381835937500000e-01,-8.532714843750000000e-02,-6.353759765625000000e-01,-7.284545898437500000e-01
0.000000000000000000e+00,4.000000000000000000e+00,7.000000000000000000e+00,1.100000000000000000e+01,0.000000000000000000e+00,-8.000000000000000000e+00,-5.000000000000000000e+00,-1.000000000000000000e+00,2.416381835937500000e-01,-8.532714843750000000e-02,-6.353759765625000000e-01,-7.284545898437500000e-01
-7.000000000000000000e+00,-5.000000000000000000e+00,7.000000000000000000e+00,-1.100000000000000000e+01,-1.200000000000000000e+01,-1.500000000000000000e+01,-7.000000000000000000e+00,-6.000000000000000000e+00,2.420654296875000000e-01,-8.538818359375000000e-02,-6.353149414062500000e-01,-7.283935546875000000e-01
2.000000000000000000e+00,-1.000000000000000000e+00,-1.400000000000000000e+01,9.000000000000000000e+00,8.000000000000000000e+00,5.000000000000000000e+00,2.000000000000000000e+00,1.000000000000000000e+00,2.420654296875000000e-01,-8.538818359375000000e-02,-6.353149414062500000e-01,-7.283935546875000000e-01
-1.000000000000000000e+00,3.000000000000000000e+00,2.400000000000000000e+01,4.000000000000000000e+00,0.000000000000000000e+00,-3.000000000000000000e+00,-5.000000000000000000e+00,-1.000000000000000000e+00,2.420654296875000000e-01,-8.538818359375000000e-02,-6.353149414062500000e-01,-7.283935546875000000e-01
-6.000000000000000000e+00,-2.000000000000000000e+00,5.000000000000000000e+00,-1.600000000000000000e+01,-4.300000000000000000e+01,-8.000000000000000000e+00,0.000000000000000000e+00,-3.000000000000000000e+00,2.420654296875000000e-01,-8.538818359375000000e-02,-6.353149414062500000e-01,-7.283935546875000000e-01
6.000000000000000000e+00,2.000000000000000000e+00,-5.000000000000000000e+00,0.000000000000000000e+00,5.100000000000000000e+01,5.000000000000000000e+00,1.000000000000000000e+00,1.000000000000000000e+00,2.422485351562500000e-01,-8.557128906250000000e-02,-6.353759765625000000e-01,-7.282714843750000000e-01
-1.400000000000000000e+01,-1.000000000000000000e+00,-1.800000000000000000e+01,-2.000000000000000000e+00,-9.000000000000000000e+00,-1.000000000000000000e+00,-1.000000000000000000e+00,1.000000000000000000e+00,2.422485351562500000e-01,-8.557128906250000000e-02,-6.353759765625000000e-01,-7.282714843750000000e-01
5.000000000000000000e+00,-2.000000000000000000e+00,1.900000000000000000e+01,-1.300000000000000000e+01,-6.000000000000000000e+00,-3.000000000000000000e+00,-1.000000000000000000e+00,-2.000000000000000000e+00,2.422485351562500000e-01,-8.557128906250000000e-02,-6.353759765625000000e-01,-7.282714843750000000e-01
4.000000000000000000e+00,6.000000000000000000e+00,-7.000000000000000000e+00,2.000000000000000000e+01,1.500000000000000000e+01,5.000000000000000000e+00,0.000000000000000000e+00,0.000000000000000000e+00,2.422485351562500000e-01,-8.557128906250000000e-02,-6.353759765625000000e-01,-7.282714843750000000e-01
1.000000000000000000e+00,1.000000000000000000e+00,0.000000000000000000e+00,-3.400000000000000000e+01,-3.400000000000000000e+01,-2.100000000000000000e+01,-1.000000000000000000e+01,-1.000000000000000000e+00,2.427978515625000000e-01,-8.526611328125000000e-02,-6.354370117187500000e-01,-7.280273437500000000e-01
4.000000000000000000e+00,-3.000000000000000000e+00,2.300000000000000000e+01,1.400000000000000000e+01,1.100000000000000000e+01,1.000000000000000000e+00,-5.000000000000000000e+00,1.000000000000000000e+00,2.427978515625000000e-01,-8.526611328125000000e-02,-6.354370117187500000e-01,-7.280273437500000000e-01
0.000000000000000000e+00,0.000000000000000000e+00,2.000000000000000000e+00,-3.300000000000000000e+01,-1.500000000000000000e+01,0.000000000000000000e+00,2.000000000000000000e+00,-1.000000000000000000e+00,2.427978515625000000e-01,-8.526611328125000000e-02,-6.354370117187500000e-01,-7.280273437500000000e-01
-4.000000000000000000e+00,1.000000000000000000e+01,7.000000000000000000e+00,1.900000000000000000e+01,1.700000000000000000e+01,2.800000000000000000e+01,1.400000000000000000e+01,3.000000000000000000e+00,2.427978515625000000e-01,-8.526611328125000000e-02,-6.354370117187500000e-01,-7.280273437500000000e-01
2.000000000000000000e+00,4.000000000000000000e+00,-7.000000000000000000e+00,-3.200000000000000000e+01,-2.000000000000000000e+00,4.000000000000000000e+00,9.000000000000000000e+00,-1.000000000000000000e+00,2.438964843750000000e-01,-8.422851562500000000e-02,-6.352539062500000000e-01,-7.279663085937500000e-01
8.000000000000000000e+00,2.000000000000000000e+00,1.800000000000000000e+01,4.000000000000000000e+01,1.400000000000000000e+01,-8.000000000000000000e+00,-4.000000000000000000e+00,1.000000000000000000e+00,2.438964843750000000e-01,-8.422851562500000000e-02,-6.352539062500000000e-01,-7.279663085937500000e-01
-3.000000000000000000e+00,-5.000000000000000000e+00,-2.000000000000000000e+00,1.400000000000000000e+01,-3.000000000000000000e+00,-9.000000000000000000e+00,-8.000000000000000000e+00,-2.000000000000000000e+00,2.438964843750000000e-01,-8.422851562500000000e-02,-6.352539062500000000e-01,-7.279663085937500000e-01
1.000000000000000000e+00,-3.000000000000000000e+00,8.000000000000000000e+00,5.100000000000000000e+01,6.000000000000000000e+00,-1.000000000000000000e+00,-6.000000000000000000e+00,-2.000000000000000000e+00,2.438964843750000000e-01,-8.422851562500000000e-02,-6.352539062500000000e-01,-7.279663085937500000e-01
5.000000000000000000e+00,2.000000000000000000e+00,-1.100000000000000000e+01,0.000000000000000000e+00,1.700000000000000000e+01,-3.000000000000000000e+00,-6.000000000000000000e+00,-1.000000000000000000e+00,2.441406250000000000e-01,-8.374023437500000000e-02,-6.348266601562500000e-01,-7.283325195312500000e-01
-9.000000000000000000e+00,-2.000000000000000000e+00,1.500000000000000000e+01,2.900000000000000000e+01,1.300000000000000000e+01,5.000000000000000000e+00,6.000000000000000000e+00,-2.000000000000000000e+00,2.441406250000000000e-01,-8.374023437500000000e-02,-6.348266601562500000e-01,-7.283325195312500000e-01
-7.000000000000000000e+00,-5.000000000000000000e+00,-4.100000000000000000e+01,-5.800000000000000000e+01,-3.100000000000000000e+01,-5.000000000000000000e+00,-3.000000000000000000e+00,-6.000000000000000000e+00,2.441406250000000000e-01,-8.374023437500000000e-02,-6.348266601562500000e-01,-7.283325195312500000e-01
3.000000000000000000e+00,-4.000000000000000000e+00,0.000000000000000000e+00,3.500000000000000000e+01,2.700000000000000000e+01,5.000000000000000000e+00,1.000000000000000000e+00,0.000000000000000000e+00,2.441406250000000000e-01,-8.374023437500000000e-02,-6.348266601562500000e-01,-7.283325195312500000e-01
0.000000000000000000e+00,3.000000000000000000e+00,-1.400000000000000000e+01,-3.300000000000000000e+01,-2.800000000000000000e+01,-1.000000000000000000e+01,-4.000000000000000000e+00,3.000000000000000000e+00,2.430419921875000000e-01,-8.459472656250000000e-02,-6.345825195312500000e-01,-7.288208007812500000e-01
5.000000000000000000e+00,0.000000000000000000e+00,-3.000000000000000000e+00,-1.100000000000000000e+01,-2.100000000000000000e+01,-4.000000000000000000e+00,-2.000000000000000000e+00,-2.000000000000000000e+00,2.430419921875000000e-01,-8.459472656250000000e-02,-6.345825195312500000e-01,-7.288208007812500000e-01
1.000000000000000000e+00,6.000000000000000000e+00,3.100000000000000000e+01,1.200000000000000000e+01,9.000000000000000000e+00,2.000000000000000000e+00,0.000000000000000000e+00,1.000000000000000000e+00,2.430419921875000000e-01,-8.459472656250000000e-02,-6.345825195312500000e-01,-7.288208007812500000e-01
-7.000000000000000000e+00,-3.000000000000000000e+00,-2.200000000000000000e+01,-1.200000000000000000e+01,8.000000000000000000e+00,-2.000000000000000000e+00,-3.000000000000000000e+00,-3.000000000000000000e+00,2.430419921875000000e-01,-8.459472656250000000e-02,-6.345825195312500000e-01,-7.288208007812500000e-01
-1.000000000000000000e+00,0.000000000000000000e+00,4.200000000000000000e+01,-2.000000000000000000e+00,-2.200000000000000000e+01,-9.000000000000000000e+00,-2.000000000000000000e+00,-1.000000000000000000e+00,2.427368164062500000e-01,-8.428955078125000000e-02,-6.344604492187500000e-01,-7.290039062500000000e-01
-3.000000000000000000e+00,-1.700000000000000000e+01,-6.100000000000000000e+01,-5.100000000000000000e+01,-9.000000000000000000e+00,-2.000000000000000000e+01,-1.400000000000000000e+01,-7.000000000000000000e+00,2.427368164062500000e-01,-8.428955078125000000e-02,-6.344604492187500000e-01,-7.290039062500000000e-01
-5.000000000000000000e+00,-4.000000000000000000e+00,-3.700000000000000000e+01,1.200000000000000000e+01,4.000000000000000000e+00,1.500000000000000000e+01,7.000000000000000000e+00,4.000000000000000000e+00,2.427368164062500000e-01,-8.428955078125000000e-02,-6.344604492187500000e-01,-7.290039062500000000e-01
0.000000000000000000e+00,-2.000000000000000000e+00,5.100000000000000000e+01,5.000000000000000000e+00,0.000000000000000000e+00,2.000000000000000000e+01,2.800000000000000000e+01,-1.000000000000000000e+00,2.427368164062500000e-01,-8.428955078125000000e-02,-6.344604492187500000e-01,-7.290039062500000000e-01
1.000000000000000000e+00,0.000000000000000000e+00,-7.000000000000000000e+00,4.000000000000000000e+01,1.800000000000000000e+01,-4.000000000000000000e+00,-9.000000000000000000e+00,1.000000000000000000e+00,2.435302734375000000e-01,-8.276367187500000000e-02,-6.345825195312500000e-01,-7.288818359375000000e-01
-1.200000000000000000e+01,-6.000000000000000000e+00,-1.700000000000000000e+01,-3.500000000000000000e+01,-1.600000000000000000e+01,-5.000000000000000000e+00,-6.000000000000000000e+00,-4.000000000000000000e+00,2.435302734375000000e-01,-8.276367187500000000e-02,-6.345825195312500000e-01,-7.288818359375000000e-01
-2.000000000000000000e+00,2.000000000000000000e+00,1.800000000000000000e+01,2.000000000000000000e+00,-1.200000000000000000e+01,2.000000000000000000e+00,6.000000000000000000e+00,1.000000000000000000e+00,2.435302734375000000e-01,-8.276367187500000000e-02,-6.345825195312500000e-01,-7.288818359375000000e-01
-2.000000000000000000e+00,-3.000000000000000000e+00,8.000000000000000000e+00,2.700000000000000000e+01,1.100000000000000000e+01,-8.000000000000000000e+00,-1.100000000000000000e+01,-3.000000000000000000e+00,2.435302734375000000e-01,-8.276367187500000000e-02,-6.345825195312500000e-01,-7.288818359375000000e-01
0.000000000000000000e+00,-2.000000000000000000e+00,-1.000000000000000000e+01,-8.000000000000000000e+00,-2.100000000000000000e+01,-5.000000000000000000e+00,-1.000000000000000000e+00,-1.000000000000000000e+00,2.442626953125000000e-01,-8.184814453125000000e-02,-6.345825195312500000e-01,-7.286987304687500000e-01
7.000000000000000000e+00,1.000000000000000000e+01,4.000000000000000000e+00,-3.900000000000000000e+01,2.100000000000000000e+01,-3.000000000000000000e+00,-4.000000000000000000e+00,0.000000000000000000e+00,2.442626953125000000e-01,-8.184814453125000000e-02,-6.345825195312500000e-01,-7.286987304687500000e-01
7.000000000000000000e+00,4.000000000000000000e+00,4.400000000000000000e+01,6.400000000000000000e+01,5.700000000000000000e+01,1.200000000000000000e+01,-1.000000000000000000e+00,3.000000000000000000e+00,2.442626953125000000e-01,-8.184814453125000000e-02,-6.345825195312500000e-01,-7.286987304687500000e-01
2.000000000000000000e+00,-5.000000000000000000e+00,-2.800000000000000000e+01,-9.000000000000000000e+00,2.000000000000000000e+01,6.000000000000000000e+00,0.000000000000000000e+00,-1.000000000000000000e+00,2.442626953125000000e-01,-8.184814453125000000e-02,-6.345825195312500000e-01,-7.286987304687500000e-01
-2.500000000000000000e+01,-2.300000000000000000e+01,-3.700000000000000000e+01,-9.000000000000000000e+00,-1.500000000000000000e+01,-7.000000000000000000e+00,-2.000000000000000000e+00,-9.000000000000000000e+00,2.437744140625000000e-01,-8.221435546875000000e-02,-6.346435546875000000e-01,-7.287597656250000000e-01
9.000000000000000000e+00,1.400000000000000000e+01,4.300000000000000000e+01,2.300000000000000000e+01,-1.400000000000000000e+01,-1.000000000000000000e+00,0.000000000000000000e+00,3.000000000000000000e+00,2.437744140625000000e-01,-8.221435546875000000e-02,-6.346435546875000000e-01,-7.287597656250000000e-01
-7.000000000000000000e+00,-1.000000000000000000e+01,-4.700000000000000000e+01,-3.400000000000000000e+01,-1.500000000000000000e+01,-6.000000000000000000e+00,-2.000000000000000000e+00,-4.000000000000000000e+00,2.437744140625000000e-01,-8.221435546875000000e-02,-6.346435546875000000e-01,-7.287597656250000000e-01
4.000000000000000000e+00,5.000000000000000000e+00,1.000000000000000000e+00,-2.800000000000000000e+01,-1.300000000000000000e+01,-5.000000000000000000e+00,-4.000000000000000000e+00,1.000000000000000000e+00,2.437744140625000000e-01,-8.221435546875000000e-02,-6.346435546875000000e-01,-7.287597656250000000e-01
-4.000000000000000000e+00,-2.000000000000000000e+00,6.000000000000000000e+00,1.500000000000000000e+01,1.800000000000000000e+01,1.000000000000000000e+00,-5.000000000000000000e+00,-2.000000000000000000e+00,2.434082031250000000e-01,-8.221435546875000000e-02,-6.346435546875000000e-01,-7.288818359375000000e-01
-2.000000000000000000e+00,-5.000000000000000000e+00,-2.300000000000000000e+01,-7.000000000000000000e+00,-1.400000000000000000e+01,0.000000000000000000e+00,0.000000000000000000e+00,1.000000000000000000e+00,2.434082031250000000e-01,-8.221435546875000000e-02,-6.346435546875000000e-01,-7.288818359375000000e-01
1.000000000000000000e+00,-4.000000000000000000e+00,1.300000000000000000e+01,8.000000000000000000e+00,2.000000000000000000e+00,6.000000000000000000e+00,4.000000000000000000e+00,0.000000000000000000e+00,2.434082031250000000e-01,-8.221435546875000000e-02,-6.346435546875000000e-01,-7.288818359375000000e-01
-9.000000000000000000e+00,-6.000000000000000000e+00,-2.800000000000000000e+01,0.000000000000000000e+00,1.000000000000000000e+00,-2.000000000000000000e+00,-1.000000000000000000e+00,-3.000000000000000000e+00,2.434082031250000000e-01,-8.221435546875000000e-02,-6.346435546875000000e-01,-7.288818359375000000e-01
4.000000000000000000e+00,6.000000000000000000e+00,1.100000000000000000e+01,1.600000000000000000e+01,-1.000000000000000000e+01,-5.000000000000000000e+00,-5.000000000000000000e+00,-2.000000000000000000e+00,2.434082031250000000e-01,-8.215332031250000000e-02,-6.346435546875000000e-01,-7.289428710937500000e-01
3.000000000000000000e+00,-1.000000000000000000e+00,6.000000000000000000e+00,-1.800000000000000000e+01,-3.000000000000000000e+00,3.100000000000000000e+01,1.900000000000000000e+01,3.000000000000000000e+00,2.434082031250000000e-01,-8.215332031250000000e-02,-6.346435546875000000e-01,-7.289428710937500000e-01
-1.000000000000000000e+00,5.000000000000000000e+00,2.200000000000000000e+01,4.000000000000000000e+00,6.000000000000000000e+00,-1.100000000000000000e+01,-8.000000000000000000e+00,1.000000000000000000e+00,2.434082031250000000e-01,-8.215332031250000000e-02,-6.346435546875000000e-01,-7.289428710937500000e-01
-3.000000000000000000e+00,-2.000000000000000000e+00,-1.900000000000000000e+01,-3.100000000000000000e+01,-4.000000000000000000e+00,-7.000000000000000000e+00,-9.000000000000000000e+00,-2.000000000000000000e+00,2.434082031250000000e-01,-8.215332031250000000e-02,-6.346435546875000000e-01,-7.289428710937500000e-01
-1.000000000000000000e+00,-5.000000000000000000e+00,-9.000000000000000000e+00,2.300000000000000000e+01,-2.200000000000000000e+01,-3.000000000000000000e+00,3.000000000000000000e+00,0.000000000000000000e+00,2.437133789062500000e-01,-8.215332031250000000e-02,-6.346435546875000000e-01,-7.287597656250000000e-01
1.100000000000000000e+01,3.000000000000000000e+00,-4.000000000000000000e+00,-3.000000000000000000e+01,-2.000000000000000000e+01,-1.400000000000000000e+01,-6.000000000000000000e+00,-1.000000000000000000e+00,2.437133789062500000e-01,-8.215332031250000000e-02,-6.346435546875000000e-01,-7.287597656250000000e-01
-4.000000000000000000e+00,-5.000000000000000000e+00,-5.000000000000000000e+00,3.200000000000000000e+01,4.900000000000000000e+01,1.000000000000000000e+01,-1.000000000000000000e+00,-2.000000000000000000e+00,2.437133789062500000e-01,-8.215332031250000000e-02,-6.346435546875000000e-01,-7.287597656250000000e-01
-2.000000000000000000e+00,1.000000000000000000e+00,3.600000000000000000e+01,0.000000000000000000e+00,1.000000000000000000e+00,3.000000000000000000e+00,2.000000000000000000e+00,1.000000000000000000e+00,2.437133789062500000e-01,-8.215332031250000000e-02,-6.346435546875000000e-01,-7.287597656250000000e-01
4.000000000000000000e+00,3.000000000000000000e+00,-1.700000000000000000e+01,2.000000000000000000e+00,1.400000000000000000e+01,1.000000000000000000e+00,0.000000000000000000e+00,0.000000000000000000e+00,2.438964843750000000e-01,-8.203125000000000000e-02,-6.348266601562500000e-01,-7.285766601562500000e-01
-2.000000000000000000e+00,-5.000000000000000000e+00,-1.000000000000000000e+00,7.000000000000000000e+00,-2.500000000000000000e+01,-1.200000000000000000e+01,-9.000000000000000000e+00,-6.000000000000000000e+00,2.438964843750000000e-01,-8.203125000000000000e-02,-6.348266601562500000e-01,-7.285766601562500000e-01
-3.000000000000000000e+00,2.000000000000000000e+00,-8.000000000000000000e+00,-2.500000000000000000e+01,-1.000000000000000000e+01,-2.000000000000000000e+00,1.000000000000000000e+00,0.000000000000000000e+00,2.438964843750000000e-01,-8.203125000000000000e-02,-6.348266601562500000e-01,-7.285766601562500000e-01
-2.000000000000000000e+00,1.000000000000000000e+00,-1.500000000000000000e+01,3.300000000000000000e+01,-2.000000000000000000e+00,-5.000000000000000000e+00,-6.000000000000000000e+00,-3.000000000000000000e+00,2.438964843750000000e-01,-8.203125000000000000e-02,-6.348266601562500000e-01,-7.285766601562500000e-01
1.000000000000000000e+00,-3.000000000000000000e+00,2.100000000000000000e+01,-1.000000000000000000e+00,6.000000000000000000e+00,2.000000000000000000e+00,-1.000000000000000000e+00,0.000000000000000000e+00,2.441406250000000000e-01,-8.154296875000000000e-02,-6.349487304687500000e-01,-7.285156250000000000e-01
-1.000000000000000000e+00,-1.000000000000000000e+00,-1.600000000000000000e+01,-1.400000000000000000e+01,3.000000000000000000e+00,-1.200000000000000000e+01,-9.000000000000000000e+00,0.000000000000000000e+00,2.441406250000000000e-01,-8.154296875000000000e-02,-6.349487304687500000e-01,-7.285156250000000000e-01
2.000000000000000000e+00,-5.000000000000000000e+00,-6.000000000000000000e+00,-1.900000000000000000e+01,-1.600000000000000000e+01,7.000000000000000000e+00,5.000000000000000000e+00,0.000000000000000000e+00,2.441406250000000000e-01,-8.154296875000000000e-02,-6.349487304687500000e-01,-7.285156250000000000e-01
3.000000000000000000e+00,2.000000000000000000e+00,-1.200000000000000000e+01,2.000000000000000000e+00,5.000000000000000000e+00,2.200000000000000000e+01,1.800000000000000000e+01,-1.000000000000000000e+00,2.441406250000000000e-01,-8.154296875000000000e-02,-6.349487304687500000e-01,-7.285156250000000000e-01
-5.000000000000000000e+00,-3.000000000000000000e+00,-3.800000000000000000e+01,-1.400000000000000000e+01,-6.000000000000000000e+00,0.000000000000000000e+00,-7.000000000000000000e+00,-3.000000000000000000e+00,2.441406250000000000e-01,-8.148193359375000000e-02,-6.348876953125000000e-01,-7.285156250000000000e-01
0.000000000000000000e+00,0.000000000000000000e+00,-1.000000000000000000e+01,3.000000000000000000e+00,8.000000000000000000e+00,6.000000000000000000e+00,9.000000000000000000e+00,1.000000000000000000e+00,2.441406250000000000e-01,-8.148193359375000000e-02,-6.348876953125000000e-01,-7.285156250000000000e-01
3.000000000000000000e+00,-3.000000000000000000e+00,1.300000000000000000e+01,3.200000000000000000e+01,-6.000000000000000000e+00,-1.100000000000000000e+01,-7.000000000000000000e+00,0.000000000000000000e+00,2.441406250000000000e-01,-8.148193359375000000e-02,-6.348876953125000000e-01,-7.285156250000000000e-01
-8.000000000000000000e+00,0.000000000000000000e+00,-1.100000000000000000e+01,-6.200000000000000000e+01,-4.000000000000000000e+00,-1.000000000000000000e+01,-8.000000000000000000e+00,0.000000000000000000e+00,2.441406250000000000e-01,-8.148193359375000000e-02,-6.348876953125000000e-01,-7.285156250000000000e-01
2.000000000000000000e+00,4.000000000000000000e+00,4.000000000000000000e+00,6.400000000000000000e+01,4.300000000000000000e+01,1.100000000000000000e+01,3.000000000000000000e+00,-1.000000000000000000e+00,2.442016601562500000e-01,-8.172607421875000000e-02,-6.348266601562500000e-01,-7.285156250000000000e-01
-7.000000000000000000e+00,-3.000000000000000000e+00,1.600000000000000000e+01,-3.000000000000000000e+00,1.000000000000000000e+01,0.000000000000000000e+00,-2.000000000000000000e+00,-1.000000000000000000e+00,2.442016601562500000e-01,-8.172607421875000000e-02,-6.348266601562500000e-01,-7.285156250000000000e-01
0.000000000000000000e+00,2.000000000000000000e+00,-1.200000000000000000e+01,-2.000000000000000000e+00,-3.600000000000000000e+01,-1.900000000000000000e+01,-7.000000000000000000e+00,-3.000000000000000000e+00,2.442016601562500000e-01,-8.172607421875000000e-02,-6.348266601562500000e-01,-7.285156250000000000e-01
1.000000000000000000e+00,2.000000000000000000e+00,9.000000000000000000e+00,-3.000000000000000000e+00,-1.200000000000000000e+01,-3.000000000000000000e+00,-5.000000000000000000e+00,-2.000000000000000000e+00,2.442016601562500000e-01,-8.172607421875000000e-02,-6.348266601562500000e-01,-7.285156250000000000e-01
