0.000000000000000000e+00,4.000000000000000000e+00,1.700000000000000000e+01,2.000000000000000000e+00,3.000000000000000000e+00,-2.000000000000000000e+00,0.000000000000000000e+00,-1.000000000000000000e+00,6.774902343750000000e-02,4.356079101562500000e-01,-2.593383789062500000e-01,8.592529296875000000e-01
-3.000000000000000000e+00,2.000000000000000000e+00,1.900000000000000000e+01,-6.000000000000000000e+00,-2.000000000000000000e+00,-8.000000000000000000e+00,3.000000000000000000e+00,1.000000000000000000e+00,6.774902343750000000e-02,4.356079101562500000e-01,-2.593383789062500000e-01,8.592529296875000000e-01
1.000000000000000000e+01,-2.000000000000000000e+00,1.000000000000000000e+00,3.000000000000000000e+00,-1.000000000000000000e+00,-4.000000000000000000e+00,-7.000000000000000000e+00,0.000000000000000000e+00,6.793212890625000000e-02,4.346923828125000000e-01,-2.598876953125000000e-01,8.595581054687500000e-01
-1.100000000000000000e+01,-4.000000000000000000e+00,-1.200000000000000000e+01,-6.000000000000000000e+00,0.000000000000000000e+00,1.800000000000000000e+01,8.000000000000000000e+00,2.000000000000000000e+00,6.793212890625000000e-02,4.346923828125000000e-01,-2.598876953125000000e-01,8.595581054687500000e-01
-4.600000000000000000e+01,2.000000000000000000e+00,-3.000000000000000000e+01,4.200000000000000000e+01,8.000000000000000000e+00,-3.000000000000000000e+00,-4.000000000000000000e+00,-1.300000000000000000e+01,6.793212890625000000e-02,4.346923828125000000e-01,-2.598876953125000000e-01,8.595581054687500000e-01
4.000000000000000000e+00,-2.000000000000000000e+00,3.400000000000000000e+01,-3.100000000000000000e+01,-1.000000000000000000e+01,-4.000000000000000000e+00,-2.000000000000000000e+00,-2.000000000000000000e+00,6.793212890625000000e-02,4.346923828125000000e-01,-2.598876953125000000e-01,8.595581054687500000e-01
-1.000000000000000000e+00,0.000000000000000000e+00,-1.000000000000000000e+00,-6.000000000000000000e+00,-2.000000000000000000e+00,-3.000000000000000000e+00,2.000000000000000000e+00,0.000000000000000000e+00,6.829833984375000000e-02,4.337158203125000000e-01,-2.602539062500000000e-01,8.599243164062500000e-01
5.000000000000000000e+00,-3.000000000000000000e+00,-1.000000000000000000e+01,-1.500000000000000000e+01,-6.000000000000000000e+00,-6.000000000000000000e+00,-3.000000000000000000e+00,0.000000000000000000e+00,6.829833984375000000e-02,4.337158203125000000e-01,-2.602539062500000000e-01,8.599243164062500000e-01
1.000000000000000000e+01,-3.000000000000000000e+00,2.000000000000000000e+00,-1.000000000000000000e+00,-3.000000000000000000e+00,-8.000000000000000000e+00,-3.000000000000000000e+00,2.000000000000000000e+00,6.829833984375000000e-02,4.337158203125000000e-01,-2.602539062500000000e-01,8.599243164062500000e-01
0.000000000000000000e+00,9.000000000000000000e+00,3.400000000000000000e+01,3.100000000000000000e+01,5.000000000000000000e+00,6.000000000000000000e+00,1.000000000000000000e+00,0.000000000000000000e+00,6.829833984375000000e-02,4.337158203125000000e-01,-2.602539062500000000e-01,8.599243164062500000e-01
-1.300000000000000000e+01,-1.000000000000000000e+01,-1.800000000000000000e+01,2.000000000000000000e+00,-1.000000000000000000e+00,-3.000000000000000000e+00,0.000000000000000000e+00,-4.000000000000000000e+00,6.842041015625000000e-02,4.329223632812500000e-01,-2.606811523437500000e-01,8.601684570312500000e-01
3.000000000000000000e+00,3.000000000000000000e+00,1.300000000000000000e+01,0.000000000000000000e+00,-3.000000000000000000e+00,-6.000000000000000000e+00,-4.000000000000000000e+00,-3.000000000000000000e+00,6.842041015625000000e-02,4.329223632812500000e-01,-2.606811523437500000e-01,8.601684570312500000e-01
8.000000000000000000e+00,-3.000000000000000000e+00,5.000000000000000000e+00,-2.500000000000000000e+01,-4.000000000000000000e+00,0.000000000000000000e+00,1.000000000000000000e+00,2.000000000000000000e+00,6.842041015625000000e-02,4.329223632812500000e-01,-2.606811523437500000e-01,8.601684570312500000e-01
-7.000000000000000000e+00,-3.000000000000000000e+00,-1.700000000000000000e+01,-2.000000000000000000e+00,-3.000000000000000000e+00,-6.000000000000000000e+00,-3.000000000000000000e+00,-5.000000000000000000e+00,6.842041015625000000e-02,4.329223632812500000e-01,-2.606811523437500000e-01,8.601684570312500000e-01
1.800000000000000000e+01,7.000000000000000000e+00,2.700000000000000000e+01,0.000000000000000000e+00,-1.000000000000000000e+00,-3.000000000000000000e+00,-1.000000000000000000e+00,3.000000000000000000e+00,6.854248046875000000e-02,4.321289062500000000e-01,-2.614746093750000000e-01,8.602905273437500000e-01
-3.000000000000000000e+00,-3.000000000000000000e+00,0.000000000000000000e+00,2.000000000000000000e+00,3.000000000000000000e+00,-1.000000000000000000e+00,-2.000000000000000000e+00,0.000000000000000000e+00,6.854248046875000000e-02,4.321289062500000000e-01,-2.614746093750000000e-01,8.602905273437500000e-01
7.000000000000000000e+00,-4.000000000000000000e+00,-3.000000000000000000e+00,1.100000000000000000e+01,6.000000000000000000e+00,4.000000000000000000e+00,3.000000000000000000e+00,3.000000000000000000e+00,6.854248046875000000e-02,4.321289062500000000e-01,-2.614746093750000000e-01,8.602905273437500000e-01
-4.000000000000000000e+00,-3.000000000000000000e+00,-2.300000000000000000e+01,-7.000000000000000000e+00,0.000000000000000000e+00,2.000000000000000000e+00,-4.000000000000000000e+00,-4.000000000000000000e+00,6.854248046875000000e-02,4.321289062500000000e-01,-2.614746093750000000e-01,8.602905273437500000e-01
-1.100000000000000000e+01,-2.000000000000000000e+00,2.900000000000000000e+01,9.000000000000000000e+00,0.000000000000000000e+00,-6.000000000000000000e+00,-1.000000000000000000e+00,-6.000000000000000000e+00,6.878662109375000000e-02,4.312133789062500000e-01,-2.625122070312500000e-01,8.604125976562500000e-01
1.000000000000000000e+01,2.000000000000000000e+00,-2.500000000000000000e+01,-1.400000000000000000e+01,-3.000000000000000000e+00,8.000000000000000000e+00,1.000000000000000000e+00,4.000000000000000000e+00,6.878662109375000000e-02,4.312133789062500000e-01,-2.625122070312500000e-01,8.604125976562500000e-01
1.400000000000000000e+01,0.000000000000000000e+00,-2.000000000000000000e+00,-7.000000000000000000e+00,0.000000000000000000e+00,7.000000000000000000e+00,2.000000000000000000e+00,2.000000000000000000e+00,6.878662109375000000e-02,4.312133789062500000e-01,-2.625122070312500000e-01,8.604125976562500000e-01
-3.000000000000000000e+01,-9.000000000000000000e+00,-1.000000000000000000e+00,3.100000000000000000e+01,7.000000000000000000e+00,5.000000000000000000e+00,0.000000000000000000e+00,-2.000000000000000000e+00,6.878662109375000000e-02,4.312133789062500000e-01,-2.625122070312500000e-01,8.604125976562500000e-01
1.300000000000000000e+01,1.100000000000000000e+01,-1.000000000000000000e+01,0.000000000000000000e+00,5.000000000000000000e+00,1.000000000000000000e+00,0.000000000000000000e+00,0.000000000000000000e+00,6.878662109375000000e-02,4.306030273437500000e-01,-2.634887695312500000e-01,8.604736328125000000e-01
-6.000000000000000000e+00,0.000000000000000000e+00,1.700000000000000000e+01,2.000000000000000000e+00,-3.000000000000000000e+00,-9.000000000000000000e+00,-5.000000000000000000e+00,-4.000000000000000000e+00,6.878662109375000000e-02,4.306030273437500000e-01,-2.634887695312500000e-01,8.604736328125000000e-01
1.100000000000000000e+01,-4.000000000000000000e+00,3.500000000000000000e+01,1.200000000000000000e+01,1.000000000000000000e+00,-3.000000000000000000e+00,-4.000000000000000000e+00,1.000000000000000000e+00,6.878662109375000000e-02,4.306030273437500000e-01,-2.634887695312500000e-01,8.604736328125000000e-01
9.000000000000000000e+00,-6.000000000000000000e+00,-2.400000000000000000e+01,-3.100000000000000000e+01,-6.000000000000000000e+00,-1.000000000000000000e+00,-1.000000000000000000e+00,2.000000000000000000e+00,6.878662109375000000e-02,4.306030273437500000e-01,-2.634887695312500000e-01,8.604736328125000000e-01
-1.100000000000000000e+01,2.000000000000000000e+00,5.000000000000000000e+00,2.700000000000000000e+01,5.000000000000000000e+00,1.000000000000000000e+00,0.000000000000000000e+00,-1.000000000000000000e+00,6.835937500000000000e-02,4.307861328125000000e-01,-2.643432617187500000e-01,8.601074218750000000e-01
-1.000000000000000000e+01,-1.800000000000000000e+01,4.100000000000000000e+01,-2.300000000000000000e+01,-1.100000000000000000e+01,-8.000000000000000000e+00,-7.000000000000000000e+00,-1.000000000000000000e+01,6.835937500000000000e-02,4.307861328125000000e-01,-2.643432617187500000e-01,8.601074218750000000e-01
2.000000000000000000e+00,6.000000000000000000e+00,-3.200000000000000000e+01,-1.000000000000000000e+00,5.000000000000000000e+00,3.000000000000000000e+00,1.000000000000000000e+00,3.000000000000000000e+00,6.835937500000000000e-02,4.307861328125000000e-01,-2.643432617187500000e-01,8.601074218750000000e-01
6.000000000000000000e+00,1.300000000000000000e+01,7.400000000000000000e+01,-1.000000000000000000e+00,-4.000000000000000000e+00,0.000000000000000000e+00,1.000000000000000000e+00,1.000000000000000000e+00,6.835937500000000000e-02,4.307861328125000000e-01,-2.643432617187500000e-01,8.601074218750000000e-01
-4.000000000000000000e+00,-8.000000000000000000e+00,-9.000000000000000000e+00,9.000000000000000000e+00,-1.000000000000000000e+00,0.000000000000000000e+00,0.000000000000000000e+00,-3.000000000000000000e+00,6.768798828125000000e-02,4.314575195312500000e-01,-2.650756835937500000e-01,8.596191406250000000e-01
0.000000000000000000e+00,1.000000000000000000e+00,-1.100000000000000000e+01,-1.300000000000000000e+01,0.000000000000000000e+00,-2.000000000000000000e+00,1.000000000000000000e+00,-3.000000000000000000e+00,6.768798828125000000e-02,4.314575195312500000e-01,-2.650756835937500000e-01,8.596191406250000000e-01
-1.000000000000000000e+00,-5.000000000000000000e+00,-1.800000000000000000e+01,-1.100000000000000000e+01,-4.000000000000000000e+00,-5.000000000000000000e+00,-2.000000000000000000e+00,0.000000000000000000e+00,6.768798828125000000e-02,4.314575195312500000e-01,-2.650756835937500000e-01,8.596191406250000000e-01
1.000000000000000000e+00,1.000000000000000000e+00,-2.300000000000000000e+01,1.800000000000000000e+01,-1.000000000000000000e+00,-3.000000000000000000e+00,-5.000000000000000000e+00,-2.000000000000000000e+00,6.768798828125000000e-02,4.314575195312500000e-01,-2.650756835937500000e-01,8.596191406250000000e-01
6.000000000000000000e+00,6.000000000000000000e+00,1.400000000000000000e+01,5.000000000000000000e+00,0.000000000000000000e+00,3.000000000000000000e+00,0.000000000000000000e+00,1.000000000000000000e+00,6.640625000000000000e-02,4.321899414062500000e-01,-2.658081054687500000e-01,8.591308593750000000e-01
0.000000000000000000e+00,5.000000000000000000e+00,-1.800000000000000000e+01,1.000000000000000000e+00,0.000000000000000000e+00,0.000000000000000000e+00,5.000000000000000000e+00,1.000000000000000000e+00,6.640625000000000000e-02,4.321899414062500000e-01,-2.658081054687500000e-01,8.591308593750000000e-01
-1.100000000000000000e+01,-6.000000000000000000e+00,2.000000000000000000e+00,4.400000000000000000e+01,4.000000000000000000e+00,-1.000000000000000000e+00,-4.000000000000000000e+00,-3.000000000000000000e+00,6.640625000000000000e-02,4.321899414062500000e-01,-2.658081054687500000e-01,8.591308593750000000e-01
2.200000000000000000e+01,-5.000000000000000000e+00,-2.900000000000000000e+01,-6.300000000000000000e+01,-1.500000000000000000e+01,-7.000000000000000000e+00,-1.000000000000000000e+00,8.000000000000000000e+00,6.640625000000000000e-02,4.321899414062500000e-01,-2.658081054687500000e-01,8.591308593750000000e-01
-3.500000000000000000e+01,-5.000000000000000000e+00,4.000000000000000000e+00,-9.000000000000000000e+00,-3.000000000000000000e+00,-9.000000000000000000e+00,-6.000000000000000000e+00,-1.300000000000000000e+01,6.469726562500000000e-02,4.326171875000000000e-01,-2.667236328125000000e-01,8.587646484375000000e-01
1.800000000000000000e+01,8.000000000000000000e+00,9.000000000000000000e+00,1.600000000000000000e+01,8.000000000000000000e+00,1.800000000000000000e+01,4.000000000000000000e+00,4.000000000000000000e+00,6.469726562500000000e-02,4.326171875000000000e-01,-2.667236328125000000e-01,8.587646484375000000e-01
-3.200000000000000000e+01,-3.000000000000000000e+00,1.100000000000000000e+01,2.300000000000000000e+01,3.000000000000000000e+00,3.000000000000000000e+00,4.000000000000000000e+00,-5.000000000000000000e+00,6.469726562500000000e-02,4.326171875000000000e-01,-2.667236328125000000e-01,8.587646484375000000e-01
8.000000000000000000e+00,-1.100000000000000000e+01,2.000000000000000000e+01,1.700000000000000000e+01,3.000000000000000000e+00,-2.000000000000000000e+00,-2.000000000000000000e+00,2.000000000000000000e+00,6.469726562500000000e-02,4.326171875000000000e-01,-2.667236328125000000e-01,8.587646484375000000e-01
6.000000000000000000e+00,4.000000000000000000e+00,-5.600000000000000000e+01,-3.000000000000000000e+01,-6.000000000000000000e+00,0.000000000000000000e+00,2.000000000000000000e+00,3.000000000000000000e+00,6.347656250000000000e-02,4.331054687500000000e-01,-2.674560546875000000e-01,8.583374023437500000e-01
3.000000000000000000e+00,3.000000000000000000e+00,3.000000000000000000e+00,-1.000000000000000000e+01,-3.000000000000000000e+00,-1.200000000000000000e+01,-7.000000000000000000e+00,-2.000000000000000000e+00,6.347656250000000000e-02,4.331054687500000000e-01,-2.674560546875000000e-01,8.583374023437500000e-01
6.000000000000000000e+00,-1.100000000000000000e+01,0.000000000000000000e+00,3.000000000000000000e+00,-2.000000000000000000e+00,-1.000000000000000000e+00,-2.000000000000000000e+00,1.000000000000000000e+00,6.347656250000000000e-02,4.331054687500000000e-01,-2.674560546875000000e-01,8.583374023437500000e-01
-1.200000000000000000e+01,1.900000000000000000e+01,-2.000000000000000000e+00,3.800000000000000000e+01,4.000000000000000000e+00,3.000000000000000000e+00,-4.000000000000000000e+00,-9.000000000000000000e+00,6.347656250000000000e-02,4.331054687500000000e-01,-2.674560546875000000e-01,8.583374023437500000e-01
1.000000000000000000e+00,-2.600000000000000000e+01,4.000000000000000000e+01,-1.300000000000000000e+01,-4.000000000000000000e+00,-1.000000000000000000e+00,0.000000000000000000e+00,0.000000000000000000e+00,6.256103515625000000e-02,4.340209960937500000e-01,-2.675170898437500000e-01,8.579711914062500000e-01
-4.000000000000000000e+00,1.000000000000000000e+01,-3.000000000000000000e+01,-1.500000000000000000e+01,-6.000000000000000000e+00,-7.000000000000000000e+00,-2.000000000000000000e+00,-1.000000000000000000e+00,6.256103515625000000e-02,4.340209960937500000e-01,-2.675170898437500000e-01,8.579711914062500000e-01
1.200000000000000000e+01,1.400000000000000000e+01,6.000000000000000000e+00,-5.000000000000000000e+00,-3.000000000000000000e+00,-2.000000000000000000e+00,2.000000000000000000e+00,6.000000000000000000e+00,6.225585937500000000e-02,4.348754882812500000e-01,-2.674560546875000000e-01,8.575439453125000000e-01
-8.000000000000000000e+00,-2.200000000000000000e+01,-5.100000000000000000e+01,-2.000000000000000000e+01,-6.000000000000000000e+00,-6.000000000000000000e+00,0.000000000000000000e+00,-4.000000000000000000e+00,6.225585937500000000e-02,4.348754882812500000e-01,-2.674560546875000000e-01,8.575439453125000000e-01
-7.000000000000000000e+00,-1.000000000000000000e+00,-6.000000000000000000e+00,7.000000000000000000e+00,1.000000000000000000e+00,5.000000000000000000e+00,3.000000000000000000e+00,2.000000000000000000e+00,6.225585937500000000e-02,4.348754882812500000e-01,-2.674560546875000000e-01,8.575439453125000000e-01
9.000000000000000000e+00,-3.000000000000000000e+00,-4.000000000000000000e+00,2.300000000000000000e+01,1.000000000000000000e+00,0.000000000000000000e+00,-1.000000000000000000e+00,1.000000000000000000e+00,6.225585937500000000e-02,4.348754882812500000e-01,-2.674560546875000000e-01,8.575439453125000000e-01
7.000000000000000000e+00,-1.000000000000000000e+01,4.000000000000000000e+00,0.000000000000000000e+00,-2.000000000000000000e+00,-3.000000000000000000e+00,-3.000000000000000000e+00,-3.000000000000000000e+00,6.213378906250000000e-02,4.355468750000000000e-01,-2.673339843750000000e-01,8.572387695312500000e-01
1.100000000000000000e+01,1.000000000000000000e+00,2.100000000000000000e+01,0.000000000000000000e+00,2.000000000000000000e+00,-1.000000000000000000e+00,-1.000000000000000000e+00,2.000000000000000000e+00,6.213378906250000000e-02,4.355468750000000000e-01,-2.673339843750000000e-01,8.572387695312500000e-01
-6.000000000000000000e+00,1.700000000000000000e+01,3.000000000000000000e+00,-1.600000000000000000e+01,1.000000000000000000e+00,7.000000000000000000e+00,3.000000000000000000e+00,0.000000000000000000e+00,6.213378906250000000e-02,4.355468750000000000e-01,-2.673339843750000000e-01,8.572387695312500000e-01
-6.700000000000000000e+01,-2.400000000000000000e+01,-4.300000000000000000e+01,3.700000000000000000e+01,6.000000000000000000e+00,-3.000000000000000000e+00,-6.000000000000000000e+00,-1.000000000000000000e+01,6.213378906250000000e-02,4.355468750000000000e-01,-2.673339843750000000e-01,8.572387695312500000e-01
8.000000000000000000e+00,9.000000000000000000e+00,1.300000000000000000e+01,-5.400000000000000000e+01,-1.100000000000000000e+01,-3.000000000000000000e+00,-1.000000000000000000e+00,-3.000000000000000000e+00,6.201171875000000000e-02,4.360961914062500000e-01,-2.663574218750000000e-01,8.572998046875000000e-01
3.000000000000000000e+00,1.000000000000000000e+00,-3.000000000000000000e+00,1.000000000000000000e+01,6.000000000000000000e+00,2.000000000000000000e+00,0.000000000000000000e+00,2.000000000000000000e+00,6.201171875000000000e-02,4.360961914062500000e-01,-2.663574218750000000e-01,8.572998046875000000e-01
1.500000000000000000e+01,-1.000000000000000000e+00,-1.200000000000000000e+01,-1.600000000000000000e+01,-5.000000000000000000e+00,-5.000000000000000000e+00,2.000000000000000000e+00,2.000000000000000000e+01,6.201171875000000000e-02,4.360961914062500000e-01,-2.663574218750000000e-01,8.572998046875000000e-01
4.300000000000000000e+01,2.000000000000000000e+00,1.800000000000000000e+01,-7.000000000000000000e+00,-1.000000000000000000e+00,-1.000000000000000000e+00,-5.000000000000000000e+00,-7.000000000000000000e+00,6.201171875000000000e-02,4.360961914062500000e-01,-2.663574218750000000e-01,8.572998046875000000e-01
-3.100000000000000000e+01,-8.000000000000000000e+00,-1.700000000000000000e+01,3.000000000000000000e+00,3.000000000000000000e+00,1.000000000000000000e+00,-4.000000000000000000e+00,-8.000000000000000000e+00,6.109619140625000000e-02,4.367065429687500000e-01,-2.655639648437500000e-01,8.572998046875000000e-01
-1.400000000000000000e+01,-2.000000000000000000e+00,6.000000000000000000e+00,4.100000000000000000e+01,6.000000000000000000e+00,5.000000000000000000e+00,6.000000000000000000e+00,0.000000000000000000e+00,6.109619140625000000e-02,4.367065429687500000e-01,-2.655639648437500000e-01,8.572998046875000000e-01
-2.000000000000000000e+00,-2.000000000000000000e+00,1.400000000000000000e+01,-1.600000000000000000e+01,-1.000000000000000000e+01,-3.000000000000000000e+00,0.000000000000000000e+00,-8.000000000000000000e+00,6.109619140625000000e-02,4.367065429687500000e-01,-2.655639648437500000e-01,8.572998046875000000e-01
-1.000000000000000000e+00,1.300000000000000000e+01,9.000000000000000000e+00,-3.000000000000000000e+00,-2.000000000000000000e+00,-6.000000000000000000e+00,0.000000000000000000e+00,4.000000000000000000e+00,6.109619140625000000e-02,4.367065429687500000e-01,-2.655639648437500000e-01,8.572998046875000000e-01
1.100000000000000000e+01,-1.000000000000000000e+01,-5.200000000000000000e+01,1.600000000000000000e+01,1.000000000000000000e+00,-8.000000000000000000e+00,-2.000000000000000000e+00,5.000000000000000000e+00,6.024169921875000000e-02,4.371948242187500000e-01,-2.647094726562500000e-01,8.573608398437500000e-01
7.000000000000000000e+00,-1.000000000000000000e+00,-3.000000000000000000e+01,-5.900000000000000000e+01,-8.000000000000000000e+00,0.000000000000000000e+00,-1.000000000000000000e+00,-4.000000000000000000e+00,6.024169921875000000e-02,4.371948242187500000e-01,-2.647094726562500000e-01,8.573608398437500000e-01
-9.000000000000000000e+00,-2.300000000000000000e+01,3.000000000000000000e+01,1.900000000000000000e+01,-1.000000000000000000e+00,-5.000000000000000000e+00,-6.000000000000000000e+00,-2.000000000000000000e+00,6.024169921875000000e-02,4.371948242187500000e-01,-2.647094726562500000e-01,8.573608398437500000e-01
1.100000000000000000e+01,1.700000000000000000e+01,-1.000000000000000000e+01,9.000000000000000000e+00,-4.000000000000000000e+00,-3.000000000000000000e+00,0.000000000000000000e+00,-1.000000000000000000e+00,6.024169921875000000e-02,4.371948242187500000e-01,-2.647094726562500000e-01,8.573608398437500000e-01
-1.500000000000000000e+01,-2.000000000000000000e+00,9.000000000000000000e+00,-4.700000000000000000e+01,-8.000000000000000000e+00,0.000000000000000000e+00,0.000000000000000000e+00,-6.000000000000000000e+00,6.042480468750000000e-02,4.375000000000000000e-01,-2.637939453125000000e-01,8.574829101562500000e-01
-2.000000000000000000e+00,-5.000000000000000000e+00,-2.100000000000000000e+01,3.800000000000000000e+01,6.000000000000000000e+00,-5.000000000000000000e+00,-4.000000000000000000e+00,2.000000000000000000e+00,6.042480468750000000e-02,4.375000000000000000e-01,-2.637939453125000000e-01,8.574829101562500000e-01
8.000000000000000000e+00,7.000000000000000000e+00,2.700000000000000000e+01,-1.000000000000000000e+01,1.000000000000000000e+00,2.000000000000000000e+00,3.000000000000000000e+00,-2.000000000000000000e+00,6.042480468750000000e-02,4.375000000000000000e-01,-2.637939453125000000e-01,8.574829101562500000e-01
-4.000000000000000000e+00,-2.000000000000000000e+01,-2.100000000000000000e+01,-1.700000000000000000e+01,0.000000000000000000e+00,6.000000000000000000e+00,3.000000000000000000e+00,-5.000000000000000000e+00,6.042480468750000000e-02,4.375000000000000000e-01,-2.637939453125000000e-01,8.574829101562500000e-01
9.000000000000000000e+00,5.000000000000000000e+00,2.300000000000000000e+01,2.200000000000000000e+01,-2.000000000000000000e+00,-4.000000000000000000e+00,-4.000000000000000000e+00,2.000000000000000000e+00,6.066894531250000000e-02,4.375610351562500000e-01,-2.633056640625000000e-01,8.576049804687500000e-01
3.000000000000000000e+00,2.200000000000000000e+01,2.100000000000000000e+01,-1.500000000000000000e+01,-2.000000000000000000e+00,-7.000000000000000000e+00,-1.000000000000000000e+00,-5.000000000000000000e+00,6.066894531250000000e-02,4.375610351562500000e-01,-2.633056640625000000e-01,8.576049804687500000e-01
1.000000000000000000e+00,-1.800000000000000000e+01,-5.500000000000000000e+01,6.000000000000000000e+00,1.000000000000000000e+00,4.000000000000000000e+00,-2.000000000000000000e+00,-1.000000000000000000e+00,6.066894531250000000e-02,4.375610351562500000e-01,-2.633056640625000000e-01,8.576049804687500000e-01
1.000000000000000000e+00,-1.600000000000000000e+01,1.700000000000000000e+01,-2.600000000000000000e+01,-2.000000000000000000e+00,8.000000000000000000e+00,-2.000000000000000000e+00,8.000000000000000000e+00,6.066894531250000000e-02,4.375610351562500000e-01,-2.633056640625000000e-01,8.576049804687500000e-01
7.000000000000000000e+00,3.400000000000000000e+01,1.000000000000000000e+01,5.000000000000000000e+01,6.000000000000000000e+00,0.000000000000000000e+00,1.000000000000000000e+00,-2.000000000000000000e+00,6.188964843750000000e-02,4.373168945312500000e-01,-2.633666992187500000e-01,8.576049804687500000e-01
9.000000000000000000e+00,-2.200000000000000000e+01,-2.600000000000000000e+01,-3.900000000000000000e+01,-4.000000000000000000e+00,1.500000000000000000e+01,8.000000000000000000e+00,9.000000000000000000e+00,6.188964843750000000e-02,4.373168945312500000e-01,-2.633666992187500000e-01,8.576049804687500000e-01
-2.900000000000000000e+01,1.300000000000000000e+01,2.000000000000000000e+01,2.900000000000000000e+01,0.000000000000000000e+00,-5.000000000000000000e+00,-1.000000000000000000e+00,-1.000000000000000000e+01,6.188964843750000000e-02,4.373168945312500000e-01,-2.633666992187500000e-01,8.576049804687500000e-01
-1.500000000000000000e+01,-6.000000000000000000e+00,-4.300000000000000000e+01,1.000000000000000000e+01,3.000000000000000000e+00,-3.000000000000000000e+00,-1.000000000000000000e+00,-2.000000000000000000e+00,6.188964843750000000e-02,4.373168945312500000e-01,-2.633666992187500000e-01,8.576049804687500000e-01
4.000000000000000000e+00,-8.000000000000000000e+00,-1.200000000000000000e+01,-8.900000000000000000e+01,-1.400000000000000000e+01,1.000000000000000000e+00,0.000000000000000000e+00,8.000000000000000000e+00,6.317138671875000000e-02,4.371337890625000000e-01,-2.632446289062500000e-01,8.576660156250000000e-01
-2.000000000000000000e+01,3.000000000000000000e+00,-8.000000000000000000e+00,2.400000000000000000e+01,2.000000000000000000e+00,-4.000000000000000000e+00,-7.000000000000000000e+00,-1.100000000000000000e+01,6.317138671875000000e-02,4.371337890625000000e-01,-2.632446289062500000e-01,8.576660156250000000e-01
-4.000000000000000000e+00,8.000000000000000000e+00,-2.400000000000000000e+01,3.000000000000000000e+00,4.000000000000000000e+00,5.000000000000000000e+00,1.000000000000000000e+00,-3.000000000000000000e+00,6.317138671875000000e-02,4.371337890625000000e-01,-2.632446289062500000e-01,8.576660156250000000e-01
-2.500000000000000000e+01,-1.400000000000000000e+01,6.400000000000000000e+01,2.600000000000000000e+01,0.000000000000000000e+00,-3.000000000000000000e+00,-3.000000000000000000e+00,-3.000000000000000000e+00,6.317138671875000000e-02,4.371337890625000000e-01,-2.632446289062500000e-01,8.576660156250000000e-01
1.700000000000000000e+01,8.000000000000000000e+00,-1.000000000000000000e+00,-2.300000000000000000e+01,0.000000000000000000e+00,-9.000000000000000000e+00,-1.100000000000000000e+01,4.000000000000000000e+00,6.420898437500000000e-02,4.370727539062500000e-01,-2.628784179687500000e-01,8.577270507812500000e-01
-4.200000000000000000e+01,1.000000000000000000e+00,3.300000000000000000e+01,-3.000000000000000000e+01,-9.000000000000000000e+00,-8.000000000000000000e+00,1.000000000000000000e+01,-8.000000000000000000e+00,6.420898437500000000e-02,4.370727539062500000e-01,-2.628784179687500000e-01,8.577270507812500000e-01
8.000000000000000000e+00,-2.000000000000000000e+00,-6.300000000000000000e+01,-2.000000000000000000e+00,-3.000000000000000000e+00,2.000000000000000000e+00,1.000000000000000000e+00,5.000000000000000000e+00,6.420898437500000000e-02,4.370727539062500000e-01,-2.628784179687500000e-01,8.577270507812500000e-01
-3.000000000000000000e+00,-1.200000000000000000e+01,-7.000000000000000000e+00,1.300000000000000000e+01,3.000000000000000000e+00,3.000000000000000000e+00,0.000000000000000000e+00,-3.000000000000000000e+00,6.420898437500000000e-02,4.370727539062500000e-01,-2.628784179687500000e-01,8.577270507812500000e-01
5.000000000000000000e+00,-1.000000000000000000e+00,1.000000000000000000e+01,2.300000000000000000e+01,-2.000000000000000000e+00,-1.300000000000000000e+01,-1.000000000000000000e+01,1.000000000000000000e+00,6.420898437500000000e-02,4.371337890625000000e-01,-2.628173828125000000e-01,8.576660156250000000e-01
1.500000000000000000e+01,-1.100000000000000000e+01,1.400000000000000000e+01,1.100000000000000000e+01,1.000000000000000000e+00,-1.400000000000000000e+01,-6.000000000000000000e+00,-2.000000000000000000e+00,6.420898437500000000e-02,4.371337890625000000e-01,-2.628173828125000000e-01,8.576660156250000000e-01
2.000000000000000000e+00,1.700000000000000000e+01,2.000000000000000000e+01,-2.300000000000000000e+01,0.000000000000000000e+00,2.800000000000000000e+01,2.100000000000000000e+01,2.000000000000000000e+00,6.420898437500000000e-02,4.371337890625000000e-01,-2.628173828125000000e-01,8.576660156250000000e-01
1.500000000000000000e+01,-1.000000000000000000e+00,-2.300000000000000000e+01,-3.100000000000000000e+01,-3.000000000000000000e+00,-2.000000000000000000e+00,-5.000000000000000000e+00,0.000000000000000000e+00,6.420898437500000000e-02,4.371337890625000000e-01,-2.628173828125000000e-01,8.576660156250000000e-01
-1.100000000000000000e+01,-3.000000000000000000e+00,-1.000000000000000000e+00,-9.000000000000000000e+00,0.000000000000000000e+00,6.000000000000000000e+00,2.000000000000000000e+00,-8.000000000000000000e+00,6.439208984375000000e-02,4.372558593750000000e-01,-2.631225585937500000e-01,8.575439453125000000e-01
-7.000000000000000000e+00,-7.000000000000000000e+00,-2.700000000000000000e+01,6.500000000000000000e+01,1.100000000000000000e+01,-1.100000000000000000e+01,-8.000000000000000000e+00,3.000000000000000000e+00,6.439208984375000000e-02,4.372558593750000000e-01,-2.631225585937500000e-01,8.575439453125000000e-01
3.600000000000000000e+01,6.000000000000000000e+00,3.000000000000000000e+01,-4.900000000000000000e+01,-2.100000000000000000e+01,-1.700000000000000000e+01,-1.800000000000000000e+01,-4.000000000000000000e+00,6.439208984375000000e-02,4.372558593750000000e-01,-2.631225585937500000e-01,8.575439453125000000e-01
-2.400000000000000000e+01,-3.000000000000000000e+00,0.000000000000000000e+00,-2.000000000000000000e+01,-6.000000000000000000e+00,4.000000000000000000e+00,0.000000000000000000e+00,-1.000000000000000000e+00,6.439208984375000000e-02,4.372558593750000000e-01,-2.631225585937500000e-01,8.575439453125000000e-01
-5.000000000000000000e+00,-1.000000000000000000e+01,-1.600000000000000000e+01,-1.000000000000000000e+01,-1.000000000000000000e+00,9.000000000000000000e+00,1.400000000000000000e+01,-1.000000000000000000e+00,6.530761718750000000e-02,4.373168945312500000e-01,-2.642822265625000000e-01,8.570556640625000000e-01
-4.000000000000000000e+00,-1.000000000000000000e+00,5.000000000000000000e+00,7.800000000000000000e+01,1.300000000000000000e+01,1.000000000000000000e+00,-4.000000000000000000e+00,1.000000000000000000e+00,6.530761718750000000e-02,4.373168945312500000e-01,-2.642822265625000000e-01,8.570556640625000000e-01
1.600000000000000000e+01,-1.800000000000000000e+01,1.000000000000000000e+00,3.000000000000000000e+00,3.000000000000000000e+00,-7.000000000000000000e+00,-1.000000000000000000e+00,9.000000000000000000e+00,6.530761718750000000e-02,4.373168945312500000e-01,-2.642822265625000000e-01,8.570556640625000000e-01
-2.400000000000000000e+01,4.300000000000000000e+01,2.200000000000000000e+01,-1.000000000000000000e+00,-1.000000000000000000e+00,0.000000000000000000e+00,0.000000000000000000e+00,-1.300000000000000000e+01,6.530761718750000000e-02,4.373168945312500000e-01,-2.642822265625000000e-01,8.570556640625000000e-01
4.000000000000000000e+00,-2.900000000000000000e+01,1.800000000000000000e+01,7.000000000000000000e+00,0.000000000000000000e+00,-5.000000000000000000e+00,-5.000000000000000000e+00,-1.000000000000000000e+00,6.640625000000000000e-02,4.371948242187500000e-01,-2.651977539062500000e-01,8.567504882812500000e-01
6.000000000000000000e+00,7.000000000000000000e+00,-3.200000000000000000e+01,-4.000000000000000000e+00,1.000000000000000000e+00,2.000000000000000000e+00,0.000000000000000000e+00,3.000000000000000000e+00,6.640625000000000000e-02,4.371948242187500000e-01,-2.651977539062500000e-01,8.567504882812500000e-01
0.000000000000000000e+00,2.000000000000000000e+00,1.700000000000000000e+01,2.000000000000000000e+01,9.000000000000000000e+00,-7.000000000000000000e+00,-7.000000000000000000e+00,4.000000000000000000e+00,6.640625000000000000e-02,4.371948242187500000e-01,-2.651977539062500000e-01,8.567504882812500000e-01
2.200000000000000000e+01,-1.800000000000000000e+01,-1.000000000000000000e+01,8.000000000000000000e+00,-8.000000000000000000e+00,-1.900000000000000000e+01,-1.600000000000000000e+01,-2.500000000000000000e+01,6.640625000000000000e-02,4.371948242187500000e-01,-2.651977539062500000e-01,8.567504882812500000e-01
-2.000000000000000000e+01,2.600000000000000000e+01,-8.000000000000000000e+00,-5.100000000000000000e+01,-7.000000000000000000e+00,7.000000000000000000e+00,1.400000000000000000e+01,2.000000000000000000e+00,6.640625000000000000e-02,4.370117187500000000e-01,-2.655029296875000000e-01,8.567504882812500000e-01
2.000000000000000000e+01,-1.500000000000000000e+01,-3.000000000000000000e+01,1.000000000000000000e+00,9.000000000000000000e+00,3.700000000000000000e+01,2.500000000000000000e+01,6.000000000000000000e+00,6.640625000000000000e-02,4.370117187500000000e-01,-2.655029296875000000e-01,8.567504882812500000e-01
-3.000000000000000000e+00,2.700000000000000000e+01,5.500000000000000000e+01,3.000000000000000000e+01,7.000000000000000000e+00,-4.000000000000000000e+00,-2.000000000000000000e+00,1.000000000000000000e+00,6.640625000000000000e-02,4.370117187500000000e-01,-2.655029296875000000e-01,8.567504882812500000e-01
1.800000000000000000e+01,-1.800000000000000000e+01,-1.200000000000000000e+01,-3.900000000000000000e+01,-2.000000000000000000e+00,-6.000000000000000000e+00,1.000000000000000000e+00,6.000000000000000000e+00,6.640625000000000000e-02,4.370117187500000000e-01,-2.655029296875000000e-01,8.567504882812500000e-01
-3.100000000000000000e+01,-2.000000000000000000e+00,1.000000000000000000e+01,5.700000000000000000e+01,-4.000000000000000000e+00,-1.600000000000000000e+01,-1.800000000000000000e+01,-5.000000000000000000e+00,6.634521484375000000e-02,4.373779296875000000e-01,-2.650756835937500000e-01,8.566894531250000000e-01
2.400000000000000000e+01,-3.000000000000000000e+00,-2.000000000000000000e+00,-2.800000000000000000e+01,-9.000000000000000000e+00,-1.000000000000000000e+00,-3.000000000000000000e+00,-6.000000000000000000e+00,6.634521484375000000e-02,4.373779296875000000e-01,-2.650756835937500000e-01,8.566894531250000000e-01
2.000000000000000000e+00,-7.000000000000000000e+00,-5.600000000000000000e+01,7.900000000000000000e+01,1.200000000000000000e+01,-7.000000000000000000e+00,0.000000000000000000e+00,6.000000000000000000e+00,6.634521484375000000e-02,4.373779296875000000e-01,-2.650756835937500000e-01,8.566894531250000000e-01
6.000000000000000000e+00,-3.000000000000000000e+00,1.700000000000000000e+01,-6.600000000000000000e+01,-2.100000000000000000e+01,-2.000000000000000000e+00,-1.000000000000000000e+00,-3.000000000000000000e+00,6.634521484375000000e-02,4.373779296875000000e-01,-2.650756835937500000e-01,8.566894531250000000e-01
2.900000000000000000e+01,1.200000000000000000e+01,2.500000000000000000e+01,5.000000000000000000e+01,5.000000000000000000e+00,7.000000000000000000e+00,5.000000000000000000e+00,1.000000000000000000e+00,6.726074218750000000e-02,4.383544921875000000e-01,-2.645263671875000000e-01,8.563232421875000000e-01
-1.400000000000000000e+01,1.600000000000000000e+01,-1.600000000000000000e+01,-2.300000000000000000e+01,-8.000000000000000000e+00,-3.000000000000000000e+00,-4.000000000000000000e+00,-3.000000000000000000e+00,6.726074218750000000e-02,4.383544921875000000e-01,-2.645263671875000000e-01,8.563232421875000000e-01
-5.000000000000000000e+00,-1.500000000000000000e+01,-1.200000000000000000e+01,1.900000000000000000e+01,-2.000000000000000000e+00,1.000000000000000000e+00,-1.000000000000000000e+00,-4.000000000000000000e+00,6.726074218750000000e-02,4.383544921875000000e-01,-2.645263671875000000e-01,8.563232421875000000e-01
1.000000000000000000e+00,-1.000000000000000000e+00,-1.400000000000000000e+01,2.500000000000000000e+01,8.000000000000000000e+00,-1.000000000000000000e+01,-1.000000000000000000e+00,7.000000000000000000e+00,6.726074218750000000e-02,4.383544921875000000e-01,-2.645263671875000000e-01,8.563232421875000000e-01
1.200000000000000000e+01,-9.000000000000000000e+00,-3.300000000000000000e+01,-1.000000000000000000e+01,-5.000000000000000000e+00,-6.000000000000000000e+00,-4.000000000000000000e+00,-2.000000000000000000e+00,6.774902343750000000e-02,4.392089843750000000e-01,-2.646484375000000000e-01,8.558349609375000000e-01
-1.000000000000000000e+00,9.000000000000000000e+00,6.700000000000000000e+01,-4.200000000000000000e+01,-1.400000000000000000e+01,-1.100000000000000000e+01,-7.000000000000000000e+00,-5.000000000000000000e+00,6.774902343750000000e-02,4.392089843750000000e-01,-2.646484375000000000e-01,8.558349609375000000e-01
-5.000000000000000000e+00,-4.000000000000000000e+00,-7.000000000000000000e+01,-3.000000000000000000e+01,0.000000000000000000e+00,3.000000000000000000e+00,-5.000000000000000000e+00,-1.000000000000000000e+00,6.774902343750000000e-02,4.392089843750000000e-01,-2.646484375000000000e-01,8.558349609375000000e-01
5.000000000000000000e+00,1.100000000000000000e+01,-2.600000000000000000e+01,1.000000000000000000e+01,8.000000000000000000e+00,1.700000000000000000e+01,1.800000000000000000e+01,1.300000000000000000e+01,6.774902343750000000e-02,4.392089843750000000e-01,-2.646484375000000000e-01,8.558349609375000000e-01
1.700000000000000000e+01,-9.000000000000000000e+00,5.100000000000000000e+01,2.400000000000000000e+01,1.300000000000000000e+01,7.000000000000000000e+00,0.000000000000000000e+00,-2.000000000000000000e+00,6.811523437500000000e-02,4.396972656250000000e-01,-2.648925781250000000e-01,8.554687500000000000e-01
1.900000000000000000e+01,-4.000000000000000000e+00,4.000000000000000000e+00,-5.700000000000000000e+01,-2.800000000000000000e+01,-2.400000000000000000e+01,-1.400000000000000000e+01,-1.400000000000000000e+01,6.811523437500000000e-02,4.396972656250000000e-01,-2.648925781250000000e-01,8.554687500000000000e-01
-3.000000000000000000e+00,7.000000000000000000e+00,3.000000000000000000e+00,-3.500000000000000000e+01,-1.200000000000000000e+01,-1.100000000000000000e+01,-1.300000000000000000e+01,-4.000000000000000000e+00,6.811523437500000000e-02,4.396972656250000000e-01,-2.648925781250000000e-01,8.554687500000000000e-01
-4.800000000000000000e+01,0.000000000000000000e+00,-3.300000000000000000e+01,4.000000000000000000e+00,3.000000000000000000e+00,9.000000000000000000e+00,5.000000000000000000e+00,-6.000000000000000000e+00,6.811523437500000000e-02,4.396972656250000000e-01,-2.648925781250000000e-01,8.554687500000000000e-01
2.000000000000000000e+00,5.000000000000000000e+00,5.700000000000000000e+01,3.100000000000000000e+01,3.000000000000000000e+00,1.000000000000000000e+00,1.000000000000000000e+00,2.000000000000000000e+00,6.860351562500000000e-02,4.405517578125000000e-01,-2.651977539062500000e-01,8.549194335937500000e-01
-5.000000000000000000e+00,-2.400000000000000000e+01,-3.400000000000000000e+01,-2.000000000000000000e+01,4.000000000000000000e+00,-3.000000000000000000e+00,-9.000000000000000000e+00,3.000000000000000000e+00,6.860351562500000000e-02,4.405517578125000000e-01,-2.651977539062500000e-01,8.549194335937500000e-01
1.400000000000000000e+01,6.000000000000000000e+00,3.200000000000000000e+01,0.000000000000000000e+00,-1.100000000000000000e+01,-2.000000000000000000e+00,2.000000000000000000e+00,-4.000000000000000000e+00,6.860351562500000000e-02,4.405517578125000000e-01,-2.651977539062500000e-01,8.549194335937500000e-01
-3.000000000000000000e+00,5.000000000000000000e+00,4.000000000000000000e+01,2.800000000000000000e+01,0.000000000000000000e+00,1.000000000000000000e+00,-1.000000000000000000e+00,5.000000000000000000e+00,6.860351562500000000e-02,4.405517578125000000e-01,-2.651977539062500000e-01,8.549194335937500000e-01
-1.000000000000000000e+01,-3.000000000000000000e+00,-7.900000000000000000e+01,-9.000000000000000000e+01,-1.600000000000000000e+01,-9.000000000000000000e+00,-4.000000000000000000e+00,-7.000000000000000000e+00,6.939697265625000000e-02,4.414672851562500000e-01,-2.647705078125000000e-01,8.544921875000000000e-01
7.000000000000000000e+00,6.000000000000000000e+00,2.200000000000000000e+01,2.600000000000000000e+01,4.000000000000000000e+00,7.000000000000000000e+00,1.000000000000000000e+00,7.000000000000000000e+00,6.939697265625000000e-02,4.414672851562500000e-01,-2.647705078125000000e-01,8.544921875000000000e-01
-1.600000000000000000e+01,-3.000000000000000000e+00,-2.100000000000000000e+01,-3.400000000000000000e+01,-3.000000000000000000e+00,-2.000000000000000000e+00,-3.000000000000000000e+00,-1.200000000000000000e+01,6.939697265625000000e-02,4.414672851562500000e-01,-2.647705078125000000e-01,8.544921875000000000e-01
3.000000000000000000e+00,-1.200000000000000000e+01,9.000000000000000000e+00,1.400000000000000000e+01,2.000000000000000000e+00,-1.000000000000000000e+00,2.000000000000000000e+00,5.000000000000000000e+00,6.939697265625000000e-02,4.414672851562500000e-01,-2.647705078125000000e-01,8.544921875000000000e-01
-9.000000000000000000e+00,-1.000000000000000000e+01,-6.600000000000000000e+01,-3.500000000000000000e+01,1.000000000000000000e+00,3.000000000000000000e+00,-4.000000000000000000e+00,-1.000000000000000000e+00,6.878662109375000000e-02,4.418945312500000000e-01,-2.642211914062500000e-01,8.544921875000000000e-01
2.000000000000000000e+00,9.000000000000000000e+00,3.200000000000000000e+01,4.200000000000000000e+01,7.000000000000000000e+00,-3.000000000000000000e+00,-4.000000000000000000e+00,0.000000000000000000e+00,6.878662109375000000e-02,4.418945312500000000e-01,-2.642211914062500000e-01,8.544921875000000000e-01
-6.000000000000000000e+00,-7.000000000000000000e+00,-9.000000000000000000e+00,-8.000000000000000000e+00,0.000000000000000000e+00,-1.200000000000000000e+01,-1.000000000000000000e+00,8.000000000000000000e+00,6.878662109375000000e-02,4.418945312500000000e-01,-2.642211914062500000e-01,8.544921875000000000e-01
-2.000000000000000000e+00,8.000000000000000000e+00,8.000000000000000000e+00,1.800000000000000000e+01,2.000000000000000000e+00,2.500000000000000000e+01,0.000000000000000000e+00,-1.400000000000000000e+01,6.878662109375000000e-02,4.418945312500000000e-01,-2.642211914062500000e-01,8.544921875000000000e-01
1.200000000000000000e+01,-2.000000000000000000e+00,-2.800000000000000000e+01,-4.000000000000000000e+00,1.000000000000000000e+00,-4.000000000000000000e+00,6.000000000000000000e+00,0.000000000000000000e+00,6.805419921875000000e-02,4.416503906250000000e-01,-2.644653320312500000e-01,8.546142578125000000e-01
-8.000000000000000000e+00,5.000000000000000000e+00,5.000000000000000000e+00,-6.800000000000000000e+01,-7.000000000000000000e+00,9.000000000000000000e+00,6.000000000000000000e+00,7.000000000000000000e+00,6.805419921875000000e-02,4.416503906250000000e-01,-2.644653320312500000e-01,8.546142578125000000e-01
-1.000000000000000000e+01,-1.300000000000000000e+01,8.000000000000000000e+00,5.000000000000000000e+01,5.000000000000000000e+00,0.000000000000000000e+00,-7.000000000000000000e+00,-2.300000000000000000e+01,6.805419921875000000e-02,4.416503906250000000e-01,-2.644653320312500000e-01,8.546142578125000000e-01
2.500000000000000000e+01,1.000000000000000000e+01,-2.700000000000000000e+01,-1.100000000000000000e+01,0.000000000000000000e+00,-1.200000000000000000e+01,-1.000000000000000000e+00,1.000000000000000000e+01,6.805419921875000000e-02,4.416503906250000000e-01,-2.644653320312500000e-01,8.546142578125000000e-01
1.400000000000000000e+01,-1.000000000000000000e+01,8.600000000000000000e+01,5.300000000000000000e+01,1.000000000000000000e+00,1.000000000000000000e+00,-1.000000000000000000e+00,5.000000000000000000e+00,6.781005859375000000e-02,4.411010742187500000e-01,-2.651977539062500000e-01,8.546752929687500000e-01
-3.100000000000000000e+01,8.000000000000000000e+00,3.000000000000000000e+00,-2.300000000000000000e+01,-2.000000000000000000e+00,-5.000000000000000000e+00,-1.000000000000000000e+00,-8.000000000000000000e+00,6.781005859375000000e-02,4.411010742187500000e-01,-2.651977539062500000e-01,8.546752929687500000e-01
-5.000000000000000000e+00,-1.400000000000000000e+01,-3.900000000000000000e+01,1.800000000000000000e+01,6.000000000000000000e+00,6.000000000000000000e+00,0.000000000000000000e+00,-4.000000000000000000e+00,6.781005859375000000e-02,4.411010742187500000e-01,-2.651977539062500000e-01,8.546752929687500000e-01
2.000000000000000000e+00,-3.000000000000000000e+00,8.300000000000000000e+01,2.600000000000000000e+01,1.000000000000000000e+00,-5.000000000000000000e+00,-4.000000000000000000e+00,2.000000000000000000e+00,6.781005859375000000e-02,4.411010742187500000e-01,-2.651977539062500000e-01,8.546752929687500000e-01
-5.000000000000000000e+00,-2.300000000000000000e+01,-5.900000000000000000e+01,-5.500000000000000000e+01,-9.000000000000000000e+00,2.000000000000000000e+00,-3.000000000000000000e+00,-1.100000000000000000e+01,6.817626953125000000e-02,4.401855468750000000e-01,-2.655639648437500000e-01,8.549804687500000000e-01
4.000000000000000000e+00,5.900000000000000000e+01,3.400000000000000000e+01,2.600000000000000000e+01,-6.000000000000000000e+00,-8.000000000000000000e+00,-5.000000000000000000e+00,5.000000000000000000e+00,6.817626953125000000e-02,4.401855468750000000e-01,-2.655639648437500000e-01,8.549804687500000000e-01
-3.000000000000000000e+00,-3.500000000000000000e+01,-3.200000000000000000e+01,-2.000000000000000000e+00,2.000000000000000000e+00,7.000000000000000000e+00,1.000000000000000000e+00,4.000000000000000000e+00,6.817626953125000000e-02,4.401855468750000000e-01,-2.655639648437500000e-01,8.549804687500000000e-01
6.000000000000000000e+00,-6.000000000000000000e+00,-1.200000000000000000e+01,-6.100000000000000000e+01,-1.000000000000000000e+01,-8.000000000000000000e+00,-3.000000000000000000e+00,-1.000000000000000000e+00,6.817626953125000000e-02,4.401855468750000000e-01,-2.655639648437500000e-01,8.549804687500000000e-01
-7.000000000000000000e+00,1.700000000000000000e+01,1.800000000000000000e+01,2.800000000000000000e+01,5.000000000000000000e+00,-4.000000000000000000e+00,1.000000000000000000e+00,5.000000000000000000e+00,6.750488281250000000e-02,4.389648437500000000e-01,-2.653808593750000000e-01,8.557739257812500000e-01
-5.000000000000000000e+00,-2.400000000000000000e+01,-4.000000000000000000e+01,-1.200000000000000000e+01,4.000000000000000000e+00,3.000000000000000000e+00,-2.000000000000000000e+00,-9.000000000000000000e+00,6.750488281250000000e-02,4.389648437500000000e-01,-2.653808593750000000e-01,8.557739257812500000e-01
-8.000000000000000000e+00,5.000000000000000000e+00,5.200000000000000000e+01,9.000000000000000000e+00,-2.000000000000000000e+00,5.000000000000000000e+00,4.000000000000000000e+00,1.000000000000000000e+00,6.750488281250000000e-02,4.389648437500000000e-01,-2.653808593750000000e-01,8.557739257812500000e-01
4.000000000000000000e+00,0.000000000000000000e+00,-4.200000000000000000e+01,-1.700000000000000000e+01,-6.000000000000000000e+00,-1.100000000000000000e+01,-7.000000000000000000e+00,2.000000000000000000e+00,6.750488281250000000e-02,4.389648437500000000e-01,-2.653808593750000000e-01,8.557739257812500000e-01
-4.000000000000000000e+00,5.000000000000000000e+00,2.000000000000000000e+01,1.700000000000000000e+01,-5.000000000000000000e+00,-8.000000000000000000e+00,0.000000000000000000e+00,-6.000000000000000000e+00,6.628417968750000000e-02,4.372558593750000000e-01,-2.655029296875000000e-01,8.566284179687500000e-01
0.000000000000000000e+00,-1.000000000000000000e+01,-1.900000000000000000e+01,2.100000000000000000e+01,3.000000000000000000e+00,6.000000000000000000e+00,2.000000000000000000e+00,0.000000000000000000e+00,6.628417968750000000e-02,4.372558593750000000e-01,-2.655029296875000000e-01,8.566284179687500000e-01
3.400000000000000000e+01,1.400000000000000000e+01,1.500000000000000000e+01,-1.200000000000000000e+01,-2.000000000000000000e+00,4.000000000000000000e+00,7.000000000000000000e+00,1.400000000000000000e+01,6.628417968750000000e-02,4.372558593750000000e-01,-2.655029296875000000e-01,8.566284179687500000e-01
-5.100000000000000000e+01,-6.000000000000000000e+00,1.300000000000000000e+01,2.100000000000000000e+01,5.000000000000000000e+00,-3.000000000000000000e+00,6.000000000000000000e+00,-5.000000000000000000e+00,6.628417968750000000e-02,4.372558593750000000e-01,-2.655029296875000000e-01,8.566284179687500000e-01
-7.000000000000000000e+00,-2.000000000000000000e+00,-2.400000000000000000e+01,-1.300000000000000000e+01,-1.000000000000000000e+00,2.000000000000000000e+00,-1.200000000000000000e+01,-2.200000000000000000e+01,6.573486328125000000e-02,4.351806640625000000e-01,-2.659912109375000000e-01,8.576049804687500000e-01
1.000000000000000000e+01,-8.000000000000000000e+00,7.000000000000000000e+00,8.000000000000000000e+00,3.000000000000000000e+00,7.000000000000000000e+00,9.000000000000000000e+00,7.000000000000000000e+00,6.573486328125000000e-02,4.351806640625000000e-01,-2.659912109375000000e-01,8.576049804687500000e-01
-5.000000000000000000e+00,-7.000000000000000000e+00,-3.000000000000000000e+01,-7.000000000000000000e+00,3.000000000000000000e+00,-3.000000000000000000e+00,0.000000000000000000e+00,0.000000000000000000e+00,6.573486328125000000e-02,4.351806640625000000e-01,-2.659912109375000000e-01,8.576049804687500000e-01
7.000000000000000000e+00,0.000000000000000000e+00,1.600000000000000000e+01,-1.400000000000000000e+01,-4.000000000000000000e+00,4.000000000000000000e+00,-2.000000000000000000e+00,-1.600000000000000000e+01,6.573486328125000000e-02,4.351806640625000000e-01,-2.659912109375000000e-01,8.576049804687500000e-01
4.000000000000000000e+00,-4.000000000000000000e+00,3.400000000000000000e+01,-1.800000000000000000e+01,-8.000000000000000000e+00,-1.000000000000000000e+01,-1.000000000000000000e+00,2.200000000000000000e+01,6.530761718750000000e-02,4.334106445312500000e-01,-2.665405273437500000e-01,8.583984375000000000e-01
-1.000000000000000000e+00,2.000000000000000000e+01,-2.500000000000000000e+01,2.600000000000000000e+01,1.100000000000000000e+01,2.000000000000000000e+00,0.000000000000000000e+00,-2.000000000000000000e+00,6.530761718750000000e-02,4.334106445312500000e-01,-2.665405273437500000e-01,8.583984375000000000e-01
-5.000000000000000000e+00,-1.900000000000000000e+01,3.600000000000000000e+01,4.300000000000000000e+01,-2.000000000000000000e+00,-6.000000000000000000e+00,-2.000000000000000000e+00,-3.000000000000000000e+00,6.530761718750000000e-02,4.334106445312500000e-01,-2.665405273437500000e-01,8.583984375000000000e-01
9.000000000000000000e+00,1.900000000000000000e+01,-1.500000000000000000e+01,-6.900000000000000000e+01,-1.300000000000000000e+01,-5.000000000000000000e+00,-7.000000000000000000e+00,-4.000000000000000000e+00,6.530761718750000000e-02,4.334106445312500000e-01,-2.665405273437500000e-01,8.583984375000000000e-01
-4.000000000000000000e+00,-1.400000000000000000e+01,-1.400000000000000000e+01,6.900000000000000000e+01,1.100000000000000000e+01,9.000000000000000000e+00,5.000000000000000000e+00,0.000000000000000000e+00,6.555175781250000000e-02,4.320678710937500000e-01,-2.667236328125000000e-01,8.589477539062500000e-01
6.000000000000000000e+00,1.600000000000000000e+01,5.600000000000000000e+01,-2.000000000000000000e+01,-6.000000000000000000e+00,-9.000000000000000000e+00,-6.000000000000000000e+00,0.000000000000000000e+00,6.555175781250000000e-02,4.320678710937500000e-01,-2.667236328125000000e-01,8.589477539062500000e-01
-9.000000000000000000e+00,0.000000000000000000e+00,-6.100000000000000000e+01,-2.300000000000000000e+01,0.000000000000000000e+00,3.000000000000000000e+00,0.000000000000000000e+00,1.000000000000000000e+00,6.555175781250000000e-02,4.320678710937500000e-01,-2.667236328125000000e-01,8.589477539062500000e-01
-1.000000000000000000e+00,-8.000000000000000000e+00,-1.400000000000000000e+01,2.300000000000000000e+01,2.000000000000000000e+00,-4.000000000000000000e+00,0.000000000000000000e+00,5.000000000000000000e+00,6.555175781250000000e-02,4.320678710937500000e-01,-2.667236328125000000e-01,8.589477539062500000e-01
7.000000000000000000e+00,-8.000000000000000000e+00,1.900000000000000000e+01,2.100000000000000000e+01,4.000000000000000000e+00,1.000000000000000000e+00,0.000000000000000000e+00,-4.000000000000000000e+00,6.512451171875000000e-02,4.312744140625000000e-01,-2.665405273437500000e-01,8.594360351562500000e-01
-6.000000000000000000e+00,-1.500000000000000000e+01,-4.000000000000000000e+00,-1.000000000000000000e+01,-8.000000000000000000e+00,-9.000000000000000000e+00,-1.000000000000000000e+00,0.000000000000000000e+00,6.512451171875000000e-02,4.312744140625000000e-01,-2.665405273437500000e-01,8.594360351562500000e-01
-1.300000000000000000e+01,1.000000000000000000e+01,-7.000000000000000000e+00,-1.800000000000000000e+01,0.000000000000000000e+00,-3.000000000000000000e+00,-2.000000000000000000e+00,-9.000000000000000000e+00,6.512451171875000000e-02,4.312744140625000000e-01,-2.665405273437500000e-01,8.594360351562500000e-01
5.000000000000000000e+00,-6.000000000000000000e+00,-1.200000000000000000e+01,-1.700000000000000000e+01,-3.000000000000000000e+00,-8.000000000000000000e+00,2.000000000000000000e+00,3.300000000000000000e+01,6.512451171875000000e-02,4.312744140625000000e-01,-2.665405273437500000e-01,8.594360351562500000e-01
-5.000000000000000000e+00,1.000000000000000000e+00,1.300000000000000000e+01,2.000000000000000000e+00,0.000000000000000000e+00,-1.000000000000000000e+01,-1.000000000000000000e+00,-3.300000000000000000e+01,6.427001953125000000e-02,4.306640625000000000e-01,-2.665405273437500000e-01,8.598022460937500000e-01
-1.800000000000000000e+01,-1.700000000000000000e+01,5.000000000000000000e+00,1.400000000000000000e+01,3.000000000000000000e+00,2.200000000000000000e+01,1.100000000000000000e+01,-8.000000000000000000e+00,6.427001953125000000e-02,4.306640625000000000e-01,-2.665405273437500000e-01,8.598022460937500000e-01
1.000000000000000000e+01,1.400000000000000000e+01,1.300000000000000000e+01,-5.000000000000000000e+00,2.000000000000000000e+00,1.300000000000000000e+01,1.200000000000000000e+01,1.800000000000000000e+01,6.427001953125000000e-02,4.306640625000000000e-01,-2.665405273437500000e-01,8.598022460937500000e-01
9.000000000000000000e+00,-1.000000000000000000e+00,3.000000000000000000e+00,-1.200000000000000000e+01,-1.000000000000000000e+00,7.000000000000000000e+00,1.000000000000000000e+00,3.000000000000000000e+00,6.427001953125000000e-02,4.306640625000000000e-01,-2.665405273437500000e-01,8.598022460937500000e-01
-9.000000000000000000e+00,3.000000000000000000e+00,-6.000000000000000000e+00,2.000000000000000000e+00,-4.000000000000000000e+00,-2.000000000000000000e+00,-1.000000000000000000e+00,4.000000000000000000e+00,6.359863281250000000e-02,4.304809570312500000e-01,-2.664794921875000000e-01,8.599853515625000000e-01
2.000000000000000000e+00,-8.000000000000000000e+00,-3.700000000000000000e+01,-5.000000000000000000e+00,-4.000000000000000000e+00,-1.600000000000000000e+01,-1.600000000000000000e+01,-8.000000000000000000e+00,6.359863281250000000e-02,4.304809570312500000e-01,-2.664794921875000000e-01,8.599853515625000000e-01
-1.200000000000000000e+01,-3.000000000000000000e+00,7.000000000000000000e+00,5.700000000000000000e+01,5.000000000000000000e+00,2.000000000000000000e+00,-2.000000000000000000e+00,-1.100000000000000000e+01,6.359863281250000000e-02,4.304809570312500000e-01,-2.664794921875000000e-01,8.599853515625000000e-01
8.000000000000000000e+00,2.000000000000000000e+00,7.200000000000000000e+01,5.500000000000000000e+01,6.000000000000000000e+00,-3.000000000000000000e+00,-2.000000000000000000e+00,0.000000000000000000e+00,6.359863281250000000e-02,4.304809570312500000e-01,-2.664794921875000000e-01,8.599853515625000000e-01
-5.000000000000000000e+00,1.000000000000000000e+00,1.100000000000000000e+01,-3.700000000000000000e+01,-8.000000000000000000e+00,-6.000000000000000000e+00,-3.000000000000000000e+00,4.000000000000000000e+00,6.292724609375000000e-02,4.312744140625000000e-01,-2.662353515625000000e-01,8.596801757812500000e-01
-3.000000000000000000e+00,-9.000000000000000000e+00,-2.800000000000000000e+01,2.200000000000000000e+01,6.000000000000000000e+00,6.000000000000000000e+00,1.000000000000000000e+00,-8.000000000000000000e+00,6.292724609375000000e-02,4.312744140625000000e-01,-2.662353515625000000e-01,8.596801757812500000e-01
-3.000000000000000000e+00,1.800000000000000000e+01,3.000000000000000000e+00,2.300000000000000000e+01,2.000000000000000000e+00,-2.000000000000000000e+00,-4.000000000000000000e+00,0.000000000000000000e+00,6.292724609375000000e-02,4.312744140625000000e-01,-2.662353515625000000e-01,8.596801757812500000e-01
7.000000000000000000e+00,-5.000000000000000000e+00,-4.300000000000000000e+01,-2.100000000000000000e+01,-4.000000000000000000e+00,-4.000000000000000000e+00,-3.000000000000000000e+00,-6.000000000000000000e+00,6.292724609375000000e-02,4.312744140625000000e-01,-2.662353515625000000e-01,8.596801757812500000e-01
-3.000000000000000000e+00,1.000000000000000000e+01,2.000000000000000000e+01,-4.000000000000000000e+00,-2.000000000000000000e+00,2.000000000000000000e+00,0.000000000000000000e+00,0.000000000000000000e+00,6.243896484375000000e-02,4.321289062500000000e-01,-2.666015625000000000e-01,8.591918945312500000e-01
-1.100000000000000000e+01,-1.700000000000000000e+01,8.000000000000000000e+00,2.500000000000000000e+01,-1.000000000000000000e+00,-1.000000000000000000e+00,0.000000000000000000e+00,7.000000000000000000e+00,6.243896484375000000e-02,4.321289062500000000e-01,-2.666015625000000000e-01,8.591918945312500000e-01
1.700000000000000000e+01,-6.000000000000000000e+00,-1.000000000000000000e+00,-5.000000000000000000e+01,-1.100000000000000000e+01,-4.000000000000000000e+00,0.000000000000000000e+00,-5.000000000000000000e+00,6.243896484375000000e-02,4.321289062500000000e-01,-2.666015625000000000e-01,8.591918945312500000e-01
1.000000000000000000e+00,1.000000000000000000e+00,-1.400000000000000000e+01,2.000000000000000000e+01,4.000000000000000000e+00,-3.000000000000000000e+00,-4.000000000000000000e+00,-5.000000000000000000e+00,6.243896484375000000e-02,4.321289062500000000e-01,-2.666015625000000000e-01,8.591918945312500000e-01
9.000000000000000000e+00,1.800000000000000000e+01,4.000000000000000000e+00,-5.000000000000000000e+00,3.000000000000000000e+00,1.000000000000000000e+01,5.000000000000000000e+00,5.000000000000000000e+00,6.176757812500000000e-02,4.326782226562500000e-01,-2.670898437500000000e-01,8.588256835937500000e-01
3.000000000000000000e+00,-1.100000000000000000e+01,-3.000000000000000000e+00,-6.000000000000000000e+00,0.000000000000000000e+00,-2.000000000000000000e+00,-1.000000000000000000e+00,1.000000000000000000e+01,6.176757812500000000e-02,4.326782226562500000e-01,-2.670898437500000000e-01,8.588256835937500000e-01
-9.000000000000000000e+00,2.000000000000000000e+00,1.400000000000000000e+01,-2.000000000000000000e+00,0.000000000000000000e+00,-9.000000000000000000e+00,-1.100000000000000000e+01,-3.000000000000000000e+00,6.176757812500000000e-02,4.326782226562500000e-01,-2.670898437500000000e-01,8.588256835937500000e-01
5.000000000000000000e+00,-1.000000000000000000e+00,-1.700000000000000000e+01,-2.000000000000000000e+01,1.000000000000000000e+00,-4.000000000000000000e+00,0.000000000000000000e+00,-9.000000000000000000e+00,6.176757812500000000e-02,4.326782226562500000e-01,-2.670898437500000000e-01,8.588256835937500000e-01
-6.000000000000000000e+00,-3.000000000000000000e+00,1.300000000000000000e+01,-2.000000000000000000e+00,-5.000000000000000000e+00,1.600000000000000000e+01,-4.000000000000000000e+00,-6.000000000000000000e+00,6.121826171875000000e-02,4.332275390625000000e-01,-2.673950195312500000e-01,8.584594726562500000e-01
1.200000000000000000e+01,3.000000000000000000e+00,-1.300000000000000000e+01,-7.000000000000000000e+00,0.000000000000000000e+00,-2.000000000000000000e+00,-1.000000000000000000e+00,-4.000000000000000000e+00,6.121826171875000000e-02,4.332275390625000000e-01,-2.673950195312500000e-01,8.584594726562500000e-01
-6.000000000000000000e+00,0.000000000000000000e+00,2.500000000000000000e+01,5.000000000000000000e+00,2.000000000000000000e+00,1.000000000000000000e+00,1.000000000000000000e+00,-4.000000000000000000e+00,6.121826171875000000e-02,4.332275390625000000e-01,-2.673950195312500000e-01,8.584594726562500000e-01
1.000000000000000000e+00,5.000000000000000000e+00,-3.700000000000000000e+01,-1.100000000000000000e+01,1.000000000000000000e+00,-8.000000000000000000e+00,-7.000000000000000000e+00,-2.000000000000000000e+00,6.121826171875000000e-02,4.332275390625000000e-01,-2.673950195312500000e-01,8.584594726562500000e-01
-9.000000000000000000e+00,-1.600000000000000000e+01,-4.100000000000000000e+01,-7.000000000000000000e+00,-5.000000000000000000e+00,-8.000000000000000000e+00,-2.000000000000000000e+00,4.000000000000000000e+00,5.999755859375000000e-02,4.338378906250000000e-01,-2.677612304687500000e-01,8.581542968750000000e-01
2.000000000000000000e+00,1.900000000000000000e+01,7.000000000000000000e+00,-1.800000000000000000e+01,-1.000000000000000000e+00,1.000000000000000000e+00,2.000000000000000000e+00,1.000000000000000000e+00,5.999755859375000000e-02,4.338378906250000000e-01,-2.677612304687500000e-01,8.581542968750000000e-01
-4.000000000000000000e+00,-9.000000000000000000e+00,3.000000000000000000e+01,0.000000000000000000e+00,-1.000000000000000000e+00,-2.000000000000000000e+00,-2.000000000000000000e+00,-6.000000000000000000e+00,5.999755859375000000e-02,4.338378906250000000e-01,-2.677612304687500000e-01,8.581542968750000000e-01
0.000000000000000000e+00,-1.600000000000000000e+01,-1.300000000000000000e+01,1.600000000000000000e+01,0.000000000000000000e+00,-1.000000000000000000e+00,0.000000000000000000e+00,-2.000000000000000000e+00,5.999755859375000000e-02,4.338378906250000000e-01,-2.677612304687500000e-01,8.581542968750000000e-01
-4.000000000000000000e+00,1.400000000000000000e+01,-2.700000000000000000e+01,-1.400000000000000000e+01,-4.000000000000000000e+00,-6.000000000000000000e+00,-2.000000000000000000e+00,2.000000000000000000e+00,5.920410156250000000e-02,4.342651367187500000e-01,-2.682495117187500000e-01,8.578491210937500000e-01
-3.000000000000000000e+00,-1.100000000000000000e+01,3.000000000000000000e+00,-1.000000000000000000e+01,-1.000000000000000000e+00,-1.000000000000000000e+00,-3.000000000000000000e+00,-6.000000000000000000e+00,5.920410156250000000e-02,4.342651367187500000e-01,-2.682495117187500000e-01,8.578491210937500000e-01
0.000000000000000000e+00,-1.100000000000000000e+01,-3.400000000000000000e+01,-3.800000000000000000e+01,-4.000000000000000000e+00,-2.000000000000000000e+00,1.000000000000000000e+00,4.000000000000000000e+00,5.920410156250000000e-02,4.342651367187500000e-01,-2.682495117187500000e-01,8.578491210937500000e-01
-4.000000000000000000e+00,4.000000000000000000e+00,3.300000000000000000e+01,5.400000000000000000e+01,7.000000000000000000e+00,4.000000000000000000e+00,0.000000000000000000e+00,1.000000000000000000e+00,5.920410156250000000e-02,4.342651367187500000e-01,-2.682495117187500000e-01,8.578491210937500000e-01
-4.000000000000000000e+00,0.000000000000000000e+00,3.000000000000000000e+01,-2.000000000000000000e+01,-7.000000000000000000e+00,-3.000000000000000000e+00,1.000000000000000000e+00,5.000000000000000000e+00,5.859375000000000000e-02,4.343872070312500000e-01,-2.689819335937500000e-01,8.576049804687500000e-01
1.300000000000000000e+01,-2.400000000000000000e+01,-5.700000000000000000e+01,1.700000000000000000e+01,0.000000000000000000e+00,-2.000000000000000000e+00,-3.000000000000000000e+00,3.000000000000000000e+00,5.859375000000000000e-02,4.343872070312500000e-01,-2.689819335937500000e-01,8.576049804687500000e-01
-1.300000000000000000e+01,3.400000000000000000e+01,-3.000000000000000000e+00,-1.800000000000000000e+01,-4.000000000000000000e+00,0.000000000000000000e+00,-3.000000000000000000e+00,-1.200000000000000000e+01,5.859375000000000000e-02,4.343872070312500000e-01,-2.689819335937500000e-01,8.576049804687500000e-01
-1.000000000000000000e+00,-1.100000000000000000e+01,1.100000000000000000e+01,2.400000000000000000e+01,7.000000000000000000e+00,7.000000000000000000e+00,4.000000000000000000e+00,1.500000000000000000e+01,5.859375000000000000e-02,4.343872070312500000e-01,-2.689819335937500000e-01,8.576049804687500000e-01
2.500000000000000000e+01,0.000000000000000000e+00,4.000000000000000000e+00,0.000000000000000000e+00,-5.000000000000000000e+00,-5.000000000000000000e+00,-1.000000000000000000e+00,1.600000000000000000e+01,5.841064453125000000e-02,4.340820312500000000e-01,-2.696533203125000000e-01,8.575439453125000000e-01
-3.100000000000000000e+01,-3.000000000000000000e+00,1.500000000000000000e+01,5.600000000000000000e+01,3.000000000000000000e+00,-2.000000000000000000e+00,-3.000000000000000000e+00,-2.000000000000000000e+01,5.841064453125000000e-02,4.340820312500000000e-01,-2.696533203125000000e-01,8.575439453125000000e-01
5.000000000000000000e+00,4.000000000000000000e+00,3.000000000000000000e+00,-6.200000000000000000e+01,-1.000000000000000000e+01,-3.000000000000000000e+00,0.000000000000000000e+00,3.000000000000000000e+00,5.841064453125000000e-02,4.340820312500000000e-01,-2.696533203125000000e-01,8.575439453125000000e-01
-3.000000000000000000e+00,-1.600000000000000000e+01,-3.000000000000000000e+00,9.000000000000000000e+00,-3.000000000000000000e+00,0.000000000000000000e+00,3.000000000000000000e+00,-6.000000000000000000e+00,5.841064453125000000e-02,4.340820312500000000e-01,-2.696533203125000000e-01,8.575439453125000000e-01
-1.000000000000000000e+01,1.700000000000000000e+01,-3.000000000000000000e+00,-1.000000000000000000e+00,3.000000000000000000e+00,-3.000000000000000000e+00,-3.000000000000000000e+00,-2.000000000000000000e+00,5.804443359375000000e-02,4.335937500000000000e-01,-2.698364257812500000e-01,8.577270507812500000e-01
1.100000000000000000e+01,-6.000000000000000000e+00,-5.000000000000000000e+00,-1.000000000000000000e+01,0.000000000000000000e+00,-4.000000000000000000e+00,-2.000000000000000000e+00,9.000000000000000000e+00,5.804443359375000000e-02,4.335937500000000000e-01,-2.698364257812500000e-01,8.577270507812500000e-01
3.000000000000000000e+00,-6.000000000000000000e+00,-5.000000000000000000e+00,-4.000000000000000000e+00,-2.000000000000000000e+00,6.000000000000000000e+00,1.000000000000000000e+00,1.000000000000000000e+00,5.804443359375000000e-02,4.335937500000000000e-01,-2.698364257812500000e-01,8.577270507812500000e-01
-4.000000000000000000e+00,1.200000000000000000e+01,-5.000000000000000000e+00,9.000000000000000000e+00,-9.000000000000000000e+00,5.000000000000000000e+00,0.000000000000000000e+00,-5.000000000000000000e+00,5.804443359375000000e-02,4.335937500000000000e-01,-2.698364257812500000e-01,8.577270507812500000e-01
1.000000000000000000e+00,-8.000000000000000000e+00,2.400000000000000000e+01,6.000000000000000000e+00,3.000000000000000000e+00,-1.000000000000000000e+00,2.000000000000000000e+00,1.000000000000000000e+00,5.712890625000000000e-02,4.333496093750000000e-01,-2.696533203125000000e-01,8.580322265625000000e-01
-3.000000000000000000e+00,5.000000000000000000e+00,2.300000000000000000e+01,-1.700000000000000000e+01,-6.000000000000000000e+00,-4.000000000000000000e+00,0.000000000000000000e+00,-4.000000000000000000e+00,5.712890625000000000e-02,4.333496093750000000e-01,-2.696533203125000000e-01,8.580322265625000000e-01
-9.000000000000000000e+00,-1.200000000000000000e+01,2.700000000000000000e+01,1.000000000000000000e+01,3.000000000000000000e+00,-6.000000000000000000e+00,-3.000000000000000000e+00,-4.000000000000000000e+00,5.712890625000000000e-02,4.333496093750000000e-01,-2.696533203125000000e-01,8.580322265625000000e-01
4.000000000000000000e+00,6.000000000000000000e+00,3.000000000000000000e+00,-3.300000000000000000e+01,-5.000000000000000000e+00,-6.000000000000000000e+00,-4.000000000000000000e+00,1.000000000000000000e+00,5.712890625000000000e-02,4.333496093750000000e-01,-2.696533203125000000e-01,8.580322265625000000e-01
-9.000000000000000000e+00,-1.200000000000000000e+01,-1.300000000000000000e+01,3.700000000000000000e+01,5.000000000000000000e+00,1.000000000000000000e+00,-2.000000000000000000e+00,-7.000000000000000000e+00,5.670166015625000000e-02,4.332275390625000000e-01,-2.696533203125000000e-01,8.580932617187500000e-01
2.000000000000000000e+00,8.000000000000000000e+00,-7.000000000000000000e+00,-6.500000000000000000e+01,-6.000000000000000000e+00,-1.000000000000000000e+00,1.000000000000000000e+00,3.000000000000000000e+00,5.670166015625000000e-02,4.332275390625000000e-01,-2.696533203125000000e-01,8.580932617187500000e-01
1.000000000000000000e+00,2.000000000000000000e+00,9.000000000000000000e+00,2.400000000000000000e+01,2.000000000000000000e+00,2.000000000000000000e+00,0.000000000000000000e+00,3.000000000000000000e+00,5.670166015625000000e-02,4.332275390625000000e-01,-2.696533203125000000e-01,8.580932617187500000e-01
5.000000000000000000e+00,2.000000000000000000e+00,7.000000000000000000e+00,8.000000000000000000e+00,0.000000000000000000e+00,-5.000000000000000000e+00,-6.000000000000000000e+00,-6.000000000000000000e+00,5.670166015625000000e-02,4.332275390625000000e-01,-2.696533203125000000e-01,8.580932617187500000e-01
-3.000000000000000000e+00,-3.000000000000000000e+00,-2.800000000000000000e+01,-2.800000000000000000e+01,-3.000000000000000000e+00,7.000000000000000000e+00,3.000000000000000000e+00,-1.000000000000000000e+00,5.688476562500000000e-02,4.328002929687500000e-01,-2.698974609375000000e-01,8.582153320312500000e-01
-1.000000000000000000e+01,-5.000000000000000000e+00,1.300000000000000000e+01,2.900000000000000000e+01,6.000000000000000000e+00,-1.000000000000000000e+00,2.000000000000000000e+00,0.000000000000000000e+00,5.688476562500000000e-02,4.328002929687500000e-01,-2.698974609375000000e-01,8.582153320312500000e-01
1.000000000000000000e+01,-1.400000000000000000e+01,-1.100000000000000000e+01,1.200000000000000000e+01,-4.000000000000000000e+00,-4.000000000000000000e+00,-2.000000000000000000e+00,-9.000000000000000000e+00,5.688476562500000000e-02,4.328002929687500000e-01,-2.698974609375000000e-01,8.582153320312500000e-01
-8.000000000000000000e+00,2.100000000000000000e+01,2.500000000000000000e+01,-1.700000000000000000e+01,-6.000000000000000000e+00,-4.000000000000000000e+00,-3.000000000000000000e+00,1.000000000000000000e+01,5.688476562500000000e-02,4.328002929687500000e-01,-2.698974609375000000e-01,8.582153320312500000e-01
-2.000000000000000000e+00,-3.000000000000000000e+00,-4.400000000000000000e+01,-3.100000000000000000e+01,-8.000000000000000000e+00,-8.000000000000000000e+00,-9.000000000000000000e+00,-8.000000000000000000e+00,5.700683593750000000e-02,4.324951171875000000e-01,-2.700195312500000000e-01,8.583374023437500000e-01
3.000000000000000000e+00,3.000000000000000000e+00,1.000000000000000000e+01,5.000000000000000000e+00,1.000000000000000000e+00,2.000000000000000000e+00,3.000000000000000000e+00,1.700000000000000000e+01,5.700683593750000000e-02,4.324951171875000000e-01,-2.700195312500000000e-01,8.583374023437500000e-01
6.000000000000000000e+00,-1.500000000000000000e+01,1.300000000000000000e+01,2.800000000000000000e+01,2.000000000000000000e+00,1.000000000000000000e+00,-2.000000000000000000e+00,-3.000000000000000000e+00,5.700683593750000000e-02,4.324951171875000000e-01,-2.700195312500000000e-01,8.583374023437500000e-01
1.000000000000000000e+00,1.000000000000000000e+00,-1.600000000000000000e+01,-3.100000000000000000e+01,-1.000000000000000000e+00,-1.000000000000000000e+01,-7.000000000000000000e+00,-1.400000000000000000e+01,5.700683593750000000e-02,4.324951171875000000e-01,-2.700195312500000000e-01,8.583374023437500000e-01
-2.000000000000000000e+00,-1.300000000000000000e+01,-2.000000000000000000e+01,-2.800000000000000000e+01,-6.000000000000000000e+00,-3.000000000000000000e+00,1.000000000000000000e+00,7.000000000000000000e+00,5.712890625000000000e-02,4.321899414062500000e-01,-2.701416015625000000e-01,8.584594726562500000e-01
-3.000000000000000000e+00,2.000000000000000000e+00,-1.300000000000000000e+01,-1.400000000000000000e+01,2.000000000000000000e+00,3.600000000000000000e+01,1.600000000000000000e+01,7.000000000000000000e+00,5.712890625000000000e-02,4.321899414062500000e-01,-2.701416015625000000e-01,8.584594726562500000e-01
-3.000000000000000000e+00,1.600000000000000000e+01,1.300000000000000000e+01,5.000000000000000000e+00,1.000000000000000000e+00,-1.000000000000000000e+00,-4.000000000000000000e+00,3.000000000000000000e+00,5.712890625000000000e-02,4.321899414062500000e-01,-2.701416015625000000e-01,8.584594726562500000e-01
0.000000000000000000e+00,-2.000000000000000000e+00,-1.000000000000000000e+00,4.000000000000000000e+00,0.000000000000000000e+00,3.000000000000000000e+00,1.000000000000000000e+00,-3.000000000000000000e+00,5.712890625000000000e-02,4.321899414062500000e-01,-2.701416015625000000e-01,8.584594726562500000e-01
7.000000000000000000e+00,-5.000000000000000000e+00,8.000000000000000000e+00,3.300000000000000000e+01,2.000000000000000000e+00,-6.000000000000000000e+00,2.000000000000000000e+00,6.000000000000000000e+00,5.706787109375000000e-02,4.321289062500000000e-01,-2.698974609375000000e-01,8.585205078125000000e-01
-7.000000000000000000e+00,-1.300000000000000000e+01,1.000000000000000000e+00,-1.100000000000000000e+01,-7.000000000000000000e+00,-1.300000000000000000e+01,-1.000000000000000000e+01,-1.900000000000000000e+01,5.706787109375000000e-02,4.321289062500000000e-01,-2.698974609375000000e-01,8.585205078125000000e-01
-3.000000000000000000e+00,-1.000000000000000000e+00,-1.700000000000000000e+01,-3.800000000000000000e+01,-5.000000000000000000e+00,2.000000000000000000e+00,1.000000000000000000e+00,1.000000000000000000e+00,5.706787109375000000e-02,4.321289062500000000e-01,-2.698974609375000000e-01,8.585205078125000000e-01
-6.000000000000000000e+00,1.000000000000000000e+00,1.100000000000000000e+01,3.300000000000000000e+01,7.000000000000000000e+00,0.000000000000000000e+00,3.000000000000000000e+00,1.000000000000000000e+00,5.706787109375000000e-02,4.321289062500000000e-01,-2.698974609375000000e-01,8.585205078125000000e-01
-3.000000000000000000e+00,-4.300000000000000000e+01,1.500000000000000000e+01,2.000000000000000000e+00,2.000000000000000000e+00,0.000000000000000000e+00,0.000000000000000000e+00,-4.000000000000000000e+00,5.688476562500000000e-02,4.322509765625000000e-01,-2.697753906250000000e-01,8.585205078125000000e-01
-2.000000000000000000e+00,5.100000000000000000e+01,-6.000000000000000000e+00,-1.000000000000000000e+00,-1.000000000000000000e+01,-7.000000000000000000e+00,-6.000000000000000000e+00,-2.000000000000000000e+00,5.688476562500000000e-02,4.322509765625000000e-01,-2.697753906250000000e-01,8.585205078125000000e-01
-6.000000000000000000e+00,-7.000000000000000000e+00,-8.000000000000000000e+00,1.100000000000000000e+01,1.000000000000000000e+00,-6.000000000000000000e+00,-3.000000000000000000e+00,-1.000000000000000000e+00,5.688476562500000000e-02,4.322509765625000000e-01,-2.697753906250000000e-01,8.585205078125000000e-01
0.000000000000000000e+00,3.000000000000000000e+00,9.000000000000000000e+00,-1.300000000000000000e+01,-1.000000000000000000e+00,-4.000000000000000000e+00,-1.000000000000000000e+00,-2.000000000000000000e+00,5.688476562500000000e-02,4.322509765625000000e-01,-2.697753906250000000e-01,8.585205078125000000e-01
-2.000000000000000000e+00,5.000000000000000000e+00,1.100000000000000000e+01,-6.000000000000000000e+00,-3.000000000000000000e+00,8.000000000000000000e+00,1.000000000000000000e+00,-6.000000000000000000e+00,5.651855468750000000e-02,4.323120117187500000e-01,-2.699584960937500000e-01,8.584594726562500000e-01
8.000000000000000000e+00,-2.100000000000000000e+01,-3.300000000000000000e+01,-1.000000000000000000e+00,0.000000000000000000e+00,-5.000000000000000000e+00,-2.000000000000000000e+00,7.000000000000000000e+00,5.651855468750000000e-02,4.323120117187500000e-01,-2.699584960937500000e-01,8.584594726562500000e-01
-2.000000000000000000e+00,4.000000000000000000e+00,-1.100000000000000000e+01,-1.100000000000000000e+01,5.000000000000000000e+00,-6.000000000000000000e+00,0.000000000000000000e+00,6.000000000000000000e+00,5.651855468750000000e-02,4.323120117187500000e-01,-2.699584960937500000e-01,8.584594726562500000e-01
-6.000000000000000000e+00,-8.000000000000000000e+00,2.800000000000000000e+01,2.100000000000000000e+01,0.000000000000000000e+00,5.000000000000000000e+00,6.000000000000000000e+00,-5.000000000000000000e+00,5.651855468750000000e-02,4.323120117187500000e-01,-2.699584960937500000e-01,8.584594726562500000e-01
-9.000000000000000000e+00,4.000000000000000000e+00,3.000000000000000000e+00,3.000000000000000000e+00,1.000000000000000000e+00,-6.000000000000000000e+00,-8.000000000000000000e+00,-3.000000000000000000e+00,5.596923828125000000e-02,4.328613281250000000e-01,-2.700805664062500000e-01,8.581542968750000000e-01
1.100000000000000000e+01,1.000000000000000000e+00,2.100000000000000000e+01,1.600000000000000000e+01,4.000000000000000000e+00,6.000000000000000000e+00,9.000000000000000000e+00,1.100000000000000000e+01,5.596923828125000000e-02,4.328613281250000000e-01,-2.700805664062500000e-01,8.581542968750000000e-01
