-3.000000000000000000e+00,7.000000000000000000e+00,1.000000000000000000e+00,-3.000000000000000000e+00,-1.000000000000000000e+00,-9.000000000000000000e+00,-1.400000000000000000e+01,1.000000000000000000e+00,-2.976684570312500000e-01,2.431640625000000000e-01,6.807861328125000000e-01,6.234130859375000000e-01
3.000000000000000000e+00,-1.300000000000000000e+01,-2.600000000000000000e+01,-9.000000000000000000e+00,-1.000000000000000000e+00,-3.000000000000000000e+00,0.000000000000000000e+00,0.000000000000000000e+00,-2.976684570312500000e-01,2.431640625000000000e-01,6.807861328125000000e-01,6.234130859375000000e-01
-3.000000000000000000e+00,5.000000000000000000e+00,-1.500000000000000000e+01,0.000000000000000000e+00,5.000000000000000000e+00,1.200000000000000000e+01,9.000000000000000000e+00,1.000000000000000000e+00,-2.961425781250000000e-01,2.423706054687500000e-01,6.812133789062500000e-01,6.240844726562500000e-01
-5.000000000000000000e+00,-2.400000000000000000e+01,-2.000000000000000000e+00,-7.000000000000000000e+00,-4.000000000000000000e+00,-4.000000000000000000e+00,-7.000000000000000000e+00,-2.000000000000000000e+00,-2.961425781250000000e-01,2.423706054687500000e-01,6.812133789062500000e-01,6.240844726562500000e-01
8.000000000000000000e+00,2.100000000000000000e+01,-3.000000000000000000e+00,1.000000000000000000e+00,-3.000000000000000000e+00,3.000000000000000000e+00,3.000000000000000000e+00,5.000000000000000000e+00,-2.961425781250000000e-01,2.423706054687500000e-01,6.812133789062500000e-01,6.240844726562500000e-01
-9.000000000000000000e+00,-1.700000000000000000e+01,1.000000000000000000e+01,6.000000000000000000e+00,5.000000000000000000e+00,0.000000000000000000e+00,-1.200000000000000000e+01,-6.000000000000000000e+00,-2.961425781250000000e-01,2.423706054687500000e-01,6.812133789062500000e-01,6.240844726562500000e-01
2.000000000000000000e+00,8.000000000000000000e+00,-1.000000000000000000e+01,-3.000000000000000000e+00,-5.000000000000000000e+00,4.000000000000000000e+00,1.000000000000000000e+00,-3.000000000000000000e+00,-2.951660156250000000e-01,2.388916015625000000e-01,6.831665039062500000e-01,6.237182617187500000e-01
-9.000000000000000000e+00,7.000000000000000000e+00,-7.000000000000000000e+00,-1.300000000000000000e+01,-8.000000000000000000e+00,-5.000000000000000000e+00,-3.000000000000000000e+00,-2.000000000000000000e+00,-2.951660156250000000e-01,2.388916015625000000e-01,6.831665039062500000e-01,6.237182617187500000e-01
3.000000000000000000e+00,-3.000000000000000000e+00,6.000000000000000000e+00,1.700000000000000000e+01,9.000000000000000000e+00,-8.000000000000000000e+00,-7.000000000000000000e+00,-3.000000000000000000e+00,-2.951660156250000000e-01,2.388916015625000000e-01,6.831665039062500000e-01,6.237182617187500000e-01
-1.000000000000000000e+00,-1.200000000000000000e+01,-1.500000000000000000e+01,-1.400000000000000000e+01,-8.000000000000000000e+00,3.000000000000000000e+00,-9.000000000000000000e+00,0.000000000000000000e+00,-2.951660156250000000e-01,2.388916015625000000e-01,6.831665039062500000e-01,6.237182617187500000e-01
3.000000000000000000e+00,1.000000000000000000e+00,0.000000000000000000e+00,1.000000000000000000e+00,-1.000000000000000000e+00,-3.000000000000000000e+00,-3.000000000000000000e+00,2.000000000000000000e+00,-2.954711914062500000e-01,2.338256835937500000e-01,6.847534179687500000e-01,6.237182617187500000e-01
-1.000000000000000000e+00,-4.000000000000000000e+00,8.000000000000000000e+00,6.000000000000000000e+00,1.000000000000000000e+00,-1.500000000000000000e+01,-1.000000000000000000e+01,-2.000000000000000000e+00,-2.954711914062500000e-01,2.338256835937500000e-01,6.847534179687500000e-01,6.237182617187500000e-01
-6.000000000000000000e+00,-9.000000000000000000e+00,-7.000000000000000000e+00,-8.000000000000000000e+00,-1.000000000000000000e+00,1.000000000000000000e+01,1.300000000000000000e+01,-9.000000000000000000e+00,-2.954711914062500000e-01,2.338256835937500000e-01,6.847534179687500000e-01,6.237182617187500000e-01
-6.000000000000000000e+00,7.000000000000000000e+00,2.000000000000000000e+00,-7.000000000000000000e+00,-4.000000000000000000e+00,7.000000000000000000e+00,-1.100000000000000000e+01,-1.000000000000000000e+01,-2.954711914062500000e-01,2.338256835937500000e-01,6.847534179687500000e-01,6.237182617187500000e-01
6.000000000000000000e+00,-5.000000000000000000e+00,1.600000000000000000e+01,1.000000000000000000e+01,-4.000000000000000000e+00,6.000000000000000000e+00,2.200000000000000000e+01,1.000000000000000000e+01,-2.951660156250000000e-01,2.293090820312500000e-01,6.846923828125000000e-01,6.256103515625000000e-01
-1.200000000000000000e+01,-9.000000000000000000e+00,6.000000000000000000e+00,-8.000000000000000000e+00,-6.000000000000000000e+00,-7.000000000000000000e+00,2.000000000000000000e+00,-5.000000000000000000e+00,-2.951660156250000000e-01,2.293090820312500000e-01,6.846923828125000000e-01,6.256103515625000000e-01
-3.000000000000000000e+00,8.000000000000000000e+00,-7.000000000000000000e+00,-6.000000000000000000e+00,2.000000000000000000e+00,3.400000000000000000e+01,-1.400000000000000000e+01,-7.000000000000000000e+00,-2.951660156250000000e-01,2.293090820312500000e-01,6.846923828125000000e-01,6.256103515625000000e-01
2.000000000000000000e+00,-1.800000000000000000e+01,-3.000000000000000000e+00,3.000000000000000000e+00,1.000000000000000000e+00,-9.000000000000000000e+00,1.300000000000000000e+01,3.000000000000000000e+00,-2.951660156250000000e-01,2.293090820312500000e-01,6.846923828125000000e-01,6.256103515625000000e-01
3.000000000000000000e+00,4.000000000000000000e+00,-1.300000000000000000e+01,-1.400000000000000000e+01,1.000000000000000000e+00,8.000000000000000000e+00,8.000000000000000000e+00,3.000000000000000000e+00,-2.942504882812500000e-01,2.245483398437500000e-01,6.833496093750000000e-01,6.292114257812500000e-01
2.000000000000000000e+00,4.000000000000000000e+00,-4.000000000000000000e+00,1.800000000000000000e+01,3.000000000000000000e+00,-9.000000000000000000e+00,-1.600000000000000000e+01,1.000000000000000000e+00,-2.942504882812500000e-01,2.245483398437500000e-01,6.833496093750000000e-01,6.292114257812500000e-01
-4.000000000000000000e+00,-6.000000000000000000e+00,-1.300000000000000000e+01,-1.700000000000000000e+01,-8.000000000000000000e+00,-9.000000000000000000e+00,-2.000000000000000000e+00,2.000000000000000000e+00,-2.942504882812500000e-01,2.245483398437500000e-01,6.833496093750000000e-01,6.292114257812500000e-01
4.000000000000000000e+00,1.500000000000000000e+01,1.800000000000000000e+01,1.500000000000000000e+01,9.000000000000000000e+00,2.100000000000000000e+01,1.100000000000000000e+01,4.000000000000000000e+00,-2.942504882812500000e-01,2.245483398437500000e-01,6.833496093750000000e-01,6.292114257812500000e-01
-1.000000000000000000e+00,-6.000000000000000000e+00,1.100000000000000000e+01,1.000000000000000000e+00,0.000000000000000000e+00,-5.000000000000000000e+00,-1.600000000000000000e+01,-2.000000000000000000e+00,-2.930297851562500000e-01,2.199096679687500000e-01,6.818847656250000000e-01,6.329956054687500000e-01
5.000000000000000000e+00,4.100000000000000000e+01,6.000000000000000000e+00,-6.000000000000000000e+00,-1.000000000000000000e+00,6.000000000000000000e+00,2.200000000000000000e+01,6.000000000000000000e+00,-2.930297851562500000e-01,2.199096679687500000e-01,6.818847656250000000e-01,6.329956054687500000e-01
-8.000000000000000000e+00,-2.000000000000000000e+01,-1.300000000000000000e+01,0.000000000000000000e+00,-3.000000000000000000e+00,-9.000000000000000000e+00,-9.000000000000000000e+00,-3.000000000000000000e+00,-2.930297851562500000e-01,2.199096679687500000e-01,6.818847656250000000e-01,6.329956054687500000e-01
2.000000000000000000e+00,6.000000000000000000e+00,3.000000000000000000e+00,3.000000000000000000e+00,3.000000000000000000e+00,-2.000000000000000000e+00,-1.100000000000000000e+01,2.000000000000000000e+00,-2.930297851562500000e-01,2.199096679687500000e-01,6.818847656250000000e-01,6.329956054687500000e-01
-5.000000000000000000e+00,-9.000000000000000000e+00,-8.000000000000000000e+00,-2.000000000000000000e+00,2.000000000000000000e+00,7.000000000000000000e+00,7.000000000000000000e+00,-5.000000000000000000e+00,-2.913818359375000000e-01,2.177734375000000000e-01,6.808471679687500000e-01,6.356201171875000000e-01
-2.000000000000000000e+00,-1.500000000000000000e+01,-2.000000000000000000e+00,3.000000000000000000e+00,0.000000000000000000e+00,6.000000000000000000e+00,0.000000000000000000e+00,1.000000000000000000e+00,-2.913818359375000000e-01,2.177734375000000000e-01,6.808471679687500000e-01,6.356201171875000000e-01
5.000000000000000000e+00,1.800000000000000000e+01,1.700000000000000000e+01,-1.000000000000000000e+00,-4.000000000000000000e+00,-1.400000000000000000e+01,-2.000000000000000000e+00,1.000000000000000000e+00,-2.913818359375000000e-01,2.177734375000000000e-01,6.808471679687500000e-01,6.356201171875000000e-01
-1.000000000000000000e+00,-4.000000000000000000e+00,-5.000000000000000000e+00,-1.000000000000000000e+00,1.000000000000000000e+00,-4.000000000000000000e+00,3.000000000000000000e+00,0.000000000000000000e+00,-2.913818359375000000e-01,2.177734375000000000e-01,6.808471679687500000e-01,6.356201171875000000e-01
-5.000000000000000000e+00,1.000000000000000000e+00,-5.000000000000000000e+00,0.000000000000000000e+00,-6.000000000000000000e+00,2.000000000000000000e+00,3.000000000000000000e+00,-2.000000000000000000e+00,-2.901000976562500000e-01,2.160034179687500000e-01,6.806030273437500000e-01,6.370849609375000000e-01
4.000000000000000000e+00,-5.000000000000000000e+00,-1.000000000000000000e+01,-1.000000000000000000e+01,0.000000000000000000e+00,-2.000000000000000000e+00,-2.000000000000000000e+00,-1.000000000000000000e+00,-2.901000976562500000e-01,2.160034179687500000e-01,6.806030273437500000e-01,6.370849609375000000e-01
-3.000000000000000000e+00,-5.000000000000000000e+00,5.000000000000000000e+00,1.000000000000000000e+00,0.000000000000000000e+00,2.100000000000000000e+01,8.000000000000000000e+00,1.000000000000000000e+00,-2.901000976562500000e-01,2.160034179687500000e-01,6.806030273437500000e-01,6.370849609375000000e-01
2.000000000000000000e+00,-4.000000000000000000e+00,3.000000000000000000e+00,-6.000000000000000000e+00,-4.000000000000000000e+00,-2.100000000000000000e+01,-1.000000000000000000e+00,2.000000000000000000e+00,-2.901000976562500000e-01,2.160034179687500000e-01,6.806030273437500000e-01,6.370849609375000000e-01
-3.000000000000000000e+00,5.000000000000000000e+00,-1.500000000000000000e+01,-3.000000000000000000e+00,-6.000000000000000000e+00,-3.600000000000000000e+01,-2.500000000000000000e+01,-7.000000000000000000e+00,-2.890625000000000000e-01,2.134399414062500000e-01,6.802978515625000000e-01,6.387329101562500000e-01
2.000000000000000000e+00,1.200000000000000000e+01,2.600000000000000000e+01,1.600000000000000000e+01,1.000000000000000000e+01,4.900000000000000000e+01,2.600000000000000000e+01,2.000000000000000000e+00,-2.890625000000000000e-01,2.134399414062500000e-01,6.802978515625000000e-01,6.387329101562500000e-01
-2.000000000000000000e+00,-1.100000000000000000e+01,-1.800000000000000000e+01,-6.000000000000000000e+00,-5.000000000000000000e+00,-1.200000000000000000e+01,1.100000000000000000e+01,-2.000000000000000000e+00,-2.890625000000000000e-01,2.134399414062500000e-01,6.802978515625000000e-01,6.387329101562500000e-01
-2.000000000000000000e+00,7.000000000000000000e+00,7.000000000000000000e+00,9.000000000000000000e+00,3.000000000000000000e+00,0.000000000000000000e+00,-3.200000000000000000e+01,-2.000000000000000000e+00,-2.890625000000000000e-01,2.134399414062500000e-01,6.802978515625000000e-01,6.387329101562500000e-01
1.000000000000000000e+01,3.000000000000000000e+00,9.000000000000000000e+00,3.000000000000000000e+00,-3.000000000000000000e+00,2.000000000000000000e+00,2.700000000000000000e+01,1.000000000000000000e+01,-2.879638671875000000e-01,2.102661132812500000e-01,6.797485351562500000e-01,6.409301757812500000e-01
-9.000000000000000000e+00,-1.300000000000000000e+01,-1.000000000000000000e+01,-9.000000000000000000e+00,6.000000000000000000e+00,2.600000000000000000e+01,-1.800000000000000000e+01,-1.000000000000000000e+01,-2.879638671875000000e-01,2.102661132812500000e-01,6.797485351562500000e-01,6.409301757812500000e-01
8.000000000000000000e+00,-1.300000000000000000e+01,5.000000000000000000e+00,3.000000000000000000e+00,-5.000000000000000000e+00,-1.200000000000000000e+01,-3.000000000000000000e+00,-4.000000000000000000e+00,-2.879638671875000000e-01,2.102661132812500000e-01,6.797485351562500000e-01,6.409301757812500000e-01
0.000000000000000000e+00,-2.000000000000000000e+00,5.000000000000000000e+00,-6.000000000000000000e+00,-8.000000000000000000e+00,-1.000000000000000000e+01,2.000000000000000000e+00,1.000000000000000000e+00,-2.879638671875000000e-01,2.102661132812500000e-01,6.797485351562500000e-01,6.409301757812500000e-01
-3.000000000000000000e+00,-8.000000000000000000e+00,-1.000000000000000000e+01,-3.000000000000000000e+00,2.000000000000000000e+00,8.000000000000000000e+00,2.000000000000000000e+00,-3.000000000000000000e+00,-2.866210937500000000e-01,2.075195312500000000e-01,6.787109375000000000e-01,6.434936523437500000e-01
0.000000000000000000e+00,-2.000000000000000000e+00,1.000000000000000000e+00,8.000000000000000000e+00,4.000000000000000000e+00,-1.300000000000000000e+01,3.000000000000000000e+00,2.000000000000000000e+00,-2.866210937500000000e-01,2.075195312500000000e-01,6.787109375000000000e-01,6.434936523437500000e-01
-2.000000000000000000e+00,-1.000000000000000000e+00,-4.000000000000000000e+00,-1.200000000000000000e+01,-5.000000000000000000e+00,-4.000000000000000000e+00,-1.200000000000000000e+01,-1.200000000000000000e+01,-2.866210937500000000e-01,2.075195312500000000e-01,6.787109375000000000e-01,6.434936523437500000e-01
-1.000000000000000000e+00,3.000000000000000000e+00,-6.000000000000000000e+00,-7.000000000000000000e+00,-3.000000000000000000e+00,0.000000000000000000e+00,1.000000000000000000e+00,1.100000000000000000e+01,-2.866210937500000000e-01,2.075195312500000000e-01,6.787109375000000000e-01,6.434936523437500000e-01
-1.000000000000000000e+00,-8.000000000000000000e+00,7.000000000000000000e+00,4.000000000000000000e+00,0.000000000000000000e+00,-2.000000000000000000e+00,-6.000000000000000000e+00,-1.000000000000000000e+00,-2.849731445312500000e-01,2.055053710937500000e-01,6.777343750000000000e-01,6.458740234375000000e-01
2.000000000000000000e+00,2.100000000000000000e+01,-1.100000000000000000e+01,-9.000000000000000000e+00,-5.000000000000000000e+00,-9.000000000000000000e+00,3.000000000000000000e+00,2.000000000000000000e+00,-2.849731445312500000e-01,2.055053710937500000e-01,6.777343750000000000e-01,6.458740234375000000e-01
-4.000000000000000000e+00,-2.000000000000000000e+00,8.000000000000000000e+00,-9.000000000000000000e+00,1.000000000000000000e+00,-1.000000000000000000e+00,-4.000000000000000000e+00,2.000000000000000000e+00,-2.849731445312500000e-01,2.055053710937500000e-01,6.777343750000000000e-01,6.458740234375000000e-01
-4.000000000000000000e+00,-1.000000000000000000e+01,-1.100000000000000000e+01,1.700000000000000000e+01,-1.000000000000000000e+00,-7.000000000000000000e+00,-1.000000000000000000e+01,-1.000000000000000000e+01,-2.849731445312500000e-01,2.055053710937500000e-01,6.777343750000000000e-01,6.458740234375000000e-01
1.000000000000000000e+00,1.600000000000000000e+01,1.600000000000000000e+01,5.000000000000000000e+00,3.000000000000000000e+00,1.300000000000000000e+01,7.000000000000000000e+00,0.000000000000000000e+00,-2.824096679687500000e-01,2.042236328125000000e-01,6.775512695312500000e-01,6.476440429687500000e-01
-1.000000000000000000e+00,-2.000000000000000000e+00,-5.000000000000000000e+00,-2.000000000000000000e+00,3.000000000000000000e+00,3.000000000000000000e+00,1.000000000000000000e+00,0.000000000000000000e+00,-2.824096679687500000e-01,2.042236328125000000e-01,6.775512695312500000e-01,6.476440429687500000e-01
1.000000000000000000e+00,2.000000000000000000e+00,-2.000000000000000000e+00,-3.000000000000000000e+00,-1.000000000000000000e+00,-6.000000000000000000e+00,-1.000000000000000000e+01,4.000000000000000000e+00,-2.824096679687500000e-01,2.042236328125000000e-01,6.775512695312500000e-01,6.476440429687500000e-01
2.000000000000000000e+00,3.000000000000000000e+00,6.000000000000000000e+00,-3.000000000000000000e+00,6.000000000000000000e+00,1.800000000000000000e+01,1.400000000000000000e+01,0.000000000000000000e+00,-2.824096679687500000e-01,2.042236328125000000e-01,6.775512695312500000e-01,6.476440429687500000e-01
-9.000000000000000000e+00,-1.400000000000000000e+01,-1.400000000000000000e+01,-7.000000000000000000e+00,-9.000000000000000000e+00,-1.400000000000000000e+01,-3.200000000000000000e+01,-9.000000000000000000e+00,-2.808837890625000000e-01,2.015380859375000000e-01,6.779174804687500000e-01,6.487426757812500000e-01
2.000000000000000000e+00,-7.000000000000000000e+00,5.000000000000000000e+00,1.000000000000000000e+00,-7.000000000000000000e+00,-2.700000000000000000e+01,-8.000000000000000000e+00,-2.000000000000000000e+00,-2.808837890625000000e-01,2.015380859375000000e-01,6.779174804687500000e-01,6.487426757812500000e-01
-2.000000000000000000e+00,7.000000000000000000e+00,3.000000000000000000e+00,4.000000000000000000e+00,-4.000000000000000000e+00,-2.000000000000000000e+01,-2.300000000000000000e+01,0.000000000000000000e+00,-2.808837890625000000e-01,2.015380859375000000e-01,6.779174804687500000e-01,6.487426757812500000e-01
-3.000000000000000000e+00,-2.000000000000000000e+00,-1.000000000000000000e+00,-8.000000000000000000e+00,3.000000000000000000e+00,1.900000000000000000e+01,1.700000000000000000e+01,1.000000000000000000e+00,-2.808837890625000000e-01,2.015380859375000000e-01,6.779174804687500000e-01,6.487426757812500000e-01
2.000000000000000000e+00,4.000000000000000000e+00,4.000000000000000000e+00,0.000000000000000000e+00,7.000000000000000000e+00,2.500000000000000000e+01,-2.000000000000000000e+01,-1.000000000000000000e+00,-2.802734375000000000e-01,1.981811523437500000e-01,6.777343750000000000e-01,6.502075195312500000e-01
-5.000000000000000000e+00,-1.800000000000000000e+01,5.000000000000000000e+00,-6.000000000000000000e+00,-9.000000000000000000e+00,-2.500000000000000000e+01,-1.000000000000000000e+01,-2.000000000000000000e+00,-2.802734375000000000e-01,1.981811523437500000e-01,6.777343750000000000e-01,6.502075195312500000e-01
1.000000000000000000e+00,1.700000000000000000e+01,-1.400000000000000000e+01,7.000000000000000000e+00,-1.000000000000000000e+00,2.200000000000000000e+01,6.000000000000000000e+00,0.000000000000000000e+00,-2.802734375000000000e-01,1.981811523437500000e-01,6.777343750000000000e-01,6.502075195312500000e-01
-1.000000000000000000e+01,1.100000000000000000e+01,-1.800000000000000000e+01,-8.000000000000000000e+00,7.000000000000000000e+00,2.100000000000000000e+01,-9.000000000000000000e+00,-5.000000000000000000e+00,-2.802734375000000000e-01,1.981811523437500000e-01,6.777343750000000000e-01,6.502075195312500000e-01
-2.000000000000000000e+00,-2.000000000000000000e+01,-9.000000000000000000e+00,-1.800000000000000000e+01,-1.100000000000000000e+01,-3.200000000000000000e+01,1.000000000000000000e+00,-1.000000000000000000e+00,-2.801513671875000000e-01,1.950073242187500000e-01,6.765747070312500000e-01,6.524047851562500000e-01
-2.000000000000000000e+00,-1.000000000000000000e+00,1.400000000000000000e+01,5.000000000000000000e+00,0.000000000000000000e+00,-2.000000000000000000e+00,0.000000000000000000e+00,-1.000000000000000000e+00,-2.801513671875000000e-01,1.950073242187500000e-01,6.765747070312500000e-01,6.524047851562500000e-01
-1.000000000000000000e+00,-1.200000000000000000e+01,1.100000000000000000e+01,6.000000000000000000e+00,8.000000000000000000e+00,1.300000000000000000e+01,-2.000000000000000000e+00,3.000000000000000000e+00,-2.801513671875000000e-01,1.950073242187500000e-01,6.765747070312500000e-01,6.524047851562500000e-01
-2.000000000000000000e+00,1.700000000000000000e+01,1.100000000000000000e+01,4.000000000000000000e+00,-3.000000000000000000e+00,-1.800000000000000000e+01,-1.000000000000000000e+00,-6.000000000000000000e+00,-2.801513671875000000e-01,1.950073242187500000e-01,6.765747070312500000e-01,6.524047851562500000e-01
1.000000000000000000e+00,-9.000000000000000000e+00,-1.100000000000000000e+01,2.000000000000000000e+00,-6.000000000000000000e+00,9.000000000000000000e+00,1.400000000000000000e+01,0.000000000000000000e+00,-2.797241210937500000e-01,1.938476562500000000e-01,6.752929687500000000e-01,6.542968750000000000e-01
-4.000000000000000000e+00,-1.800000000000000000e+01,-2.700000000000000000e+01,-1.700000000000000000e+01,-3.000000000000000000e+00,-1.000000000000000000e+00,-4.000000000000000000e+00,-3.000000000000000000e+00,-2.797241210937500000e-01,1.938476562500000000e-01,6.752929687500000000e-01,6.542968750000000000e-01
-1.000000000000000000e+00,0.000000000000000000e+00,9.000000000000000000e+00,1.700000000000000000e+01,-3.000000000000000000e+00,-2.300000000000000000e+01,2.000000000000000000e+00,-3.000000000000000000e+00,-2.797241210937500000e-01,1.938476562500000000e-01,6.752929687500000000e-01,6.542968750000000000e-01
-1.000000000000000000e+00,-3.000000000000000000e+00,6.000000000000000000e+00,-2.000000000000000000e+00,1.000000000000000000e+00,-2.000000000000000000e+00,1.000000000000000000e+00,1.000000000000000000e+00,-2.797241210937500000e-01,1.938476562500000000e-01,6.752929687500000000e-01,6.542968750000000000e-01
-2.000000000000000000e+00,-5.000000000000000000e+00,5.000000000000000000e+00,-1.000000000000000000e+01,-3.000000000000000000e+00,-6.000000000000000000e+00,3.000000000000000000e+00,0.000000000000000000e+00,-2.780151367187500000e-01,1.962280273437500000e-01,6.743164062500000000e-01,6.553344726562500000e-01
3.000000000000000000e+00,1.000000000000000000e+00,7.000000000000000000e+00,4.000000000000000000e+00,1.000000000000000000e+00,6.000000000000000000e+00,8.000000000000000000e+00,3.000000000000000000e+00,-2.780151367187500000e-01,1.962280273437500000e-01,6.743164062500000000e-01,6.553344726562500000e-01
-6.000000000000000000e+00,5.000000000000000000e+00,-1.700000000000000000e+01,-7.000000000000000000e+00,-1.000000000000000000e+00,-1.200000000000000000e+01,-1.000000000000000000e+00,-5.000000000000000000e+00,-2.780151367187500000e-01,1.962280273437500000e-01,6.743164062500000000e-01,6.553344726562500000e-01
1.000000000000000000e+00,-1.900000000000000000e+01,-2.000000000000000000e+00,1.000000000000000000e+00,-1.000000000000000000e+01,-8.000000000000000000e+00,-9.000000000000000000e+00,5.000000000000000000e+00,-2.780151367187500000e-01,1.962280273437500000e-01,6.743164062500000000e-01,6.553344726562500000e-01
2.000000000000000000e+00,1.700000000000000000e+01,-1.000000000000000000e+00,8.000000000000000000e+00,1.500000000000000000e+01,6.400000000000000000e+01,3.200000000000000000e+01,4.000000000000000000e+00,-2.769165039062500000e-01,1.983032226562500000e-01,6.734008789062500000e-01,6.560668945312500000e-01
1.000000000000000000e+00,-6.000000000000000000e+00,-3.000000000000000000e+00,-1.100000000000000000e+01,-8.000000000000000000e+00,-7.000000000000000000e+00,1.100000000000000000e+01,0.000000000000000000e+00,-2.769165039062500000e-01,1.983032226562500000e-01,6.734008789062500000e-01,6.560668945312500000e-01
-6.000000000000000000e+00,-5.000000000000000000e+00,-1.500000000000000000e+01,-1.000000000000000000e+01,-4.000000000000000000e+00,-9.000000000000000000e+00,-2.000000000000000000e+00,-4.000000000000000000e+00,-2.769165039062500000e-01,1.983032226562500000e-01,6.734008789062500000e-01,6.560668945312500000e-01
2.000000000000000000e+00,-1.100000000000000000e+01,3.000000000000000000e+00,-6.000000000000000000e+00,4.000000000000000000e+00,2.400000000000000000e+01,2.100000000000000000e+01,1.000000000000000000e+00,-2.769165039062500000e-01,1.983032226562500000e-01,6.734008789062500000e-01,6.560668945312500000e-01
-3.000000000000000000e+00,1.200000000000000000e+01,1.500000000000000000e+01,1.200000000000000000e+01,1.100000000000000000e+01,0.000000000000000000e+00,-1.300000000000000000e+01,-8.000000000000000000e+00,-2.775268554687500000e-01,1.979370117187500000e-01,6.735229492187500000e-01,6.557617187500000000e-01
5.000000000000000000e+00,3.000000000000000000e+00,0.000000000000000000e+00,1.000000000000000000e+01,2.000000000000000000e+00,1.800000000000000000e+01,8.000000000000000000e+00,5.000000000000000000e+00,-2.775268554687500000e-01,1.979370117187500000e-01,6.735229492187500000e-01,6.557617187500000000e-01
0.000000000000000000e+00,-2.700000000000000000e+01,2.300000000000000000e+01,-3.000000000000000000e+00,-2.000000000000000000e+00,-1.000000000000000000e+01,1.000000000000000000e+00,4.000000000000000000e+00,-2.775268554687500000e-01,1.979370117187500000e-01,6.735229492187500000e-01,6.557617187500000000e-01
4.000000000000000000e+00,1.000000000000000000e+01,-9.000000000000000000e+00,-4.000000000000000000e+00,0.000000000000000000e+00,-1.200000000000000000e+01,-6.000000000000000000e+00,-2.000000000000000000e+00,-2.775268554687500000e-01,1.979370117187500000e-01,6.735229492187500000e-01,6.557617187500000000e-01
0.000000000000000000e+00,-2.000000000000000000e+01,-9.000000000000000000e+00,-6.000000000000000000e+00,-4.000000000000000000e+00,1.100000000000000000e+01,1.400000000000000000e+01,6.000000000000000000e+00,-2.794799804687500000e-01,1.970825195312500000e-01,6.738281250000000000e-01,6.549072265625000000e-01
0.000000000000000000e+00,-1.000000000000000000e+00,-2.000000000000000000e+00,-2.000000000000000000e+00,-1.000000000000000000e+00,-7.000000000000000000e+00,-6.000000000000000000e+00,-3.000000000000000000e+00,-2.794799804687500000e-01,1.970825195312500000e-01,6.738281250000000000e-01,6.549072265625000000e-01
-1.000000000000000000e+01,0.000000000000000000e+00,2.000000000000000000e+01,-4.000000000000000000e+00,2.000000000000000000e+00,-1.000000000000000000e+00,-2.000000000000000000e+00,-4.000000000000000000e+00,-2.794799804687500000e-01,1.970825195312500000e-01,6.738281250000000000e-01,6.549072265625000000e-01
-5.000000000000000000e+00,1.000000000000000000e+01,-2.400000000000000000e+01,0.000000000000000000e+00,-3.000000000000000000e+00,-7.000000000000000000e+00,0.000000000000000000e+00,-4.000000000000000000e+00,-2.794799804687500000e-01,1.970825195312500000e-01,6.738281250000000000e-01,6.549072265625000000e-01
0.000000000000000000e+00,9.000000000000000000e+00,-1.000000000000000000e+00,1.000000000000000000e+00,-1.000000000000000000e+00,-1.400000000000000000e+01,-1.000000000000000000e+01,1.000000000000000000e+00,-2.808837890625000000e-01,1.981201171875000000e-01,6.734008789062500000e-01,6.544189453125000000e-01
-3.000000000000000000e+00,0.000000000000000000e+00,-1.300000000000000000e+01,-9.000000000000000000e+00,-8.000000000000000000e+00,-1.700000000000000000e+01,-1.900000000000000000e+01,-7.000000000000000000e+00,-2.808837890625000000e-01,1.981201171875000000e-01,6.734008789062500000e-01,6.544189453125000000e-01
-1.000000000000000000e+00,0.000000000000000000e+00,-9.000000000000000000e+00,-3.000000000000000000e+00,-7.000000000000000000e+00,0.000000000000000000e+00,0.000000000000000000e+00,3.000000000000000000e+00,-2.808837890625000000e-01,1.981201171875000000e-01,6.734008789062500000e-01,6.544189453125000000e-01
5.000000000000000000e+00,4.000000000000000000e+00,7.000000000000000000e+00,-1.000000000000000000e+00,-5.000000000000000000e+00,-1.300000000000000000e+01,-3.000000000000000000e+00,-1.000000000000000000e+00,-2.808837890625000000e-01,1.981201171875000000e-01,6.734008789062500000e-01,6.544189453125000000e-01
2.000000000000000000e+00,3.000000000000000000e+00,7.000000000000000000e+00,-7.000000000000000000e+00,2.000000000000000000e+00,-3.000000000000000000e+00,2.000000000000000000e+01,-2.000000000000000000e+00,-2.813110351562500000e-01,2.009277343750000000e-01,6.731567382812500000e-01,6.536865234375000000e-01
3.000000000000000000e+00,4.000000000000000000e+00,-4.000000000000000000e+00,2.000000000000000000e+01,3.000000000000000000e+00,2.300000000000000000e+01,-1.400000000000000000e+01,-1.000000000000000000e+00,-2.813110351562500000e-01,2.009277343750000000e-01,6.731567382812500000e-01,6.536865234375000000e-01
1.000000000000000000e+00,-2.000000000000000000e+00,-5.000000000000000000e+00,-1.500000000000000000e+01,-8.000000000000000000e+00,-3.300000000000000000e+01,-2.600000000000000000e+01,-4.000000000000000000e+00,-2.813110351562500000e-01,2.009277343750000000e-01,6.731567382812500000e-01,6.536865234375000000e-01
3.000000000000000000e+00,1.000000000000000000e+00,2.000000000000000000e+00,4.000000000000000000e+00,6.000000000000000000e+00,4.100000000000000000e+01,3.500000000000000000e+01,7.000000000000000000e+00,-2.813110351562500000e-01,2.009277343750000000e-01,6.731567382812500000e-01,6.536865234375000000e-01
-1.000000000000000000e+00,-3.000000000000000000e+00,1.000000000000000000e+00,-2.000000000000000000e+00,-1.100000000000000000e+01,-3.700000000000000000e+01,-1.600000000000000000e+01,-2.000000000000000000e+00,-2.822875976562500000e-01,2.033691406250000000e-01,6.729736328125000000e-01,6.527099609375000000e-01
-1.000000000000000000e+00,0.000000000000000000e+00,4.000000000000000000e+00,6.000000000000000000e+00,3.000000000000000000e+00,-8.000000000000000000e+00,1.500000000000000000e+01,1.000000000000000000e+00,-2.822875976562500000e-01,2.033691406250000000e-01,6.729736328125000000e-01,6.527099609375000000e-01
-1.000000000000000000e+00,9.000000000000000000e+00,1.000000000000000000e+01,9.000000000000000000e+00,2.000000000000000000e+00,2.500000000000000000e+01,-6.000000000000000000e+00,-1.000000000000000000e+00,-2.822875976562500000e-01,2.033691406250000000e-01,6.729736328125000000e-01,6.527099609375000000e-01
-5.000000000000000000e+00,-9.000000000000000000e+00,-9.000000000000000000e+00,-1.300000000000000000e+01,-1.500000000000000000e+01,-2.900000000000000000e+01,-3.900000000000000000e+01,-7.000000000000000000e+00,-2.822875976562500000e-01,2.033691406250000000e-01,6.729736328125000000e-01,6.527099609375000000e-01
-3.000000000000000000e+00,0.000000000000000000e+00,7.000000000000000000e+00,5.000000000000000000e+00,1.000000000000000000e+00,1.500000000000000000e+01,-9.000000000000000000e+00,0.000000000000000000e+00,-2.842407226562500000e-01,2.046508789062500000e-01,6.728515625000000000e-01,6.515502929687500000e-01
-1.000000000000000000e+00,-3.000000000000000000e+00,-4.000000000000000000e+00,-9.000000000000000000e+00,-2.000000000000000000e+00,-1.000000000000000000e+01,1.000000000000000000e+00,-2.000000000000000000e+00,-2.842407226562500000e-01,2.046508789062500000e-01,6.728515625000000000e-01,6.515502929687500000e-01
1.000000000000000000e+00,5.000000000000000000e+00,-3.000000000000000000e+00,0.000000000000000000e+00,-1.000000000000000000e+00,5.000000000000000000e+00,1.500000000000000000e+01,-8.000000000000000000e+00,-2.842407226562500000e-01,2.046508789062500000e-01,6.728515625000000000e-01,6.515502929687500000e-01
-3.000000000000000000e+00,-8.000000000000000000e+00,-5.000000000000000000e+00,-5.000000000000000000e+00,-5.000000000000000000e+00,-2.400000000000000000e+01,-9.000000000000000000e+00,-3.000000000000000000e+00,-2.842407226562500000e-01,2.046508789062500000e-01,6.728515625000000000e-01,6.515502929687500000e-01
3.000000000000000000e+00,2.200000000000000000e+01,7.000000000000000000e+00,2.200000000000000000e+01,6.000000000000000000e+00,5.000000000000000000e+00,4.000000000000000000e+00,-5.000000000000000000e+00,-2.872924804687500000e-01,2.043457031250000000e-01,6.723632812500000000e-01,6.508178710937500000e-01
-1.000000000000000000e+01,-3.700000000000000000e+01,-9.000000000000000000e+00,-1.700000000000000000e+01,-6.000000000000000000e+00,-5.000000000000000000e+00,-9.000000000000000000e+00,6.000000000000000000e+00,-2.872924804687500000e-01,2.043457031250000000e-01,6.723632812500000000e-01,6.508178710937500000e-01
3.000000000000000000e+00,4.000000000000000000e+00,2.000000000000000000e+00,-2.000000000000000000e+00,0.000000000000000000e+00,-1.000000000000000000e+00,-2.000000000000000000e+00,-1.000000000000000000e+00,-2.872924804687500000e-01,2.043457031250000000e-01,6.723632812500000000e-01,6.508178710937500000e-01
5.000000000000000000e+00,3.700000000000000000e+01,2.100000000000000000e+01,5.000000000000000000e+00,1.000000000000000000e+00,3.000000000000000000e+00,4.000000000000000000e+00,1.000000000000000000e+00,-2.872924804687500000e-01,2.043457031250000000e-01,6.723632812500000000e-01,6.508178710937500000e-01
-7.000000000000000000e+00,-1.000000000000000000e+01,-3.300000000000000000e+01,-2.000000000000000000e+01,-1.200000000000000000e+01,-1.500000000000000000e+01,-1.200000000000000000e+01,-7.000000000000000000e+00,-2.886352539062500000e-01,2.052612304687500000e-01,6.713867187500000000e-01,6.509399414062500000e-01
3.000000000000000000e+00,1.000000000000000000e+00,-1.500000000000000000e+01,-5.000000000000000000e+00,1.000000000000000000e+00,1.000000000000000000e+00,3.000000000000000000e+00,7.000000000000000000e+00,-2.886352539062500000e-01,2.052612304687500000e-01,6.713867187500000000e-01,6.509399414062500000e-01
-2.000000000000000000e+00,-9.000000000000000000e+00,-5.000000000000000000e+00,-7.000000000000000000e+00,-3.000000000000000000e+00,7.000000000000000000e+00,6.000000000000000000e+00,0.000000000000000000e+00,-2.886352539062500000e-01,2.052612304687500000e-01,6.713867187500000000e-01,6.509399414062500000e-01
1.000000000000000000e+00,-2.000000000000000000e+00,1.500000000000000000e+01,3.000000000000000000e+00,6.000000000000000000e+00,0.000000000000000000e+00,-7.000000000000000000e+00,-5.000000000000000000e+00,-2.886352539062500000e-01,2.052612304687500000e-01,6.713867187500000000e-01,6.509399414062500000e-01
0.000000000000000000e+00,5.000000000000000000e+00,-4.000000000000000000e+00,1.400000000000000000e+01,5.000000000000000000e+00,1.700000000000000000e+01,2.900000000000000000e+01,4.000000000000000000e+00,-2.890625000000000000e-01,2.069702148437500000e-01,6.704711914062500000e-01,6.511230468750000000e-01
-2.000000000000000000e+00,6.000000000000000000e+00,2.100000000000000000e+01,-7.000000000000000000e+00,0.000000000000000000e+00,-1.800000000000000000e+01,-2.000000000000000000e+00,-2.000000000000000000e+00,-2.890625000000000000e-01,2.069702148437500000e-01,6.704711914062500000e-01,6.511230468750000000e-01
-3.000000000000000000e+00,-1.400000000000000000e+01,-3.000000000000000000e+01,-7.000000000000000000e+00,-1.000000000000000000e+00,2.300000000000000000e+01,-3.000000000000000000e+00,-2.000000000000000000e+00,-2.890625000000000000e-01,2.069702148437500000e-01,6.704711914062500000e-01,6.511230468750000000e-01
-1.000000000000000000e+00,-1.500000000000000000e+01,1.400000000000000000e+01,2.000000000000000000e+00,-2.000000000000000000e+00,-2.100000000000000000e+01,2.000000000000000000e+00,1.000000000000000000e+00,-2.890625000000000000e-01,2.069702148437500000e-01,6.704711914062500000e-01,6.511230468750000000e-01
1.000000000000000000e+00,9.000000000000000000e+00,5.000000000000000000e+00,0.000000000000000000e+00,-4.000000000000000000e+00,-1.700000000000000000e+01,-2.000000000000000000e+00,2.000000000000000000e+00,-2.896118164062500000e-01,2.073364257812500000e-01,6.700439453125000000e-01,6.512451171875000000e-01
0.000000000000000000e+00,-8.000000000000000000e+00,1.000000000000000000e+01,-1.000000000000000000e+00,0.000000000000000000e+00,-1.000000000000000000e+00,7.000000000000000000e+00,-3.000000000000000000e+00,-2.896118164062500000e-01,2.073364257812500000e-01,6.700439453125000000e-01,6.512451171875000000e-01
1.000000000000000000e+00,-1.000000000000000000e+00,4.000000000000000000e+00,-4.000000000000000000e+00,0.000000000000000000e+00,-1.300000000000000000e+01,1.000000000000000000e+00,3.000000000000000000e+00,-2.896118164062500000e-01,2.073364257812500000e-01,6.700439453125000000e-01,6.512451171875000000e-01
-2.000000000000000000e+00,-1.100000000000000000e+01,-6.000000000000000000e+00,1.000000000000000000e+00,3.000000000000000000e+00,2.300000000000000000e+01,6.000000000000000000e+00,-1.000000000000000000e+00,-2.896118164062500000e-01,2.073364257812500000e-01,6.700439453125000000e-01,6.512451171875000000e-01
-5.000000000000000000e+00,-1.200000000000000000e+01,6.000000000000000000e+00,-3.000000000000000000e+00,-5.000000000000000000e+00,-3.100000000000000000e+01,-3.100000000000000000e+01,-8.000000000000000000e+00,-2.905273437500000000e-01,2.053833007812500000e-01,6.700439453125000000e-01,6.514282226562500000e-01
4.000000000000000000e+00,-3.000000000000000000e+00,0.000000000000000000e+00,7.000000000000000000e+00,6.000000000000000000e+00,2.400000000000000000e+01,3.000000000000000000e+00,3.000000000000000000e+00,-2.905273437500000000e-01,2.053833007812500000e-01,6.700439453125000000e-01,6.514282226562500000e-01
1.000000000000000000e+00,2.300000000000000000e+01,0.000000000000000000e+00,-9.000000000000000000e+00,-5.000000000000000000e+00,-4.000000000000000000e+00,-1.600000000000000000e+01,0.000000000000000000e+00,-2.905273437500000000e-01,2.053833007812500000e-01,6.700439453125000000e-01,6.514282226562500000e-01
-3.000000000000000000e+00,-5.000000000000000000e+00,-1.000000000000000000e+00,3.000000000000000000e+00,1.000000000000000000e+00,-5.000000000000000000e+00,-1.000000000000000000e+00,-2.000000000000000000e+00,-2.905273437500000000e-01,2.053833007812500000e-01,6.700439453125000000e-01,6.514282226562500000e-01
1.000000000000000000e+00,4.000000000000000000e+00,4.000000000000000000e+00,-1.300000000000000000e+01,-5.000000000000000000e+00,-9.000000000000000000e+00,-1.000000000000000000e+01,-1.000000000000000000e+00,-2.917480468750000000e-01,2.020874023437500000e-01,6.704101562500000000e-01,6.515502929687500000e-01
-1.000000000000000000e+00,1.100000000000000000e+01,-4.000000000000000000e+00,2.000000000000000000e+00,-2.000000000000000000e+00,-5.000000000000000000e+00,-6.000000000000000000e+00,-3.000000000000000000e+00,-2.917480468750000000e-01,2.020874023437500000e-01,6.704101562500000000e-01,6.515502929687500000e-01
1.000000000000000000e+00,-2.300000000000000000e+01,1.500000000000000000e+01,1.400000000000000000e+01,6.000000000000000000e+00,5.000000000000000000e+00,1.200000000000000000e+01,2.000000000000000000e+00,-2.917480468750000000e-01,2.020874023437500000e-01,6.704101562500000000e-01,6.515502929687500000e-01
-2.000000000000000000e+00,-2.700000000000000000e+01,-2.500000000000000000e+01,-1.200000000000000000e+01,-8.000000000000000000e+00,-8.000000000000000000e+00,-8.000000000000000000e+00,-3.000000000000000000e+00,-2.917480468750000000e-01,2.020874023437500000e-01,6.704101562500000000e-01,6.515502929687500000e-01
3.000000000000000000e+00,6.000000000000000000e+00,1.600000000000000000e+01,8.000000000000000000e+00,4.000000000000000000e+00,1.000000000000000000e+01,-6.000000000000000000e+00,2.000000000000000000e+00,-2.919311523437500000e-01,2.000732421875000000e-01,6.707153320312500000e-01,6.517333984375000000e-01
1.000000000000000000e+00,5.000000000000000000e+00,1.100000000000000000e+01,1.000000000000000000e+01,2.000000000000000000e+00,5.000000000000000000e+00,9.000000000000000000e+00,0.000000000000000000e+00,-2.919311523437500000e-01,2.000732421875000000e-01,6.707153320312500000e-01,6.517333984375000000e-01
-3.000000000000000000e+00,-2.000000000000000000e+00,-1.000000000000000000e+00,8.000000000000000000e+00,0.000000000000000000e+00,3.000000000000000000e+00,1.200000000000000000e+01,-2.000000000000000000e+00,-2.919311523437500000e-01,2.000732421875000000e-01,6.707153320312500000e-01,6.517333984375000000e-01
-2.000000000000000000e+00,8.000000000000000000e+00,5.000000000000000000e+00,-1.200000000000000000e+01,-8.000000000000000000e+00,-1.300000000000000000e+01,-1.100000000000000000e+01,-4.000000000000000000e+00,-2.919311523437500000e-01,2.000732421875000000e-01,6.707153320312500000e-01,6.517333984375000000e-01
-1.000000000000000000e+00,-1.500000000000000000e+01,6.000000000000000000e+00,-3.000000000000000000e+00,0.000000000000000000e+00,1.000000000000000000e+00,3.000000000000000000e+00,-2.000000000000000000e+00,-2.907714843750000000e-01,2.000732421875000000e-01,6.710815429687500000e-01,6.519165039062500000e-01
1.000000000000000000e+00,8.000000000000000000e+00,-1.800000000000000000e+01,1.000000000000000000e+01,-3.000000000000000000e+00,-4.000000000000000000e+00,-3.000000000000000000e+00,-5.000000000000000000e+00,-2.907714843750000000e-01,2.000732421875000000e-01,6.710815429687500000e-01,6.519165039062500000e-01
-2.000000000000000000e+00,0.000000000000000000e+00,-5.000000000000000000e+00,-8.000000000000000000e+00,-8.000000000000000000e+00,-9.000000000000000000e+00,-1.200000000000000000e+01,-7.000000000000000000e+00,-2.907714843750000000e-01,2.000732421875000000e-01,6.710815429687500000e-01,6.519165039062500000e-01
-1.000000000000000000e+00,2.000000000000000000e+00,1.000000000000000000e+00,2.000000000000000000e+00,0.000000000000000000e+00,0.000000000000000000e+00,-7.000000000000000000e+00,4.000000000000000000e+00,-2.907714843750000000e-01,2.000732421875000000e-01,6.710815429687500000e-01,6.519165039062500000e-01
0.000000000000000000e+00,8.000000000000000000e+00,6.000000000000000000e+00,2.000000000000000000e+00,2.000000000000000000e+00,1.100000000000000000e+01,7.000000000000000000e+00,1.000000000000000000e+00,-2.900390625000000000e-01,1.991577148437500000e-01,6.715087890625000000e-01,6.520996093750000000e-01
-7.000000000000000000e+00,-1.300000000000000000e+01,0.000000000000000000e+00,-1.200000000000000000e+01,-6.000000000000000000e+00,-1.600000000000000000e+01,-8.000000000000000000e+00,-4.000000000000000000e+00,-2.900390625000000000e-01,1.991577148437500000e-01,6.715087890625000000e-01,6.520996093750000000e-01
4.000000000000000000e+00,1.700000000000000000e+01,-1.900000000000000000e+01,-1.000000000000000000e+00,3.000000000000000000e+00,1.000000000000000000e+01,-4.000000000000000000e+00,3.000000000000000000e+00,-2.900390625000000000e-01,1.991577148437500000e-01,6.715087890625000000e-01,6.520996093750000000e-01
3.000000000000000000e+00,0.000000000000000000e+00,1.000000000000000000e+01,1.500000000000000000e+01,1.300000000000000000e+01,4.600000000000000000e+01,1.900000000000000000e+01,7.000000000000000000e+00,-2.900390625000000000e-01,1.991577148437500000e-01,6.715087890625000000e-01,6.520996093750000000e-01
0.000000000000000000e+00,-8.000000000000000000e+00,1.000000000000000000e+00,-7.000000000000000000e+00,-8.000000000000000000e+00,-3.500000000000000000e+01,-8.000000000000000000e+00,-1.000000000000000000e+00,-2.891235351562500000e-01,1.978759765625000000e-01,6.720581054687500000e-01,6.523437500000000000e-01
-5.000000000000000000e+00,0.000000000000000000e+00,3.000000000000000000e+00,-4.000000000000000000e+00,4.000000000000000000e+00,4.100000000000000000e+01,1.200000000000000000e+01,-4.000000000000000000e+00,-2.891235351562500000e-01,1.978759765625000000e-01,6.720581054687500000e-01,6.523437500000000000e-01
4.000000000000000000e+00,1.000000000000000000e+01,-2.000000000000000000e+00,-1.000000000000000000e+00,0.000000000000000000e+00,-2.500000000000000000e+01,-2.200000000000000000e+01,2.000000000000000000e+00,-2.891235351562500000e-01,1.978759765625000000e-01,6.720581054687500000e-01,6.523437500000000000e-01
-3.000000000000000000e+00,-5.000000000000000000e+00,7.000000000000000000e+00,1.000000000000000000e+00,-1.000000000000000000e+00,-1.900000000000000000e+01,-1.100000000000000000e+01,-4.000000000000000000e+00,-2.891235351562500000e-01,1.978759765625000000e-01,6.720581054687500000e-01,6.523437500000000000e-01
-2.000000000000000000e+00,0.000000000000000000e+00,-1.000000000000000000e+01,6.000000000000000000e+00,4.000000000000000000e+00,2.000000000000000000e+01,1.900000000000000000e+01,2.000000000000000000e+00,-2.885742187500000000e-01,1.957397460937500000e-01,6.723632812500000000e-01,6.528930664062500000e-01
-1.000000000000000000e+00,1.000000000000000000e+00,-1.500000000000000000e+01,-9.000000000000000000e+00,-4.000000000000000000e+00,-2.000000000000000000e+01,1.000000000000000000e+01,0.000000000000000000e+00,-2.885742187500000000e-01,1.957397460937500000e-01,6.723632812500000000e-01,6.528930664062500000e-01
1.000000000000000000e+00,7.000000000000000000e+00,2.900000000000000000e+01,5.000000000000000000e+00,5.000000000000000000e+00,1.500000000000000000e+01,-2.000000000000000000e+00,2.000000000000000000e+00,-2.885742187500000000e-01,1.957397460937500000e-01,6.723632812500000000e-01,6.528930664062500000e-01
1.000000000000000000e+00,5.000000000000000000e+00,1.000000000000000000e+00,-3.000000000000000000e+00,-3.000000000000000000e+00,0.000000000000000000e+00,4.000000000000000000e+00,-1.000000000000000000e+00,-2.885742187500000000e-01,1.957397460937500000e-01,6.723632812500000000e-01,6.528930664062500000e-01
-4.000000000000000000e+00,-2.300000000000000000e+01,-2.400000000000000000e+01,-7.000000000000000000e+00,-3.000000000000000000e+00,-6.000000000000000000e+00,-9.000000000000000000e+00,-8.000000000000000000e+00,-2.883911132812500000e-01,1.929321289062500000e-01,6.723022460937500000e-01,6.538696289062500000e-01
-4.000000000000000000e+00,1.500000000000000000e+01,3.000000000000000000e+00,2.000000000000000000e+00,-5.000000000000000000e+00,-1.100000000000000000e+01,1.000000000000000000e+00,4.000000000000000000e+00,-2.883911132812500000e-01,1.929321289062500000e-01,6.723022460937500000e-01,6.538696289062500000e-01
1.000000000000000000e+00,5.000000000000000000e+00,-2.000000000000000000e+00,-2.000000000000000000e+00,2.000000000000000000e+00,1.000000000000000000e+01,1.900000000000000000e+01,5.000000000000000000e+00,-2.883911132812500000e-01,1.929321289062500000e-01,6.723022460937500000e-01,6.538696289062500000e-01
-3.000000000000000000e+00,-1.200000000000000000e+01,-1.000000000000000000e+01,-8.000000000000000000e+00,-2.000000000000000000e+00,-1.100000000000000000e+01,-5.000000000000000000e+00,-3.000000000000000000e+00,-2.883911132812500000e-01,1.929321289062500000e-01,6.723022460937500000e-01,6.538696289062500000e-01
-3.000000000000000000e+00,-1.600000000000000000e+01,7.000000000000000000e+00,1.100000000000000000e+01,0.000000000000000000e+00,7.000000000000000000e+00,2.000000000000000000e+00,-1.000000000000000000e+00,-2.871704101562500000e-01,1.916503906250000000e-01,6.724853515625000000e-01,6.546020507812500000e-01
9.000000000000000000e+00,-2.000000000000000000e+00,-2.100000000000000000e+01,-3.000000000000000000e+00,0.000000000000000000e+00,2.000000000000000000e+00,-6.000000000000000000e+00,-2.000000000000000000e+00,-2.871704101562500000e-01,1.916503906250000000e-01,6.724853515625000000e-01,6.546020507812500000e-01
-4.000000000000000000e+00,-9.000000000000000000e+00,-8.000000000000000000e+00,-7.000000000000000000e+00,-8.000000000000000000e+00,-1.400000000000000000e+01,2.000000000000000000e+00,-1.000000000000000000e+00,-2.871704101562500000e-01,1.916503906250000000e-01,6.724853515625000000e-01,6.546020507812500000e-01
-1.100000000000000000e+01,-2.000000000000000000e+00,7.000000000000000000e+00,9.000000000000000000e+00,5.000000000000000000e+00,6.000000000000000000e+00,-1.000000000000000000e+00,-3.000000000000000000e+00,-2.871704101562500000e-01,1.916503906250000000e-01,6.724853515625000000e-01,6.546020507812500000e-01
-2.000000000000000000e+00,9.000000000000000000e+00,-2.000000000000000000e+00,-8.000000000000000000e+00,-3.000000000000000000e+00,-2.000000000000000000e+00,-2.000000000000000000e+00,0.000000000000000000e+00,-2.866210937500000000e-01,1.909790039062500000e-01,6.728515625000000000e-01,6.546630859375000000e-01
-9.000000000000000000e+00,-4.000000000000000000e+00,-1.200000000000000000e+01,-6.000000000000000000e+00,1.000000000000000000e+00,0.000000000000000000e+00,-4.000000000000000000e+00,-1.000000000000000000e+00,-2.866210937500000000e-01,1.909790039062500000e-01,6.728515625000000000e-01,6.546630859375000000e-01
1.000000000000000000e+00,3.000000000000000000e+00,-5.000000000000000000e+00,-1.000000000000000000e+00,2.000000000000000000e+00,2.400000000000000000e+01,1.900000000000000000e+01,0.000000000000000000e+00,-2.866210937500000000e-01,1.909790039062500000e-01,6.728515625000000000e-01,6.546630859375000000e-01
-7.000000000000000000e+00,-9.000000000000000000e+00,-4.000000000000000000e+00,-1.200000000000000000e+01,-1.000000000000000000e+01,-2.200000000000000000e+01,-1.000000000000000000e+01,-5.000000000000000000e+00,-2.866210937500000000e-01,1.909790039062500000e-01,6.728515625000000000e-01,6.546630859375000000e-01
9.000000000000000000e+00,1.100000000000000000e+01,0.000000000000000000e+00,3.000000000000000000e+00,8.000000000000000000e+00,2.800000000000000000e+01,7.000000000000000000e+00,5.000000000000000000e+00,-2.861938476562500000e-01,1.897583007812500000e-01,6.729736328125000000e-01,6.550292968750000000e-01
1.000000000000000000e+01,2.000000000000000000e+01,1.100000000000000000e+01,9.000000000000000000e+00,3.000000000000000000e+00,-2.800000000000000000e+01,7.000000000000000000e+00,4.000000000000000000e+00,-2.861938476562500000e-01,1.897583007812500000e-01,6.729736328125000000e-01,6.550292968750000000e-01
-4.000000000000000000e+00,-3.200000000000000000e+01,-1.000000000000000000e+01,-3.000000000000000000e+00,-1.000000000000000000e+00,8.000000000000000000e+00,5.000000000000000000e+00,-5.000000000000000000e+00,-2.861938476562500000e-01,1.897583007812500000e-01,6.729736328125000000e-01,6.550292968750000000e-01
1.800000000000000000e+01,4.200000000000000000e+01,1.900000000000000000e+01,5.000000000000000000e+00,1.200000000000000000e+01,4.600000000000000000e+01,6.000000000000000000e+00,7.000000000000000000e+00,-2.861938476562500000e-01,1.897583007812500000e-01,6.729736328125000000e-01,6.550292968750000000e-01
-1.000000000000000000e+01,-2.700000000000000000e+01,-2.000000000000000000e+00,0.000000000000000000e+00,-3.000000000000000000e+00,-1.400000000000000000e+01,1.000000000000000000e+00,0.000000000000000000e+00,-2.862548828125000000e-01,1.875610351562500000e-01,6.730957031250000000e-01,6.555175781250000000e-01
-8.000000000000000000e+00,3.000000000000000000e+00,-1.200000000000000000e+01,-2.500000000000000000e+01,-9.000000000000000000e+00,8.000000000000000000e+00,4.000000000000000000e+00,-6.000000000000000000e+00,-2.862548828125000000e-01,1.875610351562500000e-01,6.730957031250000000e-01,6.555175781250000000e-01
-6.000000000000000000e+00,-1.500000000000000000e+01,-2.000000000000000000e+00,2.900000000000000000e+01,-2.000000000000000000e+00,-3.100000000000000000e+01,-7.000000000000000000e+00,-3.000000000000000000e+00,-2.862548828125000000e-01,1.875610351562500000e-01,6.730957031250000000e-01,6.555175781250000000e-01
2.000000000000000000e+00,-2.800000000000000000e+01,-1.300000000000000000e+01,-1.700000000000000000e+01,-1.000000000000000000e+01,-1.600000000000000000e+01,7.000000000000000000e+00,1.000000000000000000e+00,-2.862548828125000000e-01,1.875610351562500000e-01,6.730957031250000000e-01,6.555175781250000000e-01
3.000000000000000000e+00,3.200000000000000000e+01,-5.000000000000000000e+00,7.000000000000000000e+00,-3.000000000000000000e+00,5.000000000000000000e+00,-9.000000000000000000e+00,-1.000000000000000000e+00,-2.861938476562500000e-01,1.866455078125000000e-01,6.729125976562500000e-01,6.560058593750000000e-01
-7.000000000000000000e+00,-2.000000000000000000e+01,1.300000000000000000e+01,-6.000000000000000000e+00,1.000000000000000000e+00,-2.000000000000000000e+00,-9.000000000000000000e+00,-4.000000000000000000e+00,-2.861938476562500000e-01,1.866455078125000000e-01,6.729125976562500000e-01,6.560058593750000000e-01
-2.000000000000000000e+00,-4.000000000000000000e+00,-1.300000000000000000e+01,-6.000000000000000000e+00,1.000000000000000000e+00,5.000000000000000000e+00,1.000000000000000000e+01,3.000000000000000000e+00,-2.861938476562500000e-01,1.866455078125000000e-01,6.729125976562500000e-01,6.560058593750000000e-01
-2.000000000000000000e+00,3.000000000000000000e+00,1.000000000000000000e+01,-4.000000000000000000e+00,-1.000000000000000000e+00,-1.000000000000000000e+00,-3.000000000000000000e+00,-2.000000000000000000e+00,-2.861938476562500000e-01,1.866455078125000000e-01,6.729125976562500000e-01,6.560058593750000000e-01
0.000000000000000000e+00,9.000000000000000000e+00,-1.000000000000000000e+01,2.500000000000000000e+01,6.000000000000000000e+00,-3.000000000000000000e+00,-1.000000000000000000e+00,-4.000000000000000000e+00,-2.858276367187500000e-01,1.881103515625000000e-01,6.724243164062500000e-01,6.562500000000000000e-01
-1.000000000000000000e+00,-4.000000000000000000e+00,1.100000000000000000e+01,7.000000000000000000e+00,1.000000000000000000e+00,-2.000000000000000000e+00,-7.000000000000000000e+00,-1.000000000000000000e+00,-2.858276367187500000e-01,1.881103515625000000e-01,6.724243164062500000e-01,6.562500000000000000e-01
4.000000000000000000e+00,1.500000000000000000e+01,0.000000000000000000e+00,-1.400000000000000000e+01,-4.000000000000000000e+00,0.000000000000000000e+00,3.000000000000000000e+00,-2.000000000000000000e+00,-2.858276367187500000e-01,1.881103515625000000e-01,6.724243164062500000e-01,6.562500000000000000e-01
-5.000000000000000000e+00,-5.000000000000000000e+00,-2.000000000000000000e+01,6.000000000000000000e+00,1.000000000000000000e+00,-1.000000000000000000e+00,0.000000000000000000e+00,-1.000000000000000000e+00,-2.858276367187500000e-01,1.881103515625000000e-01,6.724243164062500000e-01,6.562500000000000000e-01
4.000000000000000000e+00,-2.000000000000000000e+00,1.300000000000000000e+01,-1.700000000000000000e+01,-3.000000000000000000e+00,-1.000000000000000000e+01,-2.000000000000000000e+00,1.000000000000000000e+00,-2.833862304687500000e-01,1.915893554687500000e-01,6.722412109375000000e-01,6.564941406250000000e-01
-3.000000000000000000e+00,0.000000000000000000e+00,-8.000000000000000000e+00,7.000000000000000000e+00,-1.000000000000000000e+00,1.000000000000000000e+01,-2.000000000000000000e+00,-1.000000000000000000e+00,-2.833862304687500000e-01,1.915893554687500000e-01,6.722412109375000000e-01,6.564941406250000000e-01
3.000000000000000000e+00,1.000000000000000000e+01,1.800000000000000000e+01,-6.000000000000000000e+00,4.000000000000000000e+00,-1.200000000000000000e+01,-1.500000000000000000e+01,0.000000000000000000e+00,-2.833862304687500000e-01,1.915893554687500000e-01,6.722412109375000000e-01,6.564941406250000000e-01
-2.000000000000000000e+00,1.000000000000000000e+00,0.000000000000000000e+00,9.000000000000000000e+00,2.000000000000000000e+00,1.600000000000000000e+01,2.000000000000000000e+01,0.000000000000000000e+00,-2.833862304687500000e-01,1.915893554687500000e-01,6.722412109375000000e-01,6.564941406250000000e-01
-1.000000000000000000e+00,-6.000000000000000000e+00,-8.000000000000000000e+00,-1.000000000000000000e+01,-6.000000000000000000e+00,-1.400000000000000000e+01,2.500000000000000000e+01,3.000000000000000000e+00,-2.816162109375000000e-01,1.926269531250000000e-01,6.724243164062500000e-01,6.567993164062500000e-01
5.000000000000000000e+00,7.000000000000000000e+00,9.000000000000000000e+00,5.000000000000000000e+00,1.300000000000000000e+01,4.100000000000000000e+01,-3.400000000000000000e+01,5.000000000000000000e+00,-2.816162109375000000e-01,1.926269531250000000e-01,6.724243164062500000e-01,6.567993164062500000e-01
2.000000000000000000e+00,3.000000000000000000e+00,-1.000000000000000000e+00,-1.000000000000000000e+00,-7.000000000000000000e+00,-8.000000000000000000e+00,2.300000000000000000e+01,4.000000000000000000e+00,-2.816162109375000000e-01,1.926269531250000000e-01,6.724243164062500000e-01,6.567993164062500000e-01
-1.000000000000000000e+00,-2.000000000000000000e+00,-5.000000000000000000e+00,0.000000000000000000e+00,3.000000000000000000e+00,-1.400000000000000000e+01,-2.000000000000000000e+01,-6.000000000000000000e+00,-2.816162109375000000e-01,1.926269531250000000e-01,6.724243164062500000e-01,6.567993164062500000e-01
-4.000000000000000000e+00,-1.000000000000000000e+00,1.000000000000000000e+01,-9.000000000000000000e+00,-3.000000000000000000e+00,-1.100000000000000000e+01,-2.000000000000000000e+00,-2.000000000000000000e+00,-2.825927734375000000e-01,1.903686523437500000e-01,6.726074218750000000e-01,6.568603515625000000e-01
6.000000000000000000e+00,-1.600000000000000000e+01,-9.000000000000000000e+00,8.000000000000000000e+00,1.000000000000000000e+00,8.000000000000000000e+00,2.400000000000000000e+01,-1.000000000000000000e+00,-2.825927734375000000e-01,1.903686523437500000e-01,6.726074218750000000e-01,6.568603515625000000e-01
-4.000000000000000000e+00,1.200000000000000000e+01,2.000000000000000000e+00,-6.000000000000000000e+00,-5.000000000000000000e+00,-1.200000000000000000e+01,-4.000000000000000000e+00,1.000000000000000000e+00,-2.825927734375000000e-01,1.903686523437500000e-01,6.726074218750000000e-01,6.568603515625000000e-01
-4.000000000000000000e+00,-6.000000000000000000e+00,1.700000000000000000e+01,6.000000000000000000e+00,6.000000000000000000e+00,1.500000000000000000e+01,1.200000000000000000e+01,2.000000000000000000e+00,-2.825927734375000000e-01,1.903686523437500000e-01,6.726074218750000000e-01,6.568603515625000000e-01
-1.500000000000000000e+01,-1.100000000000000000e+01,-2.400000000000000000e+01,-2.000000000000000000e+01,-2.100000000000000000e+01,-2.300000000000000000e+01,-3.300000000000000000e+01,-9.000000000000000000e+00,-2.850341796875000000e-01,1.875000000000000000e-01,6.723022460937500000e-01,6.569213867187500000e-01
6.000000000000000000e+00,6.000000000000000000e+00,2.000000000000000000e+00,-2.000000000000000000e+00,1.000000000000000000e+00,-1.000000000000000000e+00,1.900000000000000000e+01,0.000000000000000000e+00,-2.850341796875000000e-01,1.875000000000000000e-01,6.723022460937500000e-01,6.569213867187500000e-01
1.000000000000000000e+00,-2.000000000000000000e+00,1.800000000000000000e+01,2.200000000000000000e+01,5.000000000000000000e+00,8.000000000000000000e+00,-2.200000000000000000e+01,-2.000000000000000000e+00,-2.850341796875000000e-01,1.875000000000000000e-01,6.723022460937500000e-01,6.569213867187500000e-01
3.000000000000000000e+00,-7.000000000000000000e+00,-1.900000000000000000e+01,-1.400000000000000000e+01,-9.000000000000000000e+00,-1.000000000000000000e+01,6.000000000000000000e+00,-1.000000000000000000e+00,-2.850341796875000000e-01,1.875000000000000000e-01,6.723022460937500000e-01,6.569213867187500000e-01
8.000000000000000000e+00,8.000000000000000000e+00,2.000000000000000000e+01,4.000000000000000000e+00,5.000000000000000000e+00,1.000000000000000000e+00,-9.000000000000000000e+00,3.000000000000000000e+00,-2.859497070312500000e-01,1.876220703125000000e-01,6.714477539062500000e-01,6.573486328125000000e-01
-5.000000000000000000e+00,1.000000000000000000e+00,-1.400000000000000000e+01,-1.000000000000000000e+01,-8.000000000000000000e+00,-8.000000000000000000e+00,2.000000000000000000e+00,-1.000000000000000000e+00,-2.859497070312500000e-01,1.876220703125000000e-01,6.714477539062500000e-01,6.573486328125000000e-01
0.000000000000000000e+00,1.000000000000000000e+00,6.000000000000000000e+00,-2.000000000000000000e+00,-3.000000000000000000e+00,-4.000000000000000000e+00,-1.000000000000000000e+01,-4.000000000000000000e+00,-2.859497070312500000e-01,1.876220703125000000e-01,6.714477539062500000e-01,6.573486328125000000e-01
0.000000000000000000e+00,6.000000000000000000e+00,1.100000000000000000e+01,8.000000000000000000e+00,0.000000000000000000e+00,-3.000000000000000000e+00,-3.000000000000000000e+00,0.000000000000000000e+00,-2.859497070312500000e-01,1.876220703125000000e-01,6.714477539062500000e-01,6.573486328125000000e-01
-1.000000000000000000e+00,-2.000000000000000000e+00,-4.000000000000000000e+00,1.000000000000000000e+00,7.000000000000000000e+00,1.600000000000000000e+01,5.000000000000000000e+00,-1.000000000000000000e+00,-2.848510742187500000e-01,1.906738281250000000e-01,6.705322265625000000e-01,6.578979492187500000e-01
-7.000000000000000000e+00,5.000000000000000000e+00,-6.000000000000000000e+00,-6.000000000000000000e+00,-7.000000000000000000e+00,-8.000000000000000000e+00,6.000000000000000000e+00,-5.000000000000000000e+00,-2.848510742187500000e-01,1.906738281250000000e-01,6.705322265625000000e-01,6.578979492187500000e-01
1.000000000000000000e+00,-3.000000000000000000e+00,7.000000000000000000e+00,5.000000000000000000e+00,3.000000000000000000e+00,2.000000000000000000e+00,-1.000000000000000000e+00,-1.000000000000000000e+00,-2.848510742187500000e-01,1.906738281250000000e-01,6.705322265625000000e-01,6.578979492187500000e-01
-2.000000000000000000e+00,1.400000000000000000e+01,-7.000000000000000000e+00,-5.000000000000000000e+00,-9.000000000000000000e+00,-1.100000000000000000e+01,-5.000000000000000000e+00,0.000000000000000000e+00,-2.848510742187500000e-01,1.906738281250000000e-01,6.705322265625000000e-01,6.578979492187500000e-01
2.000000000000000000e+00,-6.000000000000000000e+00,-1.000000000000000000e+00,1.000000000000000000e+01,1.100000000000000000e+01,9.000000000000000000e+00,-5.000000000000000000e+00,-1.000000000000000000e+00,-2.845458984375000000e-01,1.932983398437500000e-01,6.705322265625000000e-01,6.572265625000000000e-01
-4.000000000000000000e+00,-1.000000000000000000e+00,8.000000000000000000e+00,-5.000000000000000000e+00,-7.000000000000000000e+00,-1.200000000000000000e+01,-1.000000000000000000e+01,-4.000000000000000000e+00,-2.845458984375000000e-01,1.932983398437500000e-01,6.705322265625000000e-01,6.572265625000000000e-01
0.000000000000000000e+00,-4.000000000000000000e+00,-1.100000000000000000e+01,-3.000000000000000000e+00,3.000000000000000000e+00,-1.200000000000000000e+01,0.000000000000000000e+00,0.000000000000000000e+00,-2.845458984375000000e-01,1.932983398437500000e-01,6.705322265625000000e-01,6.572265625000000000e-01
-2.000000000000000000e+00,-7.000000000000000000e+00,6.000000000000000000e+00,0.000000000000000000e+00,-6.000000000000000000e+00,-1.100000000000000000e+01,-7.000000000000000000e+00,-2.000000000000000000e+00,-2.845458984375000000e-01,1.932983398437500000e-01,6.705322265625000000e-01,6.572265625000000000e-01
-1.000000000000000000e+00,3.000000000000000000e+00,-5.000000000000000000e+00,6.000000000000000000e+00,1.300000000000000000e+01,4.500000000000000000e+01,5.000000000000000000e+00,1.000000000000000000e+00,-2.858276367187500000e-01,1.936035156250000000e-01,6.711425781250000000e-01,6.559448242187500000e-01
2.000000000000000000e+00,-1.000000000000000000e+00,9.000000000000000000e+00,-2.000000000000000000e+00,-4.000000000000000000e+00,1.000000000000000000e+01,-2.100000000000000000e+01,4.000000000000000000e+00,-2.858276367187500000e-01,1.936035156250000000e-01,6.711425781250000000e-01,6.559448242187500000e-01
3.000000000000000000e+00,0.000000000000000000e+00,-7.000000000000000000e+00,-1.700000000000000000e+01,-1.100000000000000000e+01,-2.600000000000000000e+01,8.000000000000000000e+00,-1.000000000000000000e+00,-2.858276367187500000e-01,1.936035156250000000e-01,6.711425781250000000e-01,6.559448242187500000e-01
-1.000000000000000000e+00,6.000000000000000000e+00,1.300000000000000000e+01,5.000000000000000000e+00,3.000000000000000000e+00,-3.000000000000000000e+00,-2.400000000000000000e+01,-6.000000000000000000e+00,-2.858276367187500000e-01,1.936035156250000000e-01,6.711425781250000000e-01,6.559448242187500000e-01
8.000000000000000000e+00,-4.000000000000000000e+00,-1.000000000000000000e+01,-5.000000000000000000e+00,-7.000000000000000000e+00,-1.700000000000000000e+01,0.000000000000000000e+00,3.000000000000000000e+00,-2.879028320312500000e-01,1.923828125000000000e-01,6.717529296875000000e-01,6.547851562500000000e-01
-2.000000000000000000e+01,0.000000000000000000e+00,1.000000000000000000e+01,8.000000000000000000e+00,1.000000000000000000e+00,-6.000000000000000000e+00,-4.000000000000000000e+00,2.000000000000000000e+00,-2.879028320312500000e-01,1.923828125000000000e-01,6.717529296875000000e-01,6.547851562500000000e-01
-7.000000000000000000e+00,-1.000000000000000000e+01,-1.100000000000000000e+01,-1.000000000000000000e+01,-6.000000000000000000e+00,1.000000000000000000e+00,1.200000000000000000e+01,-7.000000000000000000e+00,-2.879028320312500000e-01,1.923828125000000000e-01,6.717529296875000000e-01,6.547851562500000000e-01
-5.000000000000000000e+00,-2.000000000000000000e+00,-7.000000000000000000e+00,1.000000000000000000e+00,4.000000000000000000e+00,2.500000000000000000e+01,-1.500000000000000000e+01,-3.000000000000000000e+00,-2.879028320312500000e-01,1.923828125000000000e-01,6.717529296875000000e-01,6.547851562500000000e-01
-7.000000000000000000e+00,-1.000000000000000000e+00,1.400000000000000000e+01,-2.000000000000000000e+00,-9.000000000000000000e+00,-8.000000000000000000e+00,-1.000000000000000000e+00,-3.000000000000000000e+00,-2.899780273437500000e-01,1.917114257812500000e-01,6.714477539062500000e-01,6.544189453125000000e-01
9.000000000000000000e+00,-2.000000000000000000e+01,-1.000000000000000000e+00,-2.000000000000000000e+00,-1.000000000000000000e+00,-9.000000000000000000e+00,2.000000000000000000e+00,-2.000000000000000000e+00,-2.899780273437500000e-01,1.917114257812500000e-01,6.714477539062500000e-01,6.544189453125000000e-01
-1.000000000000000000e+00,1.100000000000000000e+01,-7.000000000000000000e+00,-1.000000000000000000e+00,-3.000000000000000000e+00,-5.000000000000000000e+00,-1.300000000000000000e+01,1.000000000000000000e+00,-2.899780273437500000e-01,1.917114257812500000e-01,6.714477539062500000e-01,6.544189453125000000e-01
2.000000000000000000e+00,-7.000000000000000000e+00,-8.000000000000000000e+00,-5.000000000000000000e+00,-4.000000000000000000e+00,-9.000000000000000000e+00,1.200000000000000000e+01,-1.000000000000000000e+00,-2.899780273437500000e-01,1.917114257812500000e-01,6.714477539062500000e-01,6.544189453125000000e-01
0.000000000000000000e+00,-1.000000000000000000e+00,7.000000000000000000e+00,-3.000000000000000000e+00,1.000000000000000000e+00,5.000000000000000000e+00,5.000000000000000000e+00,-1.000000000000000000e+00,-2.893676757812500000e-01,1.944580078125000000e-01,6.708374023437500000e-01,6.544799804687500000e-01
7.000000000000000000e+00,4.000000000000000000e+00,0.000000000000000000e+00,4.000000000000000000e+00,4.000000000000000000e+00,-1.000000000000000000e+00,-3.000000000000000000e+00,3.000000000000000000e+00,-2.893676757812500000e-01,1.944580078125000000e-01,6.708374023437500000e-01,6.544799804687500000e-01
-3.000000000000000000e+00,-4.000000000000000000e+00,-4.000000000000000000e+00,0.000000000000000000e+00,0.000000000000000000e+00,2.000000000000000000e+00,1.000000000000000000e+00,-2.000000000000000000e+00,-2.893676757812500000e-01,1.944580078125000000e-01,6.708374023437500000e-01,6.544799804687500000e-01
2.000000000000000000e+00,-6.000000000000000000e+00,-6.000000000000000000e+00,0.000000000000000000e+00,-3.000000000000000000e+00,-7.000000000000000000e+00,8.000000000000000000e+00,1.000000000000000000e+00,-2.893676757812500000e-01,1.944580078125000000e-01,6.708374023437500000e-01,6.544799804687500000e-01
3.000000000000000000e+00,3.000000000000000000e+00,8.000000000000000000e+00,6.000000000000000000e+00,-3.000000000000000000e+00,-1.100000000000000000e+01,8.000000000000000000e+00,-1.000000000000000000e+00,-2.879638671875000000e-01,1.979980468750000000e-01,6.710205078125000000e-01,6.538085937500000000e-01
-2.000000000000000000e+00,5.000000000000000000e+00,-1.000000000000000000e+01,-4.000000000000000000e+00,-2.000000000000000000e+00,-7.000000000000000000e+00,-1.100000000000000000e+01,-6.000000000000000000e+00,-2.879638671875000000e-01,1.979980468750000000e-01,6.710205078125000000e-01,6.538085937500000000e-01
-5.000000000000000000e+00,-1.500000000000000000e+01,0.000000000000000000e+00,-8.000000000000000000e+00,-7.000000000000000000e+00,8.000000000000000000e+00,-1.900000000000000000e+01,-6.000000000000000000e+00,-2.879638671875000000e-01,1.979980468750000000e-01,6.710205078125000000e-01,6.538085937500000000e-01
-3.000000000000000000e+00,5.000000000000000000e+00,3.000000000000000000e+00,-6.000000000000000000e+00,-4.000000000000000000e+00,1.000000000000000000e+01,4.000000000000000000e+00,0.000000000000000000e+00,-2.879638671875000000e-01,1.979980468750000000e-01,6.710205078125000000e-01,6.538085937500000000e-01
-5.000000000000000000e+00,-1.400000000000000000e+01,-2.400000000000000000e+01,-1.200000000000000000e+01,-5.000000000000000000e+00,-1.700000000000000000e+01,-9.000000000000000000e+00,-1.000000000000000000e+00,-2.882080078125000000e-01,1.989135742187500000e-01,6.719970703125000000e-01,6.524658203125000000e-01
1.000000000000000000e+00,1.700000000000000000e+01,1.500000000000000000e+01,-3.000000000000000000e+00,-1.000000000000000000e+01,-2.800000000000000000e+01,-1.300000000000000000e+01,-2.000000000000000000e+00,-2.882080078125000000e-01,1.989135742187500000e-01,6.719970703125000000e-01,6.524658203125000000e-01
-4.000000000000000000e+00,-5.000000000000000000e+00,-2.500000000000000000e+01,1.800000000000000000e+01,1.200000000000000000e+01,4.400000000000000000e+01,2.500000000000000000e+01,5.000000000000000000e+00,-2.882080078125000000e-01,1.989135742187500000e-01,6.719970703125000000e-01,6.524658203125000000e-01
-2.000000000000000000e+00,-5.000000000000000000e+00,-8.000000000000000000e+00,-1.300000000000000000e+01,-4.000000000000000000e+00,-2.000000000000000000e+01,-2.700000000000000000e+01,-6.000000000000000000e+00,-2.882080078125000000e-01,1.989135742187500000e-01,6.719970703125000000e-01,6.524658203125000000e-01
0.000000000000000000e+00,5.000000000000000000e+00,1.000000000000000000e+00,3.000000000000000000e+00,0.000000000000000000e+00,0.000000000000000000e+00,8.000000000000000000e+00,9.000000000000000000e+00,-2.906494140625000000e-01,1.960449218750000000e-01,6.728515625000000000e-01,6.513671875000000000e-01
0.000000000000000000e+00,-1.300000000000000000e+01,-2.000000000000000000e+00,-8.000000000000000000e+00,0.000000000000000000e+00,1.100000000000000000e+01,-5.000000000000000000e+00,-3.000000000000000000e+00,-2.906494140625000000e-01,1.960449218750000000e-01,6.728515625000000000e-01,6.513671875000000000e-01
5.000000000000000000e+00,3.000000000000000000e+00,1.000000000000000000e+01,6.000000000000000000e+00,4.000000000000000000e+00,-1.600000000000000000e+01,-1.700000000000000000e+01,0.000000000000000000e+00,-2.906494140625000000e-01,1.960449218750000000e-01,6.728515625000000000e-01,6.513671875000000000e-01
-2.000000000000000000e+00,4.000000000000000000e+00,-1.000000000000000000e+00,2.000000000000000000e+00,-1.000000000000000000e+00,-2.400000000000000000e+01,1.200000000000000000e+01,0.000000000000000000e+00,-2.906494140625000000e-01,1.960449218750000000e-01,6.728515625000000000e-01,6.513671875000000000e-01
-5.000000000000000000e+00,-5.000000000000000000e+00,-1.500000000000000000e+01,-1.300000000000000000e+01,3.000000000000000000e+00,3.300000000000000000e+01,2.700000000000000000e+01,-5.000000000000000000e+00,-2.922363281250000000e-01,1.928100585937500000e-01,6.726074218750000000e-01,6.519165039062500000e-01
2.000000000000000000e+00,-1.000000000000000000e+00,2.300000000000000000e+01,1.500000000000000000e+01,-2.000000000000000000e+00,-2.300000000000000000e+01,-2.600000000000000000e+01,-2.000000000000000000e+00,-2.922363281250000000e-01,1.928100585937500000e-01,6.726074218750000000e-01,6.519165039062500000e-01
-4.000000000000000000e+00,2.000000000000000000e+00,-7.000000000000000000e+00,-4.000000000000000000e+00,-2.000000000000000000e+00,0.000000000000000000e+00,-6.000000000000000000e+00,1.000000000000000000e+00,-2.922363281250000000e-01,1.928100585937500000e-01,6.726074218750000000e-01,6.519165039062500000e-01
-1.000000000000000000e+00,-9.000000000000000000e+00,-1.000000000000000000e+00,-8.000000000000000000e+00,1.000000000000000000e+00,-2.000000000000000000e+00,4.000000000000000000e+00,-3.000000000000000000e+00,-2.922363281250000000e-01,1.928100585937500000e-01,6.726074218750000000e-01,6.519165039062500000e-01
-4.000000000000000000e+00,-9.000000000000000000e+00,2.100000000000000000e+01,1.500000000000000000e+01,-3.000000000000000000e+00,-1.500000000000000000e+01,-5.000000000000000000e+00,-4.000000000000000000e+00,-2.923583984375000000e-01,1.922607421875000000e-01,6.710205078125000000e-01,6.536254882812500000e-01
4.000000000000000000e+00,2.000000000000000000e+01,-1.700000000000000000e+01,-9.000000000000000000e+00,-3.000000000000000000e+00,4.000000000000000000e+00,7.000000000000000000e+00,1.000000000000000000e+00,-2.923583984375000000e-01,1.922607421875000000e-01,6.710205078125000000e-01,6.536254882812500000e-01
-1.000000000000000000e+00,-3.000000000000000000e+00,8.000000000000000000e+00,1.000000000000000000e+00,8.000000000000000000e+00,1.900000000000000000e+01,6.000000000000000000e+00,0.000000000000000000e+00,-2.923583984375000000e-01,1.922607421875000000e-01,6.710205078125000000e-01,6.536254882812500000e-01
-4.000000000000000000e+00,-1.300000000000000000e+01,-3.000000000000000000e+00,-5.000000000000000000e+00,-7.000000000000000000e+00,-2.200000000000000000e+01,-1.100000000000000000e+01,-2.000000000000000000e+00,-2.923583984375000000e-01,1.922607421875000000e-01,6.710205078125000000e-01,6.536254882812500000e-01
2.000000000000000000e+00,2.000000000000000000e+00,-1.300000000000000000e+01,-1.300000000000000000e+01,-3.000000000000000000e+00,-3.000000000000000000e+00,-1.800000000000000000e+01,-3.000000000000000000e+00,-2.922973632812500000e-01,1.932983398437500000e-01,6.692504882812500000e-01,6.551513671875000000e-01
-3.000000000000000000e+00,-2.300000000000000000e+01,5.000000000000000000e+00,7.000000000000000000e+00,3.000000000000000000e+00,1.000000000000000000e+00,9.000000000000000000e+00,0.000000000000000000e+00,-2.922973632812500000e-01,1.932983398437500000e-01,6.692504882812500000e-01,6.551513671875000000e-01
0.000000000000000000e+00,1.600000000000000000e+01,0.000000000000000000e+00,-1.600000000000000000e+01,-1.200000000000000000e+01,-9.000000000000000000e+00,-2.000000000000000000e+00,1.000000000000000000e+00,-2.922973632812500000e-01,1.932983398437500000e-01,6.692504882812500000e-01,6.551513671875000000e-01
2.000000000000000000e+00,1.000000000000000000e+01,3.000000000000000000e+00,5.000000000000000000e+00,3.000000000000000000e+00,8.000000000000000000e+00,1.300000000000000000e+01,0.000000000000000000e+00,-2.922973632812500000e-01,1.932983398437500000e-01,6.692504882812500000e-01,6.551513671875000000e-01
2.000000000000000000e+00,1.700000000000000000e+01,9.000000000000000000e+00,4.000000000000000000e+00,1.200000000000000000e+01,-1.000000000000000000e+00,-3.000000000000000000e+00,2.000000000000000000e+00,-2.918090820312500000e-01,1.939697265625000000e-01,6.681518554687500000e-01,6.563110351562500000e-01
1.000000000000000000e+00,-5.000000000000000000e+00,-1.500000000000000000e+01,1.400000000000000000e+01,2.000000000000000000e+00,1.400000000000000000e+01,2.100000000000000000e+01,-2.000000000000000000e+00,-2.918090820312500000e-01,1.939697265625000000e-01,6.681518554687500000e-01,6.563110351562500000e-01
-5.000000000000000000e+00,-1.500000000000000000e+01,2.000000000000000000e+00,1.000000000000000000e+00,1.000000000000000000e+00,5.000000000000000000e+00,-2.800000000000000000e+01,-4.000000000000000000e+00,-2.916259765625000000e-01,1.928100585937500000e-01,6.674804687500000000e-01,6.573486328125000000e-01
-3.000000000000000000e+00,-4.000000000000000000e+00,-9.000000000000000000e+00,-3.000000000000000000e+00,-1.300000000000000000e+01,-8.000000000000000000e+00,-7.000000000000000000e+00,-1.100000000000000000e+01,-2.916259765625000000e-01,1.928100585937500000e-01,6.674804687500000000e-01,6.573486328125000000e-01
-3.000000000000000000e+00,-2.000000000000000000e+00,3.000000000000000000e+00,-9.000000000000000000e+00,-4.000000000000000000e+00,-4.000000000000000000e+00,9.000000000000000000e+00,1.100000000000000000e+01,-2.916259765625000000e-01,1.928100585937500000e-01,6.674804687500000000e-01,6.573486328125000000e-01
2.000000000000000000e+00,-5.000000000000000000e+00,-1.000000000000000000e+00,-4.000000000000000000e+00,5.000000000000000000e+00,3.000000000000000000e+00,5.000000000000000000e+00,2.000000000000000000e+00,-2.916259765625000000e-01,1.928100585937500000e-01,6.674804687500000000e-01,6.573486328125000000e-01
5.000000000000000000e+00,7.000000000000000000e+00,1.000000000000000000e+01,-2.000000000000000000e+00,0.000000000000000000e+00,1.600000000000000000e+01,-1.000000000000000000e+00,-5.000000000000000000e+00,-2.916259765625000000e-01,1.928100585937500000e-01,6.674804687500000000e-01,6.573486328125000000e-01
-2.000000000000000000e+00,-5.000000000000000000e+00,-1.400000000000000000e+01,7.000000000000000000e+00,6.000000000000000000e+00,2.100000000000000000e+01,1.200000000000000000e+01,8.000000000000000000e+00,-2.916259765625000000e-01,1.928100585937500000e-01,6.674804687500000000e-01,6.573486328125000000e-01
