0.000000000000000000e+00,4.000000000000000000e+00,-3.000000000000000000e+00,5.700000000000000000e+01,3.000000000000000000e+00,-1.000000000000000000e+00,-1.500000000000000000e+01,-6.000000000000000000e+00,1.953125000000000000e-02,5.136718750000000000e-01,-8.947753906250000000e-02,8.530273437500000000e-01
-1.000000000000000000e+00,0.000000000000000000e+00,1.500000000000000000e+01,1.200000000000000000e+01,3.000000000000000000e+00,-2.000000000000000000e+00,6.000000000000000000e+00,-1.000000000000000000e+00,1.953125000000000000e-02,5.136718750000000000e-01,-8.947753906250000000e-02,8.530273437500000000e-01
0.000000000000000000e+00,-1.000000000000000000e+00,1.100000000000000000e+01,-1.000000000000000000e+00,-6.000000000000000000e+00,-1.000000000000000000e+00,-2.000000000000000000e+00,1.000000000000000000e+00,1.953125000000000000e-02,5.136718750000000000e-01,-8.947753906250000000e-02,8.530273437500000000e-01
-1.000000000000000000e+00,-2.000000000000000000e+00,2.000000000000000000e+00,-1.000000000000000000e+01,-1.000000000000000000e+01,-4.000000000000000000e+00,2.000000000000000000e+00,0.000000000000000000e+00,1.953125000000000000e-02,5.136718750000000000e-01,-8.947753906250000000e-02,8.530273437500000000e-01
-1.000000000000000000e+00,-1.000000000000000000e+00,-1.500000000000000000e+01,-2.300000000000000000e+01,-5.000000000000000000e+00,-4.000000000000000000e+00,-4.000000000000000000e+00,-1.000000000000000000e+00,1.898193359375000000e-02,5.134887695312500000e-01,-9.008789062500000000e-02,8.530883789062500000e-01
-2.000000000000000000e+00,-2.000000000000000000e+00,1.300000000000000000e+01,-1.400000000000000000e+01,-4.000000000000000000e+00,-1.000000000000000000e+00,-2.000000000000000000e+00,-1.000000000000000000e+00,1.898193359375000000e-02,5.134887695312500000e-01,-9.008789062500000000e-02,8.530883789062500000e-01
-3.000000000000000000e+00,-5.000000000000000000e+00,-3.600000000000000000e+01,6.000000000000000000e+00,-9.000000000000000000e+00,-4.000000000000000000e+00,-5.000000000000000000e+00,-4.000000000000000000e+00,1.898193359375000000e-02,5.134887695312500000e-01,-9.008789062500000000e-02,8.530883789062500000e-01
-1.000000000000000000e+00,2.000000000000000000e+00,2.300000000000000000e+01,1.500000000000000000e+01,-1.000000000000000000e+00,1.000000000000000000e+00,-2.000000000000000000e+00,-4.000000000000000000e+00,1.898193359375000000e-02,5.134887695312500000e-01,-9.008789062500000000e-02,8.530883789062500000e-01
-1.000000000000000000e+00,-3.000000000000000000e+00,-1.600000000000000000e+01,-2.200000000000000000e+01,3.000000000000000000e+00,3.000000000000000000e+00,1.000000000000000000e+00,-1.000000000000000000e+00,1.751708984375000000e-02,5.131225585937500000e-01,-9.014892578125000000e-02,8.533325195312500000e-01
1.000000000000000000e+00,2.000000000000000000e+00,3.000000000000000000e+00,7.000000000000000000e+00,6.000000000000000000e+00,3.000000000000000000e+00,3.000000000000000000e+00,4.000000000000000000e+00,1.751708984375000000e-02,5.131225585937500000e-01,-9.014892578125000000e-02,8.533325195312500000e-01
-3.000000000000000000e+00,-4.000000000000000000e+00,1.200000000000000000e+01,-2.100000000000000000e+01,-1.200000000000000000e+01,-3.000000000000000000e+00,-2.000000000000000000e+00,-2.000000000000000000e+00,1.751708984375000000e-02,5.131225585937500000e-01,-9.014892578125000000e-02,8.533325195312500000e-01
0.000000000000000000e+00,2.000000000000000000e+00,1.100000000000000000e+01,2.200000000000000000e+01,7.000000000000000000e+00,-2.000000000000000000e+00,-5.000000000000000000e+00,-3.000000000000000000e+00,1.751708984375000000e-02,5.131225585937500000e-01,-9.014892578125000000e-02,8.533325195312500000e-01
-2.000000000000000000e+00,-4.000000000000000000e+00,-9.000000000000000000e+00,-1.000000000000000000e+01,-1.200000000000000000e+01,-1.000000000000000000e+01,-2.000000000000000000e+00,0.000000000000000000e+00,1.611328125000000000e-02,5.126953125000000000e-01,-9.039306640625000000e-02,8.536376953125000000e-01
-2.000000000000000000e+00,-1.000000000000000000e+00,-1.100000000000000000e+01,-3.800000000000000000e+01,2.000000000000000000e+00,1.300000000000000000e+01,-2.000000000000000000e+00,-2.000000000000000000e+00,1.611328125000000000e-02,5.126953125000000000e-01,-9.039306640625000000e-02,8.536376953125000000e-01
1.000000000000000000e+00,4.000000000000000000e+00,1.300000000000000000e+01,5.100000000000000000e+01,-9.000000000000000000e+00,-2.000000000000000000e+00,0.000000000000000000e+00,-1.000000000000000000e+00,1.611328125000000000e-02,5.126953125000000000e-01,-9.039306640625000000e-02,8.536376953125000000e-01
-1.000000000000000000e+00,-3.000000000000000000e+00,1.000000000000000000e+01,1.400000000000000000e+01,-5.000000000000000000e+00,0.000000000000000000e+00,0.000000000000000000e+00,-1.000000000000000000e+00,1.611328125000000000e-02,5.126953125000000000e-01,-9.039306640625000000e-02,8.536376953125000000e-01
-1.000000000000000000e+00,2.000000000000000000e+00,-5.000000000000000000e+00,-2.000000000000000000e+00,2.000000000000000000e+00,1.000000000000000000e+00,-1.000000000000000000e+00,-1.000000000000000000e+00,1.538085937500000000e-02,5.119628906250000000e-01,-9.088134765625000000e-02,8.540039062500000000e-01
0.000000000000000000e+00,2.000000000000000000e+00,-1.300000000000000000e+01,-5.000000000000000000e+00,-2.000000000000000000e+00,-6.000000000000000000e+00,-4.000000000000000000e+00,-1.000000000000000000e+00,1.538085937500000000e-02,5.119628906250000000e-01,-9.088134765625000000e-02,8.540039062500000000e-01
2.000000000000000000e+00,8.000000000000000000e+00,3.600000000000000000e+01,-1.000000000000000000e+00,-7.000000000000000000e+00,-1.000000000000000000e+00,0.000000000000000000e+00,1.000000000000000000e+00,1.538085937500000000e-02,5.119628906250000000e-01,-9.088134765625000000e-02,8.540039062500000000e-01
-9.000000000000000000e+00,-2.100000000000000000e+01,-5.300000000000000000e+01,-2.400000000000000000e+01,-7.000000000000000000e+00,-2.000000000000000000e+00,0.000000000000000000e+00,-2.000000000000000000e+00,1.538085937500000000e-02,5.119628906250000000e-01,-9.088134765625000000e-02,8.540039062500000000e-01
2.000000000000000000e+00,2.000000000000000000e+00,4.000000000000000000e+00,-1.000000000000000000e+00,-6.000000000000000000e+00,-2.000000000000000000e+00,1.000000000000000000e+00,1.000000000000000000e+00,1.501464843750000000e-02,5.110473632812500000e-01,-9.124755859375000000e-02,8.544921875000000000e-01
-2.000000000000000000e+00,-2.000000000000000000e+00,-1.000000000000000000e+00,-1.500000000000000000e+01,-7.000000000000000000e+00,-8.000000000000000000e+00,-4.000000000000000000e+00,-2.000000000000000000e+00,1.501464843750000000e-02,5.110473632812500000e-01,-9.124755859375000000e-02,8.544921875000000000e-01
-1.000000000000000000e+00,1.000000000000000000e+00,1.000000000000000000e+01,1.200000000000000000e+01,1.300000000000000000e+01,5.000000000000000000e+00,4.000000000000000000e+00,-1.000000000000000000e+00,1.501464843750000000e-02,5.110473632812500000e-01,-9.124755859375000000e-02,8.544921875000000000e-01
1.000000000000000000e+00,3.000000000000000000e+00,-2.400000000000000000e+01,-1.200000000000000000e+01,2.000000000000000000e+00,2.000000000000000000e+00,0.000000000000000000e+00,1.000000000000000000e+00,1.501464843750000000e-02,5.110473632812500000e-01,-9.124755859375000000e-02,8.544921875000000000e-01
-2.000000000000000000e+00,-4.000000000000000000e+00,2.000000000000000000e+01,-4.000000000000000000e+00,-1.000000000000000000e+00,-1.000000000000000000e+00,-2.000000000000000000e+00,-2.000000000000000000e+00,1.434326171875000000e-02,5.103759765625000000e-01,-9.149169921875000000e-02,8.549194335937500000e-01
-3.000000000000000000e+00,-6.000000000000000000e+00,-1.300000000000000000e+01,7.000000000000000000e+00,4.000000000000000000e+00,-2.000000000000000000e+00,0.000000000000000000e+00,2.000000000000000000e+00,1.434326171875000000e-02,5.103759765625000000e-01,-9.149169921875000000e-02,8.549194335937500000e-01
4.000000000000000000e+00,6.000000000000000000e+00,3.400000000000000000e+01,-1.200000000000000000e+01,-2.000000000000000000e+00,-4.000000000000000000e+00,-3.000000000000000000e+00,2.000000000000000000e+00,1.434326171875000000e-02,5.103759765625000000e-01,-9.149169921875000000e-02,8.549194335937500000e-01
0.000000000000000000e+00,2.000000000000000000e+00,1.200000000000000000e+01,-1.000000000000000000e+00,0.000000000000000000e+00,2.000000000000000000e+00,2.000000000000000000e+00,0.000000000000000000e+00,1.434326171875000000e-02,5.103759765625000000e-01,-9.149169921875000000e-02,8.549194335937500000e-01
-4.000000000000000000e+00,-3.000000000000000000e+00,-1.500000000000000000e+01,-6.000000000000000000e+00,-1.000000000000000000e+00,-1.000000000000000000e+00,-1.000000000000000000e+00,-6.000000000000000000e+00,1.391601562500000000e-02,5.095214843750000000e-01,-9.149169921875000000e-02,8.554077148437500000e-01
-1.000000000000000000e+00,1.000000000000000000e+00,5.000000000000000000e+00,4.800000000000000000e+01,-6.000000000000000000e+00,-6.000000000000000000e+00,-1.700000000000000000e+01,-6.000000000000000000e+00,1.391601562500000000e-02,5.095214843750000000e-01,-9.149169921875000000e-02,8.554077148437500000e-01
5.000000000000000000e+00,0.000000000000000000e+00,0.000000000000000000e+00,0.000000000000000000e+00,2.400000000000000000e+01,6.000000000000000000e+00,1.300000000000000000e+01,7.000000000000000000e+00,1.391601562500000000e-02,5.095214843750000000e-01,-9.149169921875000000e-02,8.554077148437500000e-01
-4.000000000000000000e+00,1.000000000000000000e+00,2.100000000000000000e+01,1.000000000000000000e+01,0.000000000000000000e+00,-3.000000000000000000e+00,-4.000000000000000000e+00,-1.000000000000000000e+00,1.391601562500000000e-02,5.095214843750000000e-01,-9.149169921875000000e-02,8.554077148437500000e-01
0.000000000000000000e+00,-2.000000000000000000e+00,-2.700000000000000000e+01,-7.000000000000000000e+00,6.000000000000000000e+00,3.000000000000000000e+00,0.000000000000000000e+00,-1.000000000000000000e+00,1.348876953125000000e-02,5.086669921875000000e-01,-9.155273437500000000e-02,8.559570312500000000e-01
1.000000000000000000e+00,1.000000000000000000e+00,-3.000000000000000000e+00,-1.300000000000000000e+01,-5.000000000000000000e+00,-2.000000000000000000e+00,2.000000000000000000e+00,0.000000000000000000e+00,1.348876953125000000e-02,5.086669921875000000e-01,-9.155273437500000000e-02,8.559570312500000000e-01
-7.000000000000000000e+00,-9.000000000000000000e+00,-9.000000000000000000e+00,-5.700000000000000000e+01,-3.200000000000000000e+01,-1.100000000000000000e+01,-8.000000000000000000e+00,-5.000000000000000000e+00,1.348876953125000000e-02,5.086669921875000000e-01,-9.155273437500000000e-02,8.559570312500000000e-01
4.000000000000000000e+00,5.000000000000000000e+00,1.400000000000000000e+01,9.300000000000000000e+01,4.800000000000000000e+01,1.000000000000000000e+01,2.000000000000000000e+00,0.000000000000000000e+00,1.348876953125000000e-02,5.086669921875000000e-01,-9.155273437500000000e-02,8.559570312500000000e-01
-4.000000000000000000e+00,-1.000000000000000000e+00,3.000000000000000000e+00,-1.800000000000000000e+01,-3.000000000000000000e+00,3.000000000000000000e+00,2.000000000000000000e+00,0.000000000000000000e+00,1.214599609375000000e-02,5.076904296875000000e-01,-9.112548828125000000e-02,8.565673828125000000e-01
1.000000000000000000e+00,3.000000000000000000e+00,3.400000000000000000e+01,1.000000000000000000e+00,7.000000000000000000e+00,3.000000000000000000e+00,1.000000000000000000e+00,0.000000000000000000e+00,1.214599609375000000e-02,5.076904296875000000e-01,-9.112548828125000000e-02,8.565673828125000000e-01
-4.000000000000000000e+00,-7.000000000000000000e+00,-3.600000000000000000e+01,9.000000000000000000e+00,-3.000000000000000000e+00,-2.000000000000000000e+00,-2.000000000000000000e+00,-4.000000000000000000e+00,1.214599609375000000e-02,5.076904296875000000e-01,-9.112548828125000000e-02,8.565673828125000000e-01
0.000000000000000000e+00,0.000000000000000000e+00,-3.000000000000000000e+00,-2.500000000000000000e+01,-1.600000000000000000e+01,-4.000000000000000000e+00,2.000000000000000000e+00,2.000000000000000000e+00,1.214599609375000000e-02,5.076904296875000000e-01,-9.112548828125000000e-02,8.565673828125000000e-01
-5.000000000000000000e+00,-6.000000000000000000e+00,2.100000000000000000e+01,4.000000000000000000e+00,1.000000000000000000e+00,-4.000000000000000000e+00,-7.000000000000000000e+00,-5.000000000000000000e+00,1.110839843750000000e-02,5.065917968750000000e-01,-9.124755859375000000e-02,8.572387695312500000e-01
-3.000000000000000000e+00,-4.000000000000000000e+00,-8.000000000000000000e+00,-3.400000000000000000e+01,-5.000000000000000000e+00,-1.000000000000000000e+00,1.000000000000000000e+00,-1.000000000000000000e+00,1.110839843750000000e-02,5.065917968750000000e-01,-9.124755859375000000e-02,8.572387695312500000e-01
2.000000000000000000e+00,1.000000000000000000e+00,-5.000000000000000000e+00,4.900000000000000000e+01,1.700000000000000000e+01,4.000000000000000000e+00,3.000000000000000000e+00,0.000000000000000000e+00,1.110839843750000000e-02,5.065917968750000000e-01,-9.124755859375000000e-02,8.572387695312500000e-01
-1.000000000000000000e+00,-5.000000000000000000e+00,-3.000000000000000000e+01,-3.000000000000000000e+01,-1.500000000000000000e+01,-5.000000000000000000e+00,-3.000000000000000000e+00,-2.000000000000000000e+00,1.110839843750000000e-02,5.065917968750000000e-01,-9.124755859375000000e-02,8.572387695312500000e-01
1.000000000000000000e+00,1.000000000000000000e+00,-6.000000000000000000e+00,1.800000000000000000e+01,5.000000000000000000e+00,-1.000000000000000000e+00,2.000000000000000000e+00,2.000000000000000000e+00,1.147460937500000000e-02,5.052490234375000000e-01,-9.191894531250000000e-02,8.579711914062500000e-01
-1.000000000000000000e+00,-5.000000000000000000e+00,-1.300000000000000000e+01,-1.200000000000000000e+01,-7.000000000000000000e+00,-2.000000000000000000e+00,-1.000000000000000000e+00,2.000000000000000000e+00,1.147460937500000000e-02,5.052490234375000000e-01,-9.191894531250000000e-02,8.579711914062500000e-01
-2.000000000000000000e+00,-2.000000000000000000e+00,8.000000000000000000e+00,-2.700000000000000000e+01,-9.000000000000000000e+00,2.000000000000000000e+00,-3.000000000000000000e+00,-3.000000000000000000e+00,1.147460937500000000e-02,5.052490234375000000e-01,-9.191894531250000000e-02,8.579711914062500000e-01
-2.000000000000000000e+00,-2.000000000000000000e+00,1.000000000000000000e+01,1.000000000000000000e+01,9.000000000000000000e+00,-1.000000000000000000e+00,3.000000000000000000e+00,0.000000000000000000e+00,1.147460937500000000e-02,5.052490234375000000e-01,-9.191894531250000000e-02,8.579711914062500000e-01
-1.000000000000000000e+00,0.000000000000000000e+00,-4.000000000000000000e+00,-4.000000000000000000e+01,-3.400000000000000000e+01,-1.200000000000000000e+01,-1.100000000000000000e+01,-5.000000000000000000e+00,1.159667968750000000e-02,5.041503906250000000e-01,-9.210205078125000000e-02,8.585815429687500000e-01
2.000000000000000000e+00,2.000000000000000000e+00,2.000000000000000000e+00,5.400000000000000000e+01,4.300000000000000000e+01,1.000000000000000000e+01,2.000000000000000000e+00,2.000000000000000000e+00,1.159667968750000000e-02,5.041503906250000000e-01,-9.210205078125000000e-02,8.585815429687500000e-01
-3.000000000000000000e+00,1.000000000000000000e+00,-3.000000000000000000e+00,-4.000000000000000000e+00,-1.000000000000000000e+00,-2.000000000000000000e+00,-3.000000000000000000e+00,-2.000000000000000000e+00,1.159667968750000000e-02,5.041503906250000000e-01,-9.210205078125000000e-02,8.585815429687500000e-01
1.000000000000000000e+00,4.000000000000000000e+00,1.300000000000000000e+01,1.300000000000000000e+01,-1.600000000000000000e+01,-5.000000000000000000e+00,1.000000000000000000e+00,0.000000000000000000e+00,1.159667968750000000e-02,5.041503906250000000e-01,-9.210205078125000000e-02,8.585815429687500000e-01
3.000000000000000000e+00,5.000000000000000000e+00,1.500000000000000000e+01,1.400000000000000000e+01,1.200000000000000000e+01,6.000000000000000000e+00,8.000000000000000000e+00,5.000000000000000000e+00,1.153564453125000000e-02,5.040283203125000000e-01,-9.234619140625000000e-02,8.586425781250000000e-01
-6.000000000000000000e+00,-1.400000000000000000e+01,-3.600000000000000000e+01,-3.500000000000000000e+01,-2.600000000000000000e+01,-8.000000000000000000e+00,-3.000000000000000000e+00,-5.000000000000000000e+00,1.153564453125000000e-02,5.040283203125000000e-01,-9.234619140625000000e-02,8.586425781250000000e-01
-4.000000000000000000e+00,1.000000000000000000e+00,1.200000000000000000e+01,8.000000000000000000e+00,3.000000000000000000e+00,-1.000000000000000000e+00,-5.000000000000000000e+00,-4.000000000000000000e+00,1.153564453125000000e-02,5.040283203125000000e-01,-9.234619140625000000e-02,8.586425781250000000e-01
2.000000000000000000e+00,3.000000000000000000e+00,2.000000000000000000e+00,-2.200000000000000000e+01,-1.000000000000000000e+01,-3.000000000000000000e+00,-4.000000000000000000e+00,1.000000000000000000e+00,1.153564453125000000e-02,5.040283203125000000e-01,-9.234619140625000000e-02,8.586425781250000000e-01
0.000000000000000000e+00,-6.000000000000000000e+00,-2.600000000000000000e+01,8.000000000000000000e+00,-1.300000000000000000e+01,-3.000000000000000000e+00,1.000000000000000000e+00,-3.000000000000000000e+00,1.165771484375000000e-02,5.042114257812500000e-01,-9.277343750000000000e-02,8.584594726562500000e-01
-1.000000000000000000e+00,4.000000000000000000e+00,1.300000000000000000e+01,5.000000000000000000e+00,3.000000000000000000e+00,2.000000000000000000e+00,0.000000000000000000e+00,-4.000000000000000000e+00,1.165771484375000000e-02,5.042114257812500000e-01,-9.277343750000000000e-02,8.584594726562500000e-01
4.000000000000000000e+00,1.000000000000000000e+00,-7.000000000000000000e+00,-2.000000000000000000e+00,5.000000000000000000e+00,2.000000000000000000e+00,2.000000000000000000e+00,2.000000000000000000e+00,1.165771484375000000e-02,5.042114257812500000e-01,-9.277343750000000000e-02,8.584594726562500000e-01
1.000000000000000000e+00,1.000000000000000000e+00,1.200000000000000000e+01,-1.600000000000000000e+01,-9.000000000000000000e+00,-2.000000000000000000e+00,-2.000000000000000000e+00,2.000000000000000000e+00,1.165771484375000000e-02,5.042114257812500000e-01,-9.277343750000000000e-02,8.584594726562500000e-01
1.000000000000000000e+00,2.000000000000000000e+00,7.000000000000000000e+00,0.000000000000000000e+00,4.000000000000000000e+00,0.000000000000000000e+00,-3.000000000000000000e+00,1.000000000000000000e+00,1.116943359375000000e-02,5.046997070312500000e-01,-9.301757812500000000e-02,8.581542968750000000e-01
0.000000000000000000e+00,0.000000000000000000e+00,-2.300000000000000000e+01,1.200000000000000000e+01,0.000000000000000000e+00,-9.000000000000000000e+00,1.000000000000000000e+00,-2.000000000000000000e+00,1.116943359375000000e-02,5.046997070312500000e-01,-9.301757812500000000e-02,8.581542968750000000e-01
-3.000000000000000000e+00,-4.000000000000000000e+00,4.000000000000000000e+00,-2.700000000000000000e+01,-1.500000000000000000e+01,4.000000000000000000e+00,0.000000000000000000e+00,1.000000000000000000e+00,1.116943359375000000e-02,5.046997070312500000e-01,-9.301757812500000000e-02,8.581542968750000000e-01
-1.000000000000000000e+00,2.000000000000000000e+00,1.400000000000000000e+01,-1.200000000000000000e+01,-7.000000000000000000e+00,0.000000000000000000e+00,1.000000000000000000e+00,-3.000000000000000000e+00,1.116943359375000000e-02,5.046997070312500000e-01,-9.301757812500000000e-02,8.581542968750000000e-01
0.000000000000000000e+00,-1.000000000000000000e+00,1.200000000000000000e+01,2.900000000000000000e+01,2.900000000000000000e+01,1.100000000000000000e+01,7.000000000000000000e+00,2.000000000000000000e+00,9.643554687500000000e-03,5.052490234375000000e-01,-9.283447265625000000e-02,8.578491210937500000e-01
-2.000000000000000000e+00,-2.000000000000000000e+00,-1.400000000000000000e+01,-2.100000000000000000e+01,-1.500000000000000000e+01,-8.000000000000000000e+00,-1.000000000000000000e+01,-4.000000000000000000e+00,9.643554687500000000e-03,5.052490234375000000e-01,-9.283447265625000000e-02,8.578491210937500000e-01
3.000000000000000000e+00,2.000000000000000000e+00,-5.000000000000000000e+00,1.200000000000000000e+01,1.400000000000000000e+01,-2.000000000000000000e+00,-2.000000000000000000e+00,1.000000000000000000e+00,9.643554687500000000e-03,5.052490234375000000e-01,-9.283447265625000000e-02,8.578491210937500000e-01
2.000000000000000000e+00,1.000000000000000000e+00,8.000000000000000000e+00,2.000000000000000000e+00,-5.000000000000000000e+00,-3.000000000000000000e+00,-2.000000000000000000e+00,-1.000000000000000000e+00,9.643554687500000000e-03,5.052490234375000000e-01,-9.283447265625000000e-02,8.578491210937500000e-01
-2.000000000000000000e+00,-3.000000000000000000e+00,3.000000000000000000e+00,-1.300000000000000000e+01,-1.100000000000000000e+01,-1.000000000000000000e+00,1.000000000000000000e+00,-4.000000000000000000e+00,7.690429687500000000e-03,5.060424804687500000e-01,-9.277343750000000000e-02,8.574218750000000000e-01
-1.000000000000000000e+00,0.000000000000000000e+00,-4.000000000000000000e+00,-1.700000000000000000e+01,6.000000000000000000e+00,0.000000000000000000e+00,2.000000000000000000e+00,1.000000000000000000e+00,7.690429687500000000e-03,5.060424804687500000e-01,-9.277343750000000000e-02,8.574218750000000000e-01
-3.000000000000000000e+00,-4.000000000000000000e+00,-7.000000000000000000e+00,-1.800000000000000000e+01,-1.700000000000000000e+01,-6.000000000000000000e+00,-4.000000000000000000e+00,-2.000000000000000000e+00,7.690429687500000000e-03,5.060424804687500000e-01,-9.277343750000000000e-02,8.574218750000000000e-01
-3.000000000000000000e+00,-3.000000000000000000e+00,1.600000000000000000e+01,6.000000000000000000e+00,5.000000000000000000e+00,3.000000000000000000e+00,-3.000000000000000000e+00,-5.000000000000000000e+00,7.690429687500000000e-03,5.060424804687500000e-01,-9.277343750000000000e-02,8.574218750000000000e-01
1.000000000000000000e+00,1.000000000000000000e+00,7.000000000000000000e+00,2.800000000000000000e+01,3.500000000000000000e+01,5.000000000000000000e+00,3.000000000000000000e+00,2.000000000000000000e+00,6.896972656250000000e-03,5.067749023437500000e-01,-9.307861328125000000e-02,8.569335937500000000e-01
-3.000000000000000000e+00,-1.000000000000000000e+00,-6.000000000000000000e+00,1.500000000000000000e+01,-8.000000000000000000e+00,-3.000000000000000000e+00,-2.000000000000000000e+00,-3.000000000000000000e+00,6.896972656250000000e-03,5.067749023437500000e-01,-9.307861328125000000e-02,8.569335937500000000e-01
-1.000000000000000000e+00,1.000000000000000000e+00,-1.000000000000000000e+01,-2.500000000000000000e+01,-2.000000000000000000e+00,2.000000000000000000e+00,0.000000000000000000e+00,-2.000000000000000000e+00,6.896972656250000000e-03,5.067749023437500000e-01,-9.307861328125000000e-02,8.569335937500000000e-01
0.000000000000000000e+00,0.000000000000000000e+00,5.000000000000000000e+00,7.000000000000000000e+00,6.000000000000000000e+00,1.000000000000000000e+00,2.000000000000000000e+00,0.000000000000000000e+00,6.896972656250000000e-03,5.067749023437500000e-01,-9.307861328125000000e-02,8.569335937500000000e-01
-1.000000000000000000e+00,-2.000000000000000000e+00,2.000000000000000000e+00,-9.000000000000000000e+00,-1.200000000000000000e+01,-5.000000000000000000e+00,-4.000000000000000000e+00,0.000000000000000000e+00,6.713867187500000000e-03,5.069580078125000000e-01,-9.368896484375000000e-02,8.568115234375000000e-01
3.000000000000000000e+00,0.000000000000000000e+00,-1.000000000000000000e+01,1.000000000000000000e+00,6.000000000000000000e+00,5.000000000000000000e+00,3.000000000000000000e+00,3.000000000000000000e+00,6.713867187500000000e-03,5.069580078125000000e-01,-9.368896484375000000e-02,8.568115234375000000e-01
-3.000000000000000000e+00,-1.000000000000000000e+00,-1.500000000000000000e+01,3.000000000000000000e+00,0.000000000000000000e+00,-4.000000000000000000e+00,-4.000000000000000000e+00,-5.000000000000000000e+00,6.713867187500000000e-03,5.069580078125000000e-01,-9.368896484375000000e-02,8.568115234375000000e-01
-1.000000000000000000e+00,-2.000000000000000000e+00,-7.000000000000000000e+00,-1.800000000000000000e+01,-1.400000000000000000e+01,-8.000000000000000000e+00,-1.100000000000000000e+01,-6.000000000000000000e+00,6.713867187500000000e-03,5.069580078125000000e-01,-9.368896484375000000e-02,8.568115234375000000e-01
1.000000000000000000e+00,3.000000000000000000e+00,-4.000000000000000000e+00,-6.000000000000000000e+00,1.000000000000000000e+00,-1.000000000000000000e+00,4.000000000000000000e+00,3.000000000000000000e+00,6.774902343750000000e-03,5.067138671875000000e-01,-9.423828125000000000e-02,8.568725585937500000e-01
-3.000000000000000000e+00,-1.000000000000000000e+00,1.700000000000000000e+01,1.700000000000000000e+01,5.000000000000000000e+00,7.000000000000000000e+00,7.000000000000000000e+00,0.000000000000000000e+00,6.774902343750000000e-03,5.067138671875000000e-01,-9.423828125000000000e-02,8.568725585937500000e-01
0.000000000000000000e+00,-1.000000000000000000e+00,2.200000000000000000e+01,-4.000000000000000000e+00,-6.000000000000000000e+00,-2.000000000000000000e+00,2.000000000000000000e+00,0.000000000000000000e+00,6.774902343750000000e-03,5.067138671875000000e-01,-9.423828125000000000e-02,8.568725585937500000e-01
-4.000000000000000000e+00,-3.000000000000000000e+00,-2.900000000000000000e+01,3.000000000000000000e+00,2.000000000000000000e+00,1.000000000000000000e+00,-6.000000000000000000e+00,-3.000000000000000000e+00,6.774902343750000000e-03,5.067138671875000000e-01,-9.423828125000000000e-02,8.568725585937500000e-01
0.000000000000000000e+00,-1.000000000000000000e+00,-2.000000000000000000e+01,-3.000000000000000000e+01,-4.000000000000000000e+00,-2.000000000000000000e+00,-4.000000000000000000e+00,-2.000000000000000000e+00,7.080078125000000000e-03,5.061645507812500000e-01,-9.429931640625000000e-02,8.571777343750000000e-01
-1.000000000000000000e+00,-2.000000000000000000e+00,4.000000000000000000e+00,2.200000000000000000e+01,2.000000000000000000e+00,-5.000000000000000000e+00,-3.000000000000000000e+00,-3.000000000000000000e+00,7.080078125000000000e-03,5.061645507812500000e-01,-9.429931640625000000e-02,8.571777343750000000e-01
-2.000000000000000000e+00,1.000000000000000000e+00,8.000000000000000000e+00,-2.400000000000000000e+01,-2.100000000000000000e+01,-7.000000000000000000e+00,-7.000000000000000000e+00,-2.000000000000000000e+00,7.080078125000000000e-03,5.061645507812500000e-01,-9.429931640625000000e-02,8.571777343750000000e-01
3.000000000000000000e+00,5.000000000000000000e+00,-2.000000000000000000e+00,-3.100000000000000000e+01,-2.000000000000000000e+00,-5.000000000000000000e+00,5.000000000000000000e+00,2.000000000000000000e+00,7.080078125000000000e-03,5.061645507812500000e-01,-9.429931640625000000e-02,8.571777343750000000e-01
3.000000000000000000e+00,0.000000000000000000e+00,1.300000000000000000e+01,3.400000000000000000e+01,2.800000000000000000e+01,2.000000000000000000e+01,8.000000000000000000e+00,3.000000000000000000e+00,6.347656250000000000e-03,5.056152343750000000e-01,-9.368896484375000000e-02,8.576049804687500000e-01
0.000000000000000000e+00,0.000000000000000000e+00,-1.300000000000000000e+01,8.000000000000000000e+00,4.000000000000000000e+00,3.000000000000000000e+00,1.000000000000000000e+00,1.000000000000000000e+00,6.347656250000000000e-03,5.056152343750000000e-01,-9.368896484375000000e-02,8.576049804687500000e-01
-3.000000000000000000e+00,-4.000000000000000000e+00,-9.000000000000000000e+00,-5.000000000000000000e+00,-1.000000000000000000e+00,-2.000000000000000000e+00,-3.000000000000000000e+00,-1.000000000000000000e+00,6.347656250000000000e-03,5.056152343750000000e-01,-9.368896484375000000e-02,8.576049804687500000e-01
-3.000000000000000000e+00,1.000000000000000000e+00,2.900000000000000000e+01,-1.300000000000000000e+01,-5.000000000000000000e+00,-4.000000000000000000e+00,-3.000000000000000000e+00,-2.000000000000000000e+00,6.347656250000000000e-03,5.056152343750000000e-01,-9.368896484375000000e-02,8.576049804687500000e-01
-5.000000000000000000e+00,-6.000000000000000000e+00,-2.600000000000000000e+01,1.100000000000000000e+01,-1.600000000000000000e+01,-1.000000000000000000e+01,-5.000000000000000000e+00,-4.000000000000000000e+00,5.004882812500000000e-03,5.045776367187500000e-01,-9.338378906250000000e-02,8.582153320312500000e-01
0.000000000000000000e+00,2.000000000000000000e+00,2.000000000000000000e+00,-5.300000000000000000e+01,-1.800000000000000000e+01,-2.000000000000000000e+00,2.000000000000000000e+00,1.000000000000000000e+00,5.004882812500000000e-03,5.045776367187500000e-01,-9.338378906250000000e-02,8.582153320312500000e-01
0.000000000000000000e+00,0.000000000000000000e+00,1.000000000000000000e+00,7.700000000000000000e+01,2.200000000000000000e+01,3.000000000000000000e+00,-2.000000000000000000e+00,-2.000000000000000000e+00,5.004882812500000000e-03,5.045776367187500000e-01,-9.338378906250000000e-02,8.582153320312500000e-01
-2.000000000000000000e+00,-3.000000000000000000e+00,4.000000000000000000e+00,-1.300000000000000000e+01,-7.000000000000000000e+00,-3.000000000000000000e+00,0.000000000000000000e+00,-1.000000000000000000e+00,5.004882812500000000e-03,5.045776367187500000e-01,-9.338378906250000000e-02,8.582153320312500000e-01
-3.000000000000000000e+00,3.000000000000000000e+00,1.000000000000000000e+00,-2.200000000000000000e+01,-2.300000000000000000e+01,-1.100000000000000000e+01,-8.000000000000000000e+00,-4.000000000000000000e+00,5.126953125000000000e-03,5.032348632812500000e-01,-9.399414062500000000e-02,8.589477539062500000e-01
0.000000000000000000e+00,-2.000000000000000000e+00,5.000000000000000000e+00,1.300000000000000000e+01,1.700000000000000000e+01,5.000000000000000000e+00,0.000000000000000000e+00,0.000000000000000000e+00,5.126953125000000000e-03,5.032348632812500000e-01,-9.399414062500000000e-02,8.589477539062500000e-01
2.000000000000000000e+00,1.000000000000000000e+00,-1.200000000000000000e+01,-1.200000000000000000e+01,-5.000000000000000000e+00,-2.000000000000000000e+00,0.000000000000000000e+00,1.000000000000000000e+00,5.126953125000000000e-03,5.032348632812500000e-01,-9.399414062500000000e-02,8.589477539062500000e-01
-3.000000000000000000e+00,-3.000000000000000000e+00,-1.100000000000000000e+01,1.000000000000000000e+01,2.000000000000000000e+00,5.000000000000000000e+00,2.000000000000000000e+00,-3.000000000000000000e+00,5.126953125000000000e-03,5.032348632812500000e-01,-9.399414062500000000e-02,8.589477539062500000e-01
-3.000000000000000000e+00,-3.000000000000000000e+00,1.100000000000000000e+01,1.100000000000000000e+01,-5.000000000000000000e+00,-4.000000000000000000e+00,-2.000000000000000000e+00,-3.000000000000000000e+00,6.103515625000000000e-03,5.017700195312500000e-01,-9.497070312500000000e-02,8.596801757812500000e-01
1.000000000000000000e+00,2.000000000000000000e+00,6.000000000000000000e+00,-1.600000000000000000e+01,-1.200000000000000000e+01,-5.000000000000000000e+00,3.000000000000000000e+00,2.000000000000000000e+00,6.103515625000000000e-03,5.017700195312500000e-01,-9.497070312500000000e-02,8.596801757812500000e-01
-5.000000000000000000e+00,-7.000000000000000000e+00,-8.000000000000000000e+00,-2.400000000000000000e+01,-6.000000000000000000e+00,-1.000000000000000000e+00,2.000000000000000000e+00,-2.000000000000000000e+00,6.103515625000000000e-03,5.017700195312500000e-01,-9.497070312500000000e-02,8.596801757812500000e-01
1.000000000000000000e+00,0.000000000000000000e+00,1.800000000000000000e+01,2.400000000000000000e+01,1.600000000000000000e+01,4.000000000000000000e+00,-3.000000000000000000e+00,-1.000000000000000000e+00,6.103515625000000000e-03,5.017700195312500000e-01,-9.497070312500000000e-02,8.596801757812500000e-01
-3.000000000000000000e+00,-4.000000000000000000e+00,-2.300000000000000000e+01,-5.000000000000000000e+00,2.000000000000000000e+00,-4.000000000000000000e+00,-7.000000000000000000e+00,-4.000000000000000000e+00,6.652832031250000000e-03,5.004882812500000000e-01,-9.527587890625000000e-02,8.604125976562500000e-01
1.000000000000000000e+00,1.000000000000000000e+00,3.000000000000000000e+00,2.000000000000000000e+00,-9.000000000000000000e+00,-1.000000000000000000e+00,0.000000000000000000e+00,1.000000000000000000e+00,6.652832031250000000e-03,5.004882812500000000e-01,-9.527587890625000000e-02,8.604125976562500000e-01
0.000000000000000000e+00,-1.000000000000000000e+00,4.000000000000000000e+00,2.000000000000000000e+00,4.000000000000000000e+00,-1.000000000000000000e+00,0.000000000000000000e+00,1.000000000000000000e+00,6.652832031250000000e-03,5.004882812500000000e-01,-9.527587890625000000e-02,8.604125976562500000e-01
-1.000000000000000000e+00,-2.000000000000000000e+00,-1.000000000000000000e+00,-6.400000000000000000e+01,-2.000000000000000000e+01,-5.000000000000000000e+00,0.000000000000000000e+00,0.000000000000000000e+00,6.652832031250000000e-03,5.004882812500000000e-01,-9.527587890625000000e-02,8.604125976562500000e-01
-1.000000000000000000e+00,0.000000000000000000e+00,2.200000000000000000e+01,4.700000000000000000e+01,2.000000000000000000e+01,4.000000000000000000e+00,1.000000000000000000e+00,-1.000000000000000000e+00,6.347656250000000000e-03,4.998168945312500000e-01,-9.484863281250000000e-02,8.608398437500000000e-01
-4.000000000000000000e+00,-2.000000000000000000e+00,-1.000000000000000000e+00,2.500000000000000000e+01,7.000000000000000000e+00,-3.000000000000000000e+00,-7.000000000000000000e+00,-5.000000000000000000e+00,6.347656250000000000e-03,4.998168945312500000e-01,-9.484863281250000000e-02,8.608398437500000000e-01
1.000000000000000000e+00,-4.000000000000000000e+00,-2.900000000000000000e+01,-4.100000000000000000e+01,-1.400000000000000000e+01,-4.000000000000000000e+00,2.000000000000000000e+00,1.000000000000000000e+00,6.347656250000000000e-03,4.998168945312500000e-01,-9.484863281250000000e-02,8.608398437500000000e-01
-1.000000000000000000e+00,0.000000000000000000e+00,-2.100000000000000000e+01,3.500000000000000000e+01,1.200000000000000000e+01,5.000000000000000000e+00,3.000000000000000000e+00,3.000000000000000000e+00,6.347656250000000000e-03,4.998168945312500000e-01,-9.484863281250000000e-02,8.608398437500000000e-01
1.000000000000000000e+00,3.000000000000000000e+00,1.200000000000000000e+01,-2.500000000000000000e+01,-5.000000000000000000e+00,-3.000000000000000000e+00,-1.000000000000000000e+00,0.000000000000000000e+00,5.859375000000000000e-03,4.995117187500000000e-01,-9.399414062500000000e-02,8.611450195312500000e-01
-2.000000000000000000e+00,-6.000000000000000000e+00,-9.000000000000000000e+00,1.000000000000000000e+01,-5.000000000000000000e+00,-1.000000000000000000e+00,-5.000000000000000000e+00,-5.000000000000000000e+00,5.859375000000000000e-03,4.995117187500000000e-01,-9.399414062500000000e-02,8.611450195312500000e-01
1.000000000000000000e+00,4.000000000000000000e+00,1.300000000000000000e+01,2.000000000000000000e+00,6.000000000000000000e+00,-1.000000000000000000e+00,1.000000000000000000e+00,1.000000000000000000e+00,5.859375000000000000e-03,4.995117187500000000e-01,-9.399414062500000000e-02,8.611450195312500000e-01
0.000000000000000000e+00,-2.000000000000000000e+00,-8.000000000000000000e+00,1.300000000000000000e+01,2.000000000000000000e+00,-4.000000000000000000e+00,-4.000000000000000000e+00,-2.000000000000000000e+00,5.859375000000000000e-03,4.995117187500000000e-01,-9.399414062500000000e-02,8.611450195312500000e-01
3.000000000000000000e+00,0.000000000000000000e+00,0.000000000000000000e+00,-2.000000000000000000e+00,1.000000000000000000e+00,1.000000000000000000e+00,2.000000000000000000e+00,2.000000000000000000e+00,5.065917968750000000e-03,4.991455078125000000e-01,-9.338378906250000000e-02,8.613891601562500000e-01
-2.000000000000000000e+00,1.000000000000000000e+00,1.400000000000000000e+01,1.800000000000000000e+01,4.000000000000000000e+00,0.000000000000000000e+00,-1.000000000000000000e+00,1.000000000000000000e+00,5.065917968750000000e-03,4.991455078125000000e-01,-9.338378906250000000e-02,8.613891601562500000e-01
2.000000000000000000e+00,0.000000000000000000e+00,-1.000000000000000000e+00,-7.000000000000000000e+00,-8.000000000000000000e+00,-4.000000000000000000e+00,-8.000000000000000000e+00,-1.000000000000000000e+00,5.065917968750000000e-03,4.991455078125000000e-01,-9.338378906250000000e-02,8.613891601562500000e-01
-1.000000000000000000e+00,-5.000000000000000000e+00,4.000000000000000000e+00,4.000000000000000000e+00,-3.000000000000000000e+00,0.000000000000000000e+00,5.000000000000000000e+00,0.000000000000000000e+00,5.065917968750000000e-03,4.991455078125000000e-01,-9.338378906250000000e-02,8.613891601562500000e-01
-2.000000000000000000e+00,-4.000000000000000000e+00,-1.000000000000000000e+01,-5.000000000000000000e+00,-7.000000000000000000e+00,-6.000000000000000000e+00,-6.000000000000000000e+00,-2.000000000000000000e+00,4.943847656250000000e-03,4.990234375000000000e-01,-9.332275390625000000e-02,8.615112304687500000e-01
-2.000000000000000000e+00,0.000000000000000000e+00,8.000000000000000000e+00,-3.500000000000000000e+01,-1.000000000000000000e+01,-1.000000000000000000e+00,0.000000000000000000e+00,-2.000000000000000000e+00,4.943847656250000000e-03,4.990234375000000000e-01,-9.332275390625000000e-02,8.615112304687500000e-01
0.000000000000000000e+00,3.000000000000000000e+00,9.000000000000000000e+00,3.500000000000000000e+01,-3.000000000000000000e+00,0.000000000000000000e+00,-1.000000000000000000e+00,-2.000000000000000000e+00,4.943847656250000000e-03,4.990234375000000000e-01,-9.332275390625000000e-02,8.615112304687500000e-01
-2.000000000000000000e+00,-3.000000000000000000e+00,-4.100000000000000000e+01,5.000000000000000000e+00,8.000000000000000000e+00,1.000000000000000000e+00,1.000000000000000000e+00,0.000000000000000000e+00,4.943847656250000000e-03,4.990234375000000000e-01,-9.332275390625000000e-02,8.615112304687500000e-01
-4.000000000000000000e+00,-6.000000000000000000e+00,1.000000000000000000e+01,-5.000000000000000000e+00,-1.100000000000000000e+01,-5.000000000000000000e+00,-6.000000000000000000e+00,-6.000000000000000000e+00,5.371093750000000000e-03,4.992065429687500000e-01,-9.332275390625000000e-02,8.613891601562500000e-01
-3.000000000000000000e+00,-4.000000000000000000e+00,-2.000000000000000000e+00,-2.900000000000000000e+01,-1.600000000000000000e+01,-4.000000000000000000e+00,-2.000000000000000000e+00,-2.000000000000000000e+00,5.371093750000000000e-03,4.992065429687500000e-01,-9.332275390625000000e-02,8.613891601562500000e-01
1.000000000000000000e+00,-1.000000000000000000e+00,-4.000000000000000000e+00,1.300000000000000000e+01,1.400000000000000000e+01,6.000000000000000000e+00,2.000000000000000000e+00,3.000000000000000000e+00,5.371093750000000000e-03,4.992065429687500000e-01,-9.332275390625000000e-02,8.613891601562500000e-01
-1.000000000000000000e+00,2.000000000000000000e+00,2.200000000000000000e+01,1.700000000000000000e+01,1.600000000000000000e+01,3.000000000000000000e+00,0.000000000000000000e+00,-1.000000000000000000e+00,5.371093750000000000e-03,4.992065429687500000e-01,-9.332275390625000000e-02,8.613891601562500000e-01
0.000000000000000000e+00,3.000000000000000000e+00,0.000000000000000000e+00,-1.100000000000000000e+01,-1.000000000000000000e+01,-3.000000000000000000e+00,0.000000000000000000e+00,1.000000000000000000e+00,5.310058593750000000e-03,4.996337890625000000e-01,-9.289550781250000000e-02,8.612060546875000000e-01
-3.000000000000000000e+00,-9.000000000000000000e+00,-5.600000000000000000e+01,-4.100000000000000000e+01,-2.300000000000000000e+01,-6.000000000000000000e+00,-2.000000000000000000e+00,-1.000000000000000000e+00,5.310058593750000000e-03,4.996337890625000000e-01,-9.289550781250000000e-02,8.612060546875000000e-01
-2.000000000000000000e+00,0.000000000000000000e+00,3.000000000000000000e+00,2.700000000000000000e+01,-2.000000000000000000e+00,0.000000000000000000e+00,1.000000000000000000e+00,-2.000000000000000000e+00,5.310058593750000000e-03,4.996337890625000000e-01,-9.289550781250000000e-02,8.612060546875000000e-01
-3.000000000000000000e+00,0.000000000000000000e+00,0.000000000000000000e+00,-1.800000000000000000e+01,-9.000000000000000000e+00,-2.000000000000000000e+00,-1.000000000000000000e+00,-4.000000000000000000e+00,5.310058593750000000e-03,4.996337890625000000e-01,-9.289550781250000000e-02,8.612060546875000000e-01
-2.000000000000000000e+00,0.000000000000000000e+00,7.000000000000000000e+00,8.000000000000000000e+00,-1.000000000000000000e+00,2.000000000000000000e+00,-1.000000000000000000e+00,-2.000000000000000000e+00,4.394531250000000000e-03,4.996948242187500000e-01,-9.228515625000000000e-02,8.612060546875000000e-01
2.000000000000000000e+00,0.000000000000000000e+00,-2.900000000000000000e+01,4.000000000000000000e+00,2.000000000000000000e+00,-2.000000000000000000e+00,-2.000000000000000000e+00,3.000000000000000000e+00,4.394531250000000000e-03,4.996948242187500000e-01,-9.228515625000000000e-02,8.612060546875000000e-01
0.000000000000000000e+00,-4.000000000000000000e+00,-1.100000000000000000e+01,-1.600000000000000000e+01,-5.000000000000000000e+00,-4.000000000000000000e+00,-3.000000000000000000e+00,0.000000000000000000e+00,3.601074218750000000e-03,4.999389648437500000e-01,-9.197998046875000000e-02,8.611450195312500000e-01
-1.000000000000000000e+00,-2.000000000000000000e+00,-1.200000000000000000e+01,1.600000000000000000e+01,5.000000000000000000e+00,1.000000000000000000e+00,3.000000000000000000e+00,1.000000000000000000e+00,3.601074218750000000e-03,4.999389648437500000e-01,-9.197998046875000000e-02,8.611450195312500000e-01
1.000000000000000000e+00,0.000000000000000000e+00,0.000000000000000000e+00,-2.000000000000000000e+01,-1.300000000000000000e+01,-1.000000000000000000e+00,2.000000000000000000e+00,3.000000000000000000e+00,3.601074218750000000e-03,4.999389648437500000e-01,-9.197998046875000000e-02,8.611450195312500000e-01
-1.000000000000000000e+00,4.000000000000000000e+00,2.600000000000000000e+01,2.600000000000000000e+01,1.600000000000000000e+01,4.000000000000000000e+00,3.000000000000000000e+00,-2.000000000000000000e+00,3.601074218750000000e-03,4.999389648437500000e-01,-9.197998046875000000e-02,8.611450195312500000e-01
-2.000000000000000000e+00,0.000000000000000000e+00,-9.000000000000000000e+00,-4.000000000000000000e+00,1.000000000000000000e+00,-5.000000000000000000e+00,-6.000000000000000000e+00,-3.000000000000000000e+00,3.112792968750000000e-03,5.002441406250000000e-01,-9.173583984375000000e-02,8.609619140625000000e-01
0.000000000000000000e+00,1.000000000000000000e+00,1.400000000000000000e+01,-7.000000000000000000e+00,-6.000000000000000000e+00,-1.000000000000000000e+00,-3.000000000000000000e+00,-3.000000000000000000e+00,3.112792968750000000e-03,5.002441406250000000e-01,-9.173583984375000000e-02,8.609619140625000000e-01
-1.000000000000000000e+00,-1.000000000000000000e+00,-5.000000000000000000e+00,-1.200000000000000000e+01,-1.000000000000000000e+01,-4.000000000000000000e+00,-1.000000000000000000e+00,0.000000000000000000e+00,3.112792968750000000e-03,5.002441406250000000e-01,-9.173583984375000000e-02,8.609619140625000000e-01
2.000000000000000000e+00,3.000000000000000000e+00,3.100000000000000000e+01,4.100000000000000000e+01,1.500000000000000000e+01,3.000000000000000000e+00,-1.000000000000000000e+00,1.000000000000000000e+00,3.112792968750000000e-03,5.002441406250000000e-01,-9.173583984375000000e-02,8.609619140625000000e-01
-3.000000000000000000e+00,-1.000000000000000000e+01,-4.100000000000000000e+01,3.000000000000000000e+00,8.000000000000000000e+00,3.000000000000000000e+00,3.000000000000000000e+00,1.000000000000000000e+00,2.746582031250000000e-03,5.006713867187500000e-01,-9.143066406250000000e-02,8.607788085937500000e-01
-3.000000000000000000e+00,0.000000000000000000e+00,6.000000000000000000e+00,1.400000000000000000e+01,-7.000000000000000000e+00,-2.000000000000000000e+00,-3.000000000000000000e+00,-3.000000000000000000e+00,2.746582031250000000e-03,5.006713867187500000e-01,-9.143066406250000000e-02,8.607788085937500000e-01
2.000000000000000000e+00,4.000000000000000000e+00,-2.600000000000000000e+01,-3.800000000000000000e+01,-6.000000000000000000e+00,-1.000000000000000000e+00,2.000000000000000000e+00,1.000000000000000000e+00,2.746582031250000000e-03,5.006713867187500000e-01,-9.143066406250000000e-02,8.607788085937500000e-01
0.000000000000000000e+00,0.000000000000000000e+00,1.300000000000000000e+01,3.500000000000000000e+01,1.600000000000000000e+01,1.000000000000000000e+00,1.000000000000000000e+00,0.000000000000000000e+00,2.746582031250000000e-03,5.006713867187500000e-01,-9.143066406250000000e-02,8.607788085937500000e-01
-4.000000000000000000e+00,2.000000000000000000e+00,2.900000000000000000e+01,7.000000000000000000e+00,-3.000000000000000000e+00,-4.000000000000000000e+00,-3.000000000000000000e+00,-2.000000000000000000e+00,2.746582031250000000e-03,5.006713867187500000e-01,-9.143066406250000000e-02,8.607177734375000000e-01
-1.000000000000000000e+00,-2.000000000000000000e+00,3.000000000000000000e+00,-9.000000000000000000e+00,-8.000000000000000000e+00,-3.000000000000000000e+00,-2.000000000000000000e+00,-1.000000000000000000e+00,2.746582031250000000e-03,5.006713867187500000e-01,-9.143066406250000000e-02,8.607177734375000000e-01
-3.000000000000000000e+00,-3.000000000000000000e+00,-1.300000000000000000e+01,-2.400000000000000000e+01,-3.100000000000000000e+01,-1.000000000000000000e+01,-4.000000000000000000e+00,-4.000000000000000000e+00,2.746582031250000000e-03,5.006713867187500000e-01,-9.143066406250000000e-02,8.607177734375000000e-01
1.000000000000000000e+00,5.000000000000000000e+00,3.600000000000000000e+01,2.200000000000000000e+01,3.400000000000000000e+01,1.000000000000000000e+01,3.000000000000000000e+00,1.000000000000000000e+00,2.746582031250000000e-03,5.006713867187500000e-01,-9.143066406250000000e-02,8.607177734375000000e-01
2.000000000000000000e+00,0.000000000000000000e+00,-1.400000000000000000e+01,-1.500000000000000000e+01,-4.000000000000000000e+00,-4.000000000000000000e+00,0.000000000000000000e+00,1.000000000000000000e+00,2.441406250000000000e-03,5.004882812500000000e-01,-9.112548828125000000e-02,8.609008789062500000e-01
0.000000000000000000e+00,-1.000000000000000000e+00,-6.000000000000000000e+00,-4.000000000000000000e+00,0.000000000000000000e+00,0.000000000000000000e+00,-4.000000000000000000e+00,2.000000000000000000e+00,2.441406250000000000e-03,5.004882812500000000e-01,-9.112548828125000000e-02,8.609008789062500000e-01
1.000000000000000000e+00,0.000000000000000000e+00,1.000000000000000000e+01,-3.000000000000000000e+00,1.000000000000000000e+00,-1.000000000000000000e+00,2.000000000000000000e+00,2.000000000000000000e+00,2.441406250000000000e-03,5.004882812500000000e-01,-9.112548828125000000e-02,8.609008789062500000e-01
-3.000000000000000000e+00,1.000000000000000000e+00,7.000000000000000000e+00,-1.500000000000000000e+01,-1.300000000000000000e+01,-4.000000000000000000e+00,-3.000000000000000000e+00,-2.000000000000000000e+00,2.441406250000000000e-03,5.004882812500000000e-01,-9.112548828125000000e-02,8.609008789062500000e-01
-5.000000000000000000e+00,-4.000000000000000000e+00,1.600000000000000000e+01,2.000000000000000000e+00,2.000000000000000000e+00,-2.000000000000000000e+00,-3.000000000000000000e+00,-5.000000000000000000e+00,2.136230468750000000e-03,5.002441406250000000e-01,-9.075927734375000000e-02,8.610839843750000000e-01
3.000000000000000000e+00,-4.000000000000000000e+00,-1.900000000000000000e+01,-1.200000000000000000e+01,-9.000000000000000000e+00,-2.000000000000000000e+00,2.000000000000000000e+00,5.000000000000000000e+00,2.136230468750000000e-03,5.002441406250000000e-01,-9.075927734375000000e-02,8.610839843750000000e-01
-1.000000000000000000e+00,-1.000000000000000000e+00,7.000000000000000000e+00,1.800000000000000000e+01,2.000000000000000000e+01,2.000000000000000000e+00,1.000000000000000000e+00,0.000000000000000000e+00,2.136230468750000000e-03,5.002441406250000000e-01,-9.075927734375000000e-02,8.610839843750000000e-01
-2.000000000000000000e+00,0.000000000000000000e+00,1.200000000000000000e+01,-4.000000000000000000e+00,-1.000000000000000000e+01,-2.000000000000000000e+00,-3.000000000000000000e+00,-4.000000000000000000e+00,2.136230468750000000e-03,5.002441406250000000e-01,-9.075927734375000000e-02,8.610839843750000000e-01
0.000000000000000000e+00,-1.000000000000000000e+00,-1.600000000000000000e+01,-1.100000000000000000e+01,5.000000000000000000e+00,1.000000000000000000e+00,6.000000000000000000e+00,2.000000000000000000e+00,2.075195312500000000e-03,5.001831054687500000e-01,-9.045410156250000000e-02,8.611450195312500000e-01
-4.000000000000000000e+00,-2.000000000000000000e+00,-4.000000000000000000e+00,1.000000000000000000e+01,-2.100000000000000000e+01,-6.000000000000000000e+00,-8.000000000000000000e+00,-5.000000000000000000e+00,2.075195312500000000e-03,5.001831054687500000e-01,-9.045410156250000000e-02,8.611450195312500000e-01
3.000000000000000000e+00,0.000000000000000000e+00,2.900000000000000000e+01,5.300000000000000000e+01,4.800000000000000000e+01,1.000000000000000000e+01,6.000000000000000000e+00,3.000000000000000000e+00,2.075195312500000000e-03,5.001831054687500000e-01,-9.045410156250000000e-02,8.611450195312500000e-01
-5.000000000000000000e+00,-5.000000000000000000e+00,-3.300000000000000000e+01,-2.600000000000000000e+01,-1.000000000000000000e+01,-6.000000000000000000e+00,-6.000000000000000000e+00,-3.000000000000000000e+00,2.075195312500000000e-03,5.001831054687500000e-01,-9.045410156250000000e-02,8.611450195312500000e-01
-2.000000000000000000e+00,4.000000000000000000e+00,9.000000000000000000e+00,-2.000000000000000000e+01,-1.400000000000000000e+01,-4.000000000000000000e+00,-1.000000000000000000e+00,-3.000000000000000000e+00,2.075195312500000000e-03,5.000000000000000000e-01,-9.027099609375000000e-02,8.612670898437500000e-01
-1.000000000000000000e+00,-3.000000000000000000e+00,-3.000000000000000000e+00,8.000000000000000000e+00,6.000000000000000000e+00,-1.000000000000000000e+00,1.000000000000000000e+00,-3.000000000000000000e+00,2.075195312500000000e-03,5.000000000000000000e-01,-9.027099609375000000e-02,8.612670898437500000e-01
-2.000000000000000000e+00,-3.000000000000000000e+00,-1.700000000000000000e+01,-5.000000000000000000e+00,1.000000000000000000e+00,0.000000000000000000e+00,0.000000000000000000e+00,-2.000000000000000000e+00,2.075195312500000000e-03,5.000000000000000000e-01,-9.027099609375000000e-02,8.612670898437500000e-01
2.000000000000000000e+00,1.000000000000000000e+00,3.000000000000000000e+00,0.000000000000000000e+00,-4.000000000000000000e+00,-2.000000000000000000e+00,-1.000000000000000000e+00,1.000000000000000000e+00,2.075195312500000000e-03,5.000000000000000000e-01,-9.027099609375000000e-02,8.612670898437500000e-01
0.000000000000000000e+00,1.000000000000000000e+00,2.900000000000000000e+01,-6.000000000000000000e+00,4.000000000000000000e+00,2.000000000000000000e+00,-1.000000000000000000e+00,-2.000000000000000000e+00,1.770019531250000000e-03,4.995727539062500000e-01,-9.002685546875000000e-02,8.615112304687500000e-01
-4.000000000000000000e+00,-6.000000000000000000e+00,-5.000000000000000000e+00,-1.600000000000000000e+01,-4.000000000000000000e+00,-1.000000000000000000e+00,-2.000000000000000000e+00,0.000000000000000000e+00,1.770019531250000000e-03,4.995727539062500000e-01,-9.002685546875000000e-02,8.615112304687500000e-01
-4.000000000000000000e+00,-1.000000000000000000e+00,-4.400000000000000000e+01,2.600000000000000000e+01,4.000000000000000000e+00,-1.000000000000000000e+00,-4.000000000000000000e+00,-2.000000000000000000e+00,1.770019531250000000e-03,4.995727539062500000e-01,-9.002685546875000000e-02,8.615112304687500000e-01
1.000000000000000000e+00,2.000000000000000000e+00,-3.000000000000000000e+00,-1.400000000000000000e+01,-8.000000000000000000e+00,-3.000000000000000000e+00,-3.000000000000000000e+00,-3.000000000000000000e+00,1.770019531250000000e-03,4.995727539062500000e-01,-9.002685546875000000e-02,8.615112304687500000e-01
-3.000000000000000000e+00,-2.000000000000000000e+00,-1.000000000000000000e+00,-1.100000000000000000e+01,-5.000000000000000000e+00,-2.000000000000000000e+00,1.000000000000000000e+00,-1.000000000000000000e+00,1.831054687500000000e-03,4.993286132812500000e-01,-8.984375000000000000e-02,8.616943359375000000e-01
5.000000000000000000e+00,4.000000000000000000e+00,2.000000000000000000e+01,5.000000000000000000e+00,1.200000000000000000e+01,3.000000000000000000e+00,3.000000000000000000e+00,3.000000000000000000e+00,1.831054687500000000e-03,4.993286132812500000e-01,-8.984375000000000000e-02,8.616943359375000000e-01
1.000000000000000000e+00,-1.000000000000000000e+00,2.000000000000000000e+00,-2.000000000000000000e+01,-1.300000000000000000e+01,-5.000000000000000000e+00,-4.000000000000000000e+00,-2.000000000000000000e+00,1.831054687500000000e-03,4.993286132812500000e-01,-8.984375000000000000e-02,8.616943359375000000e-01
-2.000000000000000000e+00,-1.000000000000000000e+00,4.000000000000000000e+00,1.300000000000000000e+01,-7.000000000000000000e+00,-3.000000000000000000e+00,2.000000000000000000e+00,-3.000000000000000000e+00,1.831054687500000000e-03,4.993286132812500000e-01,-8.984375000000000000e-02,8.616943359375000000e-01
-4.000000000000000000e+00,1.000000000000000000e+00,4.000000000000000000e+00,-2.600000000000000000e+01,-4.000000000000000000e+00,-1.000000000000000000e+00,-6.000000000000000000e+00,-3.000000000000000000e+00,2.075195312500000000e-03,4.990234375000000000e-01,-8.953857421875000000e-02,8.618774414062500000e-01
-2.000000000000000000e+00,0.000000000000000000e+00,-1.000000000000000000e+01,-1.500000000000000000e+01,-9.000000000000000000e+00,-6.000000000000000000e+00,-3.000000000000000000e+00,-3.000000000000000000e+00,2.075195312500000000e-03,4.990234375000000000e-01,-8.953857421875000000e-02,8.618774414062500000e-01
1.000000000000000000e+00,-1.000000000000000000e+00,7.000000000000000000e+00,2.100000000000000000e+01,1.500000000000000000e+01,4.000000000000000000e+00,0.000000000000000000e+00,-1.000000000000000000e+00,2.075195312500000000e-03,4.990234375000000000e-01,-8.953857421875000000e-02,8.618774414062500000e-01
1.000000000000000000e+00,-2.000000000000000000e+00,-1.600000000000000000e+01,2.000000000000000000e+00,-1.000000000000000000e+00,-4.000000000000000000e+00,-1.000000000000000000e+00,2.000000000000000000e+00,2.075195312500000000e-03,4.990234375000000000e-01,-8.953857421875000000e-02,8.618774414062500000e-01
0.000000000000000000e+00,-3.000000000000000000e+00,-6.000000000000000000e+00,1.100000000000000000e+01,3.000000000000000000e+00,1.000000000000000000e+00,-1.000000000000000000e+00,-1.000000000000000000e+00,1.953125000000000000e-03,4.990234375000000000e-01,-8.917236328125000000e-02,8.619384765625000000e-01
2.000000000000000000e+00,1.000000000000000000e+00,-2.000000000000000000e+00,-2.800000000000000000e+01,-7.000000000000000000e+00,-2.000000000000000000e+00,-1.000000000000000000e+00,-1.000000000000000000e+00,1.953125000000000000e-03,4.990234375000000000e-01,-8.917236328125000000e-02,8.619384765625000000e-01
-1.000000000000000000e+00,0.000000000000000000e+00,4.000000000000000000e+00,2.000000000000000000e+00,-5.000000000000000000e+00,-6.000000000000000000e+00,-1.000000000000000000e+00,0.000000000000000000e+00,1.953125000000000000e-03,4.990234375000000000e-01,-8.917236328125000000e-02,8.619384765625000000e-01
-2.000000000000000000e+00,-2.000000000000000000e+00,7.000000000000000000e+00,-3.100000000000000000e+01,-1.300000000000000000e+01,-1.000000000000000000e+00,1.000000000000000000e+00,1.000000000000000000e+00,1.953125000000000000e-03,4.990234375000000000e-01,-8.917236328125000000e-02,8.619384765625000000e-01
-2.000000000000000000e+00,-4.000000000000000000e+00,-2.500000000000000000e+01,4.000000000000000000e+01,9.000000000000000000e+00,1.000000000000000000e+00,0.000000000000000000e+00,-2.000000000000000000e+00,1.953125000000000000e-03,4.990844726562500000e-01,-8.917236328125000000e-02,8.618774414062500000e-01
1.000000000000000000e+00,3.000000000000000000e+00,1.400000000000000000e+01,-5.000000000000000000e+00,-2.000000000000000000e+00,-1.000000000000000000e+00,0.000000000000000000e+00,0.000000000000000000e+00,1.953125000000000000e-03,4.990844726562500000e-01,-8.917236328125000000e-02,8.618774414062500000e-01
0.000000000000000000e+00,-1.000000000000000000e+00,-2.200000000000000000e+01,-2.000000000000000000e+01,-9.000000000000000000e+00,2.000000000000000000e+00,-1.000000000000000000e+00,-1.000000000000000000e+00,1.953125000000000000e-03,4.990844726562500000e-01,-8.917236328125000000e-02,8.618774414062500000e-01
3.000000000000000000e+00,4.000000000000000000e+00,1.400000000000000000e+01,1.000000000000000000e+00,3.000000000000000000e+00,0.000000000000000000e+00,-3.000000000000000000e+00,0.000000000000000000e+00,1.953125000000000000e-03,4.990844726562500000e-01,-8.917236328125000000e-02,8.618774414062500000e-01
1.000000000000000000e+00,1.000000000000000000e+00,-1.000000000000000000e+00,-1.000000000000000000e+00,-1.000000000000000000e+00,-1.000000000000000000e+00,0.000000000000000000e+00,0.000000000000000000e+00,2.258300781250000000e-03,4.990234375000000000e-01,-8.941650390625000000e-02,8.619384765625000000e-01
-4.000000000000000000e+00,-6.000000000000000000e+00,-1.400000000000000000e+01,7.000000000000000000e+00,9.000000000000000000e+00,1.000000000000000000e+00,-1.000000000000000000e+00,-2.000000000000000000e+00,2.258300781250000000e-03,4.990234375000000000e-01,-8.941650390625000000e-02,8.619384765625000000e-01
-2.000000000000000000e+00,-2.000000000000000000e+00,-5.000000000000000000e+00,-1.000000000000000000e+01,-1.100000000000000000e+01,-2.000000000000000000e+00,-1.000000000000000000e+00,-1.000000000000000000e+00,2.258300781250000000e-03,4.990234375000000000e-01,-8.941650390625000000e-02,8.619384765625000000e-01
-2.000000000000000000e+00,-3.000000000000000000e+00,-5.000000000000000000e+00,-2.000000000000000000e+01,-7.000000000000000000e+00,1.000000000000000000e+00,1.000000000000000000e+00,0.000000000000000000e+00,2.258300781250000000e-03,4.990234375000000000e-01,-8.941650390625000000e-02,8.619384765625000000e-01
-2.000000000000000000e+00,1.000000000000000000e+00,3.000000000000000000e+01,4.700000000000000000e+01,2.000000000000000000e+00,0.000000000000000000e+00,-2.000000000000000000e+00,1.000000000000000000e+00,2.258300781250000000e-03,4.990844726562500000e-01,-8.953857421875000000e-02,8.618774414062500000e-01
-3.000000000000000000e+00,-6.000000000000000000e+00,-3.000000000000000000e+01,1.000000000000000000e+00,7.000000000000000000e+00,1.000000000000000000e+00,3.000000000000000000e+00,-2.000000000000000000e+00,2.258300781250000000e-03,4.990844726562500000e-01,-8.953857421875000000e-02,8.618774414062500000e-01
-3.000000000000000000e+00,-1.000000000000000000e+00,1.500000000000000000e+01,-4.000000000000000000e+00,-1.000000000000000000e+00,3.000000000000000000e+00,0.000000000000000000e+00,-2.000000000000000000e+00,2.258300781250000000e-03,4.990844726562500000e-01,-8.953857421875000000e-02,8.618774414062500000e-01
-1.000000000000000000e+00,-2.000000000000000000e+00,-2.000000000000000000e+00,-6.000000000000000000e+00,-4.000000000000000000e+00,-4.000000000000000000e+00,-2.000000000000000000e+00,-2.000000000000000000e+00,2.258300781250000000e-03,4.990844726562500000e-01,-8.953857421875000000e-02,8.618774414062500000e-01
4.000000000000000000e+00,-1.000000000000000000e+00,-1.600000000000000000e+01,-3.900000000000000000e+01,-1.200000000000000000e+01,-2.000000000000000000e+00,1.000000000000000000e+00,3.000000000000000000e+00,1.586914062500000000e-03,4.993286132812500000e-01,-8.935546875000000000e-02,8.617553710937500000e-01
-3.000000000000000000e+00,-1.000000000000000000e+00,1.900000000000000000e+01,6.600000000000000000e+01,3.000000000000000000e+00,-1.000000000000000000e+00,-1.000000000000000000e+00,0.000000000000000000e+00,1.586914062500000000e-03,4.993286132812500000e-01,-8.935546875000000000e-02,8.617553710937500000e-01
-2.000000000000000000e+00,-1.000000000000000000e+00,1.000000000000000000e+00,-1.000000000000000000e+01,-4.000000000000000000e+00,-1.000000000000000000e+00,0.000000000000000000e+00,0.000000000000000000e+00,1.586914062500000000e-03,4.993286132812500000e-01,-8.935546875000000000e-02,8.617553710937500000e-01
-2.000000000000000000e+00,0.000000000000000000e+00,9.000000000000000000e+00,1.300000000000000000e+01,1.600000000000000000e+01,1.000000000000000000e+00,-2.000000000000000000e+00,-3.000000000000000000e+00,1.586914062500000000e-03,4.993286132812500000e-01,-8.935546875000000000e-02,8.617553710937500000e-01
1.000000000000000000e+00,4.000000000000000000e+00,3.000000000000000000e+01,-1.000000000000000000e+00,-1.200000000000000000e+01,-4.000000000000000000e+00,-2.000000000000000000e+00,0.000000000000000000e+00,1.098632812500000000e-03,4.995727539062500000e-01,-8.917236328125000000e-02,8.616333007812500000e-01
0.000000000000000000e+00,-4.000000000000000000e+00,-5.000000000000000000e+01,-2.500000000000000000e+01,1.100000000000000000e+01,4.000000000000000000e+00,-2.000000000000000000e+00,0.000000000000000000e+00,1.098632812500000000e-03,4.995727539062500000e-01,-8.917236328125000000e-02,8.616333007812500000e-01
-1.000000000000000000e+00,-2.000000000000000000e+00,-1.100000000000000000e+01,-2.800000000000000000e+01,-1.000000000000000000e+01,-2.000000000000000000e+00,0.000000000000000000e+00,-1.000000000000000000e+00,1.098632812500000000e-03,4.995727539062500000e-01,-8.917236328125000000e-02,8.616333007812500000e-01
0.000000000000000000e+00,-2.000000000000000000e+00,-3.000000000000000000e+00,5.700000000000000000e+01,-5.000000000000000000e+00,-4.000000000000000000e+00,-2.000000000000000000e+00,-1.000000000000000000e+00,1.098632812500000000e-03,4.995727539062500000e-01,-8.917236328125000000e-02,8.616333007812500000e-01
-4.000000000000000000e+00,-1.000000000000000000e+00,-2.000000000000000000e+00,-2.300000000000000000e+01,-5.000000000000000000e+00,-3.000000000000000000e+00,-2.000000000000000000e+00,-4.000000000000000000e+00,4.272460937500000000e-04,4.995727539062500000e-01,-8.929443359375000000e-02,8.616333007812500000e-01
-2.000000000000000000e+00,-1.000000000000000000e+00,8.000000000000000000e+00,-4.000000000000000000e+00,-1.000000000000000000e+00,-2.000000000000000000e+00,-3.000000000000000000e+00,-5.000000000000000000e+00,4.272460937500000000e-04,4.995727539062500000e-01,-8.929443359375000000e-02,8.616333007812500000e-01
0.000000000000000000e+00,1.000000000000000000e+00,1.800000000000000000e+01,4.000000000000000000e+00,-1.000000000000000000e+00,-1.000000000000000000e+00,-2.000000000000000000e+00,-2.000000000000000000e+00,4.272460937500000000e-04,4.995727539062500000e-01,-8.929443359375000000e-02,8.616333007812500000e-01
2.000000000000000000e+00,-1.000000000000000000e+00,-1.900000000000000000e+01,-2.700000000000000000e+01,-1.000000000000000000e+00,-1.000000000000000000e+00,3.000000000000000000e+00,7.000000000000000000e+00,4.272460937500000000e-04,4.995727539062500000e-01,-8.929443359375000000e-02,8.616333007812500000e-01
1.000000000000000000e+00,-3.000000000000000000e+00,-1.700000000000000000e+01,5.000000000000000000e+00,6.000000000000000000e+00,-1.000000000000000000e+00,0.000000000000000000e+00,1.000000000000000000e+00,1.220703125000000000e-04,4.996948242187500000e-01,-8.959960937500000000e-02,8.615112304687500000e-01
1.000000000000000000e+00,2.000000000000000000e+00,1.300000000000000000e+01,-9.000000000000000000e+00,-9.000000000000000000e+00,-2.000000000000000000e+00,-2.000000000000000000e+00,0.000000000000000000e+00,1.220703125000000000e-04,4.996948242187500000e-01,-8.959960937500000000e-02,8.615112304687500000e-01
-2.000000000000000000e+00,-3.000000000000000000e+00,1.000000000000000000e+01,1.600000000000000000e+01,6.000000000000000000e+00,-4.000000000000000000e+00,-7.000000000000000000e+00,-4.000000000000000000e+00,1.220703125000000000e-04,4.996948242187500000e-01,-8.959960937500000000e-02,8.615112304687500000e-01
-2.000000000000000000e+00,-3.000000000000000000e+00,1.400000000000000000e+01,-8.000000000000000000e+00,-2.000000000000000000e+00,-1.000000000000000000e+00,5.000000000000000000e+00,-1.000000000000000000e+00,1.220703125000000000e-04,4.996948242187500000e-01,-8.959960937500000000e-02,8.615112304687500000e-01
-1.000000000000000000e+00,-2.000000000000000000e+00,-1.300000000000000000e+01,-2.000000000000000000e+00,-3.000000000000000000e+00,-1.000000000000000000e+00,1.000000000000000000e+00,0.000000000000000000e+00,0.000000000000000000e+00,5.000610351562500000e-01,-8.984375000000000000e-02,8.612670898437500000e-01
2.000000000000000000e+00,3.000000000000000000e+00,1.400000000000000000e+01,6.000000000000000000e+00,8.000000000000000000e+00,8.000000000000000000e+00,2.000000000000000000e+00,-1.000000000000000000e+00,0.000000000000000000e+00,5.000610351562500000e-01,-8.984375000000000000e-02,8.612670898437500000e-01
0.000000000000000000e+00,-1.000000000000000000e+00,-1.000000000000000000e+00,-1.600000000000000000e+01,-5.000000000000000000e+00,-4.000000000000000000e+00,0.000000000000000000e+00,1.000000000000000000e+00,0.000000000000000000e+00,5.000610351562500000e-01,-8.984375000000000000e-02,8.612670898437500000e-01
-3.000000000000000000e+00,-1.000000000000000000e+00,-3.000000000000000000e+00,-3.000000000000000000e+00,-4.000000000000000000e+00,-1.000000000000000000e+00,-3.000000000000000000e+00,-4.000000000000000000e+00,0.000000000000000000e+00,5.000610351562500000e-01,-8.984375000000000000e-02,8.612670898437500000e-01
-1.000000000000000000e+00,-1.000000000000000000e+00,-1.000000000000000000e+01,2.300000000000000000e+01,2.000000000000000000e+01,4.000000000000000000e+00,2.000000000000000000e+00,0.000000000000000000e+00,-3.662109375000000000e-04,5.006103515625000000e-01,-8.990478515625000000e-02,8.609619140625000000e-01
-3.000000000000000000e+00,-2.000000000000000000e+00,4.000000000000000000e+00,-4.800000000000000000e+01,-1.600000000000000000e+01,-6.000000000000000000e+00,-4.000000000000000000e+00,-2.000000000000000000e+00,-3.662109375000000000e-04,5.006103515625000000e-01,-8.990478515625000000e-02,8.609619140625000000e-01
2.000000000000000000e+00,3.000000000000000000e+00,1.800000000000000000e+01,2.000000000000000000e+01,1.700000000000000000e+01,2.000000000000000000e+00,0.000000000000000000e+00,1.000000000000000000e+00,-3.662109375000000000e-04,5.006103515625000000e-01,-8.990478515625000000e-02,8.609619140625000000e-01
0.000000000000000000e+00,-4.000000000000000000e+00,-3.100000000000000000e+01,3.100000000000000000e+01,8.000000000000000000e+00,1.000000000000000000e+00,-2.000000000000000000e+00,-1.000000000000000000e+00,-3.662109375000000000e-04,5.006103515625000000e-01,-8.990478515625000000e-02,8.609619140625000000e-01
-3.000000000000000000e+00,3.000000000000000000e+00,4.000000000000000000e+00,-3.300000000000000000e+01,-1.400000000000000000e+01,-2.000000000000000000e+00,0.000000000000000000e+00,-4.000000000000000000e+00,-1.037597656250000000e-03,5.009765625000000000e-01,-8.972167968750000000e-02,8.607788085937500000e-01
-6.000000000000000000e+00,-8.000000000000000000e+00,-3.500000000000000000e+01,2.200000000000000000e+01,1.800000000000000000e+01,1.000000000000000000e+00,-3.000000000000000000e+00,-3.000000000000000000e+00,-1.037597656250000000e-03,5.009765625000000000e-01,-8.972167968750000000e-02,8.607788085937500000e-01
-1.000000000000000000e+00,-3.000000000000000000e+00,-6.000000000000000000e+00,-1.800000000000000000e+01,-4.000000000000000000e+00,-1.000000000000000000e+00,2.000000000000000000e+00,0.000000000000000000e+00,-1.037597656250000000e-03,5.009765625000000000e-01,-8.972167968750000000e-02,8.607788085937500000e-01
0.000000000000000000e+00,-1.000000000000000000e+00,0.000000000000000000e+00,-1.500000000000000000e+01,-6.000000000000000000e+00,-3.000000000000000000e+00,-1.000000000000000000e+00,2.000000000000000000e+00,-1.037597656250000000e-03,5.009765625000000000e-01,-8.972167968750000000e-02,8.607788085937500000e-01
0.000000000000000000e+00,0.000000000000000000e+00,1.100000000000000000e+01,-2.400000000000000000e+01,-8.000000000000000000e+00,-1.000000000000000000e+00,-4.000000000000000000e+00,-3.000000000000000000e+00,-1.770019531250000000e-03,5.012207031250000000e-01,-8.941650390625000000e-02,8.606567382812500000e-01
3.000000000000000000e+00,2.000000000000000000e+00,1.300000000000000000e+01,2.500000000000000000e+01,6.000000000000000000e+00,0.000000000000000000e+00,2.000000000000000000e+00,2.000000000000000000e+00,-1.770019531250000000e-03,5.012207031250000000e-01,-8.941650390625000000e-02,8.606567382812500000e-01
-2.000000000000000000e+00,0.000000000000000000e+00,-6.000000000000000000e+00,5.000000000000000000e+00,-3.000000000000000000e+00,0.000000000000000000e+00,-3.000000000000000000e+00,-2.000000000000000000e+00,-1.770019531250000000e-03,5.012207031250000000e-01,-8.941650390625000000e-02,8.606567382812500000e-01
-1.000000000000000000e+00,0.000000000000000000e+00,-6.000000000000000000e+00,-2.000000000000000000e+00,3.000000000000000000e+00,2.000000000000000000e+00,1.000000000000000000e+00,-1.000000000000000000e+00,-1.770019531250000000e-03,5.012207031250000000e-01,-8.941650390625000000e-02,8.606567382812500000e-01
-2.000000000000000000e+00,-2.000000000000000000e+00,5.000000000000000000e+00,-3.000000000000000000e+00,-5.000000000000000000e+00,-3.000000000000000000e+00,0.000000000000000000e+00,-2.000000000000000000e+00,-2.197265625000000000e-03,5.014648437500000000e-01,-8.905029296875000000e-02,8.605346679687500000e-01
1.000000000000000000e+00,1.000000000000000000e+00,-1.500000000000000000e+01,-7.000000000000000000e+00,-1.600000000000000000e+01,-3.000000000000000000e+00,-1.000000000000000000e+00,-1.000000000000000000e+00,-2.197265625000000000e-03,5.014648437500000000e-01,-8.905029296875000000e-02,8.605346679687500000e-01
0.000000000000000000e+00,-5.000000000000000000e+00,-4.000000000000000000e+00,6.000000000000000000e+00,7.000000000000000000e+00,3.000000000000000000e+00,-3.000000000000000000e+00,0.000000000000000000e+00,-2.197265625000000000e-03,5.014648437500000000e-01,-8.905029296875000000e-02,8.605346679687500000e-01
-1.000000000000000000e+00,-4.000000000000000000e+00,-6.000000000000000000e+00,-1.000000000000000000e+01,1.000000000000000000e+00,5.000000000000000000e+00,2.000000000000000000e+00,-2.000000000000000000e+00,-2.197265625000000000e-03,5.014648437500000000e-01,-8.905029296875000000e-02,8.605346679687500000e-01
1.000000000000000000e+00,0.000000000000000000e+00,3.000000000000000000e+00,1.700000000000000000e+01,1.000000000000000000e+01,1.000000000000000000e+00,-3.000000000000000000e+00,1.000000000000000000e+00,-2.441406250000000000e-03,5.015258789062500000e-01,-8.856201171875000000e-02,8.605346679687500000e-01
-2.000000000000000000e+00,0.000000000000000000e+00,5.000000000000000000e+00,-2.000000000000000000e+00,-1.100000000000000000e+01,-5.000000000000000000e+00,-1.000000000000000000e+00,-2.000000000000000000e+00,-2.441406250000000000e-03,5.015258789062500000e-01,-8.856201171875000000e-02,8.605346679687500000e-01
-1.000000000000000000e+00,0.000000000000000000e+00,1.700000000000000000e+01,-1.200000000000000000e+01,-7.000000000000000000e+00,-5.000000000000000000e+00,-4.000000000000000000e+00,-2.000000000000000000e+00,-2.441406250000000000e-03,5.015258789062500000e-01,-8.856201171875000000e-02,8.605346679687500000e-01
1.000000000000000000e+00,0.000000000000000000e+00,-2.800000000000000000e+01,1.500000000000000000e+01,6.000000000000000000e+00,-1.000000000000000000e+00,1.000000000000000000e+00,1.000000000000000000e+00,-2.441406250000000000e-03,5.015258789062500000e-01,-8.856201171875000000e-02,8.605346679687500000e-01
1.000000000000000000e+00,0.000000000000000000e+00,1.000000000000000000e+01,2.000000000000000000e+01,1.700000000000000000e+01,3.000000000000000000e+00,-1.000000000000000000e+00,-2.000000000000000000e+00,-2.441406250000000000e-03,5.015869140625000000e-01,-8.831787109375000000e-02,8.605346679687500000e-01
-3.000000000000000000e+00,-4.000000000000000000e+00,-1.500000000000000000e+01,-3.000000000000000000e+00,0.000000000000000000e+00,-3.000000000000000000e+00,-3.000000000000000000e+00,-2.000000000000000000e+00,-2.441406250000000000e-03,5.015869140625000000e-01,-8.831787109375000000e-02,8.605346679687500000e-01
0.000000000000000000e+00,2.000000000000000000e+00,2.500000000000000000e+01,-2.500000000000000000e+01,-1.700000000000000000e+01,-2.000000000000000000e+00,0.000000000000000000e+00,0.000000000000000000e+00,-2.441406250000000000e-03,5.015869140625000000e-01,-8.831787109375000000e-02,8.605346679687500000e-01
0.000000000000000000e+00,-1.000000000000000000e+00,-2.300000000000000000e+01,1.000000000000000000e+01,1.500000000000000000e+01,-1.000000000000000000e+00,-4.000000000000000000e+00,0.000000000000000000e+00,-2.441406250000000000e-03,5.015869140625000000e-01,-8.831787109375000000e-02,8.605346679687500000e-01
-2.000000000000000000e+00,-4.000000000000000000e+00,-9.000000000000000000e+00,-3.000000000000000000e+00,-5.000000000000000000e+00,-1.000000000000000000e+00,0.000000000000000000e+00,-3.000000000000000000e+00,-2.197265625000000000e-03,5.015869140625000000e-01,-8.825683593750000000e-02,8.605346679687500000e-01
2.000000000000000000e+00,5.000000000000000000e+00,1.500000000000000000e+01,-2.200000000000000000e+01,-1.200000000000000000e+01,-4.000000000000000000e+00,-2.000000000000000000e+00,1.000000000000000000e+00,-2.197265625000000000e-03,5.015869140625000000e-01,-8.825683593750000000e-02,8.605346679687500000e-01
0.000000000000000000e+00,-1.000000000000000000e+00,1.400000000000000000e+01,1.000000000000000000e+01,1.500000000000000000e+01,5.000000000000000000e+00,3.000000000000000000e+00,-1.000000000000000000e+00,-2.197265625000000000e-03,5.015869140625000000e-01,-8.825683593750000000e-02,8.605346679687500000e-01
-2.000000000000000000e+00,2.000000000000000000e+00,1.100000000000000000e+01,-5.000000000000000000e+00,-4.000000000000000000e+00,-2.000000000000000000e+00,-3.000000000000000000e+00,-2.000000000000000000e+00,-2.197265625000000000e-03,5.015869140625000000e-01,-8.825683593750000000e-02,8.605346679687500000e-01
-3.000000000000000000e+00,-4.000000000000000000e+00,-2.900000000000000000e+01,8.000000000000000000e+00,-4.000000000000000000e+00,0.000000000000000000e+00,1.000000000000000000e+00,1.000000000000000000e+00,-1.525878906250000000e-03,5.015258789062500000e-01,-8.825683593750000000e-02,8.605957031250000000e-01
-1.000000000000000000e+00,-1.000000000000000000e+00,1.500000000000000000e+01,-8.000000000000000000e+00,5.000000000000000000e+00,0.000000000000000000e+00,-1.000000000000000000e+00,-2.000000000000000000e+00,-1.525878906250000000e-03,5.015258789062500000e-01,-8.825683593750000000e-02,8.605957031250000000e-01
-2.000000000000000000e+00,-3.000000000000000000e+00,-1.000000000000000000e+01,-2.000000000000000000e+00,-1.000000000000000000e+01,-4.000000000000000000e+00,-5.000000000000000000e+00,-4.000000000000000000e+00,-1.525878906250000000e-03,5.015258789062500000e-01,-8.825683593750000000e-02,8.605957031250000000e-01
-2.000000000000000000e+00,-1.000000000000000000e+00,1.100000000000000000e+01,2.000000000000000000e+00,-6.000000000000000000e+00,-1.000000000000000000e+00,-3.000000000000000000e+00,0.000000000000000000e+00,-1.525878906250000000e-03,5.015258789062500000e-01,-8.825683593750000000e-02,8.605957031250000000e-01
3.000000000000000000e+00,2.000000000000000000e+00,0.000000000000000000e+00,-5.000000000000000000e+00,2.000000000000000000e+00,1.000000000000000000e+00,2.000000000000000000e+00,3.000000000000000000e+00,-1.098632812500000000e-03,5.015258789062500000e-01,-8.831787109375000000e-02,8.605957031250000000e-01
0.000000000000000000e+00,0.000000000000000000e+00,4.000000000000000000e+00,-3.600000000000000000e+01,-1.800000000000000000e+01,-5.000000000000000000e+00,5.000000000000000000e+00,0.000000000000000000e+00,-1.098632812500000000e-03,5.015258789062500000e-01,-8.831787109375000000e-02,8.605957031250000000e-01
-1.000000000000000000e+00,-2.000000000000000000e+00,-3.000000000000000000e+01,3.800000000000000000e+01,1.100000000000000000e+01,4.000000000000000000e+00,-1.000000000000000000e+00,-2.000000000000000000e+00,-1.098632812500000000e-03,5.015258789062500000e-01,-8.831787109375000000e-02,8.605957031250000000e-01
-2.000000000000000000e+00,-2.000000000000000000e+00,-4.000000000000000000e+00,-2.700000000000000000e+01,-5.000000000000000000e+00,-5.000000000000000000e+00,-5.000000000000000000e+00,-3.000000000000000000e+00,-1.098632812500000000e-03,5.015258789062500000e-01,-8.831787109375000000e-02,8.605957031250000000e-01
