-9.000000000000000000e+00,-8.000000000000000000e+00,-3.000000000000000000e+01,1.000000000000000000e+00,1.000000000000000000e+00,1.000000000000000000e+00,3.000000000000000000e+00,-3.000000000000000000e+00,-3.749389648437500000e-01,4.846191406250000000e-02,7.418823242187500000e-01,5.537109375000000000e-01
-8.000000000000000000e+00,2.000000000000000000e+00,2.200000000000000000e+01,3.000000000000000000e+00,3.000000000000000000e+00,-4.000000000000000000e+00,0.000000000000000000e+00,-3.000000000000000000e+00,-3.749389648437500000e-01,4.846191406250000000e-02,7.418823242187500000e-01,5.537109375000000000e-01
-1.000000000000000000e+00,-6.000000000000000000e+00,-1.900000000000000000e+01,4.000000000000000000e+00,-1.000000000000000000e+00,1.000000000000000000e+00,-3.000000000000000000e+00,0.000000000000000000e+00,-3.749389648437500000e-01,4.846191406250000000e-02,7.418823242187500000e-01,5.537109375000000000e-01
1.000000000000000000e+00,1.000000000000000000e+00,-1.100000000000000000e+01,-9.000000000000000000e+00,-4.000000000000000000e+00,-3.000000000000000000e+00,1.000000000000000000e+00,-4.000000000000000000e+00,-3.749389648437500000e-01,4.846191406250000000e-02,7.418823242187500000e-01,5.537109375000000000e-01
2.000000000000000000e+00,9.000000000000000000e+00,2.500000000000000000e+01,1.100000000000000000e+01,5.000000000000000000e+00,-3.000000000000000000e+00,-9.000000000000000000e+00,-1.000000000000000000e+00,-3.759155273437500000e-01,5.096435546875000000e-02,7.416381835937500000e-01,5.531616210937500000e-01
2.000000000000000000e+00,-3.000000000000000000e+00,-1.900000000000000000e+01,-1.400000000000000000e+01,-1.000000000000000000e+00,4.000000000000000000e+00,5.000000000000000000e+00,0.000000000000000000e+00,-3.759155273437500000e-01,5.096435546875000000e-02,7.416381835937500000e-01,5.531616210937500000e-01
-2.000000000000000000e+00,-3.000000000000000000e+00,-1.000000000000000000e+00,-7.000000000000000000e+00,-2.000000000000000000e+00,-2.000000000000000000e+00,1.000000000000000000e+00,2.000000000000000000e+00,-3.759155273437500000e-01,5.096435546875000000e-02,7.416381835937500000e-01,5.531616210937500000e-01
0.000000000000000000e+00,-3.000000000000000000e+00,-5.000000000000000000e+00,-6.000000000000000000e+00,-2.000000000000000000e+00,0.000000000000000000e+00,1.000000000000000000e+00,1.000000000000000000e+00,-3.759155273437500000e-01,5.096435546875000000e-02,7.416381835937500000e-01,5.531616210937500000e-01
6.000000000000000000e+00,5.000000000000000000e+00,3.000000000000000000e+00,3.000000000000000000e+00,0.000000000000000000e+00,0.000000000000000000e+00,-5.000000000000000000e+00,-3.000000000000000000e+00,-3.764038085937500000e-01,5.419921875000000000e-02,7.419433593750000000e-01,5.521240234375000000e-01
-5.000000000000000000e+00,-7.000000000000000000e+00,-7.000000000000000000e+00,4.000000000000000000e+00,4.000000000000000000e+00,2.000000000000000000e+00,3.000000000000000000e+00,2.000000000000000000e+00,-3.764038085937500000e-01,5.419921875000000000e-02,7.419433593750000000e-01,5.521240234375000000e-01
2.000000000000000000e+00,3.000000000000000000e+00,5.000000000000000000e+00,4.000000000000000000e+00,-4.000000000000000000e+00,0.000000000000000000e+00,0.000000000000000000e+00,1.000000000000000000e+00,-3.764038085937500000e-01,5.419921875000000000e-02,7.419433593750000000e-01,5.521240234375000000e-01
0.000000000000000000e+00,-2.000000000000000000e+00,-6.000000000000000000e+00,-1.100000000000000000e+01,-4.000000000000000000e+00,-2.000000000000000000e+00,0.000000000000000000e+00,6.000000000000000000e+00,-3.764038085937500000e-01,5.419921875000000000e-02,7.419433593750000000e-01,5.521240234375000000e-01
-1.000000000000000000e+00,-1.000000000000000000e+01,-2.600000000000000000e+01,-1.200000000000000000e+01,-5.000000000000000000e+00,-2.000000000000000000e+00,-1.000000000000000000e+01,-6.000000000000000000e+00,-3.770751953125000000e-01,5.682373046875000000e-02,7.427368164062500000e-01,5.503540039062500000e-01
2.000000000000000000e+00,0.000000000000000000e+00,9.000000000000000000e+00,2.300000000000000000e+01,4.000000000000000000e+00,1.000000000000000000e+00,5.000000000000000000e+00,-1.000000000000000000e+00,-3.770751953125000000e-01,5.682373046875000000e-02,7.427368164062500000e-01,5.503540039062500000e-01
-9.000000000000000000e+00,-5.000000000000000000e+00,-8.000000000000000000e+00,-2.900000000000000000e+01,-7.000000000000000000e+00,-3.000000000000000000e+00,-5.000000000000000000e+00,-1.000000000000000000e+00,-3.770751953125000000e-01,5.682373046875000000e-02,7.427368164062500000e-01,5.503540039062500000e-01
1.000000000000000000e+00,3.000000000000000000e+00,-3.000000000000000000e+00,2.000000000000000000e+00,1.000000000000000000e+00,-5.000000000000000000e+00,-8.000000000000000000e+00,-5.000000000000000000e+00,-3.770751953125000000e-01,5.682373046875000000e-02,7.427368164062500000e-01,5.503540039062500000e-01
8.000000000000000000e+00,5.000000000000000000e+00,2.200000000000000000e+01,2.000000000000000000e+00,0.000000000000000000e+00,-1.000000000000000000e+00,2.000000000000000000e+01,3.000000000000000000e+00,-3.781127929687500000e-01,5.883789062500000000e-02,7.433471679687500000e-01,5.485229492187500000e-01
-2.000000000000000000e+00,4.000000000000000000e+00,-8.000000000000000000e+00,-2.000000000000000000e+00,0.000000000000000000e+00,-1.000000000000000000e+00,0.000000000000000000e+00,-1.000000000000000000e+01,-3.781127929687500000e-01,5.883789062500000000e-02,7.433471679687500000e-01,5.485229492187500000e-01
0.000000000000000000e+00,-1.200000000000000000e+01,-1.800000000000000000e+01,0.000000000000000000e+00,0.000000000000000000e+00,-3.000000000000000000e+00,-7.000000000000000000e+00,7.000000000000000000e+00,-3.781127929687500000e-01,5.883789062500000000e-02,7.433471679687500000e-01,5.485229492187500000e-01
3.000000000000000000e+00,4.000000000000000000e+00,1.000000000000000000e+01,-2.000000000000000000e+00,-5.000000000000000000e+00,3.000000000000000000e+00,-2.000000000000000000e+00,-5.000000000000000000e+00,-3.781127929687500000e-01,5.883789062500000000e-02,7.433471679687500000e-01,5.485229492187500000e-01
0.000000000000000000e+00,0.000000000000000000e+00,7.000000000000000000e+00,2.000000000000000000e+00,-1.000000000000000000e+00,0.000000000000000000e+00,-9.000000000000000000e+00,-1.000000000000000000e+00,-3.791503906250000000e-01,6.134033203125000000e-02,7.439575195312500000e-01,5.468139648437500000e-01
-4.000000000000000000e+00,-3.000000000000000000e+00,-5.000000000000000000e+00,-1.000000000000000000e+01,-3.000000000000000000e+00,-2.000000000000000000e+00,-1.000000000000000000e+00,6.000000000000000000e+00,-3.791503906250000000e-01,6.134033203125000000e-02,7.439575195312500000e-01,5.468139648437500000e-01
-2.000000000000000000e+00,5.000000000000000000e+00,1.000000000000000000e+00,-1.000000000000000000e+00,-1.000000000000000000e+00,-1.000000000000000000e+00,4.000000000000000000e+00,-1.300000000000000000e+01,-3.791503906250000000e-01,6.134033203125000000e-02,7.439575195312500000e-01,5.468139648437500000e-01
-5.000000000000000000e+00,-4.000000000000000000e+00,-1.000000000000000000e+00,-6.000000000000000000e+00,-2.000000000000000000e+00,-2.000000000000000000e+00,0.000000000000000000e+00,1.000000000000000000e+00,-3.791503906250000000e-01,6.134033203125000000e-02,7.439575195312500000e-01,5.468139648437500000e-01
-7.000000000000000000e+00,-9.000000000000000000e+00,-1.000000000000000000e+00,1.000000000000000000e+00,-3.000000000000000000e+00,-2.000000000000000000e+00,-5.000000000000000000e+00,0.000000000000000000e+00,-3.803710937500000000e-01,6.408691406250000000e-02,7.446289062500000000e-01,5.446166992187500000e-01
0.000000000000000000e+00,0.000000000000000000e+00,-5.000000000000000000e+00,-1.100000000000000000e+01,-3.000000000000000000e+00,-2.000000000000000000e+00,-5.000000000000000000e+00,-4.000000000000000000e+00,-3.803710937500000000e-01,6.408691406250000000e-02,7.446289062500000000e-01,5.446166992187500000e-01
-3.000000000000000000e+00,-3.000000000000000000e+00,1.200000000000000000e+01,2.000000000000000000e+01,4.000000000000000000e+00,-1.000000000000000000e+00,0.000000000000000000e+00,7.000000000000000000e+00,-3.803710937500000000e-01,6.408691406250000000e-02,7.446289062500000000e-01,5.446166992187500000e-01
3.000000000000000000e+00,-2.000000000000000000e+00,-1.000000000000000000e+01,-2.200000000000000000e+01,-5.000000000000000000e+00,1.000000000000000000e+00,5.000000000000000000e+00,-2.000000000000000000e+00,-3.803710937500000000e-01,6.408691406250000000e-02,7.446289062500000000e-01,5.446166992187500000e-01
0.000000000000000000e+00,3.000000000000000000e+00,-1.000000000000000000e+00,1.000000000000000000e+01,0.000000000000000000e+00,0.000000000000000000e+00,-4.000000000000000000e+00,-4.000000000000000000e+00,-3.818969726562500000e-01,6.738281250000000000e-02,7.453613281250000000e-01,5.422363281250000000e-01
-4.000000000000000000e+00,-1.000000000000000000e+00,4.000000000000000000e+00,-3.000000000000000000e+00,-2.000000000000000000e+00,0.000000000000000000e+00,-1.000000000000000000e+00,-6.000000000000000000e+00,-3.818969726562500000e-01,6.738281250000000000e-02,7.453613281250000000e-01,5.422363281250000000e-01
3.000000000000000000e+00,0.000000000000000000e+00,3.000000000000000000e+00,1.000000000000000000e+01,2.000000000000000000e+00,2.000000000000000000e+00,1.000000000000000000e+00,3.000000000000000000e+00,-3.818969726562500000e-01,6.738281250000000000e-02,7.453613281250000000e-01,5.422363281250000000e-01
-6.000000000000000000e+00,-8.000000000000000000e+00,-1.300000000000000000e+01,-2.000000000000000000e+00,-1.000000000000000000e+00,-3.000000000000000000e+00,1.000000000000000000e+00,-3.000000000000000000e+00,-3.818969726562500000e-01,6.738281250000000000e-02,7.453613281250000000e-01,5.422363281250000000e-01
2.000000000000000000e+00,-2.000000000000000000e+00,0.000000000000000000e+00,-5.000000000000000000e+00,-2.000000000000000000e+00,0.000000000000000000e+00,-1.000000000000000000e+01,2.000000000000000000e+00,-3.833618164062500000e-01,7.128906250000000000e-02,7.457885742187500000e-01,5.401000976562500000e-01
-1.000000000000000000e+00,2.000000000000000000e+00,0.000000000000000000e+00,-3.000000000000000000e+00,2.000000000000000000e+00,-2.000000000000000000e+00,1.100000000000000000e+01,-6.000000000000000000e+00,-3.833618164062500000e-01,7.128906250000000000e-02,7.457885742187500000e-01,5.401000976562500000e-01
1.000000000000000000e+00,-1.000000000000000000e+00,-1.600000000000000000e+01,-1.000000000000000000e+00,-6.000000000000000000e+00,-1.000000000000000000e+00,1.000000000000000000e+00,6.000000000000000000e+00,-3.833618164062500000e-01,7.128906250000000000e-02,7.457885742187500000e-01,5.401000976562500000e-01
4.000000000000000000e+00,1.000000000000000000e+00,1.500000000000000000e+01,1.000000000000000000e+01,2.000000000000000000e+00,0.000000000000000000e+00,3.000000000000000000e+00,-1.000000000000000000e+00,-3.833618164062500000e-01,7.128906250000000000e-02,7.457885742187500000e-01,5.401000976562500000e-01
3.000000000000000000e+00,-3.000000000000000000e+00,-2.000000000000000000e+00,-1.300000000000000000e+01,-5.000000000000000000e+00,-5.000000000000000000e+00,-8.000000000000000000e+00,1.000000000000000000e+00,-3.847656250000000000e-01,7.550048828125000000e-02,7.463378906250000000e-01,5.377197265625000000e-01
0.000000000000000000e+00,-2.000000000000000000e+00,6.000000000000000000e+00,1.800000000000000000e+01,4.000000000000000000e+00,1.000000000000000000e+00,-5.000000000000000000e+00,-1.700000000000000000e+01,-3.847656250000000000e-01,7.550048828125000000e-02,7.463378906250000000e-01,5.377197265625000000e-01
0.000000000000000000e+00,7.000000000000000000e+00,2.000000000000000000e+00,-9.000000000000000000e+00,1.000000000000000000e+00,0.000000000000000000e+00,-1.000000000000000000e+00,-3.000000000000000000e+00,-3.847656250000000000e-01,7.550048828125000000e-02,7.463378906250000000e-01,5.377197265625000000e-01
-8.000000000000000000e+00,-1.000000000000000000e+01,-2.300000000000000000e+01,-3.000000000000000000e+00,0.000000000000000000e+00,-1.000000000000000000e+00,2.000000000000000000e+00,6.000000000000000000e+00,-3.847656250000000000e-01,7.550048828125000000e-02,7.463378906250000000e-01,5.377197265625000000e-01
6.000000000000000000e+00,3.000000000000000000e+00,1.700000000000000000e+01,1.000000000000000000e+01,2.000000000000000000e+00,-1.000000000000000000e+00,-3.000000000000000000e+00,3.000000000000000000e+00,-3.865356445312500000e-01,7.910156250000000000e-02,7.470092773437500000e-01,5.350341796875000000e-01
-8.000000000000000000e+00,-1.000000000000000000e+00,-8.000000000000000000e+00,-7.000000000000000000e+00,-3.000000000000000000e+00,-2.000000000000000000e+00,2.000000000000000000e+00,-2.000000000000000000e+00,-3.865356445312500000e-01,7.910156250000000000e-02,7.470092773437500000e-01,5.350341796875000000e-01
-3.000000000000000000e+00,0.000000000000000000e+00,-1.000000000000000000e+00,-3.000000000000000000e+00,-1.000000000000000000e+00,0.000000000000000000e+00,1.000000000000000000e+00,4.000000000000000000e+00,-3.865356445312500000e-01,7.910156250000000000e-02,7.470092773437500000e-01,5.350341796875000000e-01
6.000000000000000000e+00,3.000000000000000000e+00,5.000000000000000000e+00,6.000000000000000000e+00,1.000000000000000000e+00,-3.000000000000000000e+00,0.000000000000000000e+00,-2.000000000000000000e+00,-3.865356445312500000e-01,7.910156250000000000e-02,7.470092773437500000e-01,5.350341796875000000e-01
-1.000000000000000000e+00,0.000000000000000000e+00,5.000000000000000000e+00,2.000000000000000000e+00,0.000000000000000000e+00,0.000000000000000000e+00,0.000000000000000000e+00,1.000000000000000000e+00,-3.886718750000000000e-01,8.142089843750000000e-02,7.476196289062500000e-01,5.322875976562500000e-01
2.000000000000000000e+00,-2.000000000000000000e+00,-5.000000000000000000e+00,-1.500000000000000000e+01,-3.000000000000000000e+00,2.000000000000000000e+00,0.000000000000000000e+00,2.000000000000000000e+00,-3.886718750000000000e-01,8.142089843750000000e-02,7.476196289062500000e-01,5.322875976562500000e-01
-3.000000000000000000e+00,-2.000000000000000000e+00,0.000000000000000000e+00,3.000000000000000000e+00,0.000000000000000000e+00,1.000000000000000000e+00,-5.000000000000000000e+00,-4.000000000000000000e+00,-3.886718750000000000e-01,8.142089843750000000e-02,7.476196289062500000e-01,5.322875976562500000e-01
-1.000000000000000000e+01,3.000000000000000000e+00,3.000000000000000000e+00,6.000000000000000000e+00,2.000000000000000000e+00,3.000000000000000000e+00,1.000000000000000000e+00,1.000000000000000000e+00,-3.886718750000000000e-01,8.142089843750000000e-02,7.476196289062500000e-01,5.322875976562500000e-01
2.000000000000000000e+00,-5.000000000000000000e+00,-5.000000000000000000e+00,-1.000000000000000000e+01,-5.000000000000000000e+00,-6.000000000000000000e+00,1.000000000000000000e+00,-2.000000000000000000e+00,-3.913574218750000000e-01,8.312988281250000000e-02,7.483520507812500000e-01,5.289916992187500000e-01
1.100000000000000000e+01,5.000000000000000000e+00,1.000000000000000000e+01,8.000000000000000000e+00,-3.000000000000000000e+00,0.000000000000000000e+00,-2.000000000000000000e+00,6.000000000000000000e+00,-3.913574218750000000e-01,8.312988281250000000e-02,7.483520507812500000e-01,5.289916992187500000e-01
-3.000000000000000000e+00,-1.000000000000000000e+00,4.000000000000000000e+00,-3.000000000000000000e+00,0.000000000000000000e+00,-2.000000000000000000e+00,-1.000000000000000000e+00,-3.000000000000000000e+00,-3.913574218750000000e-01,8.312988281250000000e-02,7.483520507812500000e-01,5.289916992187500000e-01
-2.000000000000000000e+00,-2.000000000000000000e+00,8.000000000000000000e+00,0.000000000000000000e+00,1.000000000000000000e+00,0.000000000000000000e+00,-7.000000000000000000e+00,-4.000000000000000000e+00,-3.913574218750000000e-01,8.312988281250000000e-02,7.483520507812500000e-01,5.289916992187500000e-01
0.000000000000000000e+00,6.000000000000000000e+00,3.000000000000000000e+00,0.000000000000000000e+00,3.000000000000000000e+00,3.000000000000000000e+00,5.000000000000000000e+00,-4.000000000000000000e+00,-3.947143554687500000e-01,8.380126953125000000e-02,7.491455078125000000e-01,5.252075195312500000e-01
-4.000000000000000000e+00,-8.000000000000000000e+00,-1.500000000000000000e+01,-1.100000000000000000e+01,-5.000000000000000000e+00,-2.000000000000000000e+00,-6.000000000000000000e+00,-1.000000000000000000e+00,-3.947143554687500000e-01,8.380126953125000000e-02,7.491455078125000000e-01,5.252075195312500000e-01
-2.000000000000000000e+00,-8.000000000000000000e+00,-3.000000000000000000e+00,1.000000000000000000e+00,-1.000000000000000000e+00,-3.000000000000000000e+00,-2.000000000000000000e+00,-3.000000000000000000e+00,-3.947143554687500000e-01,8.380126953125000000e-02,7.491455078125000000e-01,5.252075195312500000e-01
2.000000000000000000e+00,-3.000000000000000000e+00,-1.000000000000000000e+00,-5.000000000000000000e+00,-1.000000000000000000e+00,0.000000000000000000e+00,2.000000000000000000e+00,-1.000000000000000000e+00,-3.947143554687500000e-01,8.380126953125000000e-02,7.491455078125000000e-01,5.252075195312500000e-01
-5.000000000000000000e+00,-1.000000000000000000e+00,-4.000000000000000000e+00,-5.000000000000000000e+00,-1.000000000000000000e+00,2.000000000000000000e+00,2.000000000000000000e+00,0.000000000000000000e+00,-3.980712890625000000e-01,8.416748046875000000e-02,7.495117187500000000e-01,5.222167968750000000e-01
1.000000000000000000e+00,-1.000000000000000000e+00,7.000000000000000000e+00,7.000000000000000000e+00,0.000000000000000000e+00,0.000000000000000000e+00,1.000000000000000000e+00,6.000000000000000000e+00,-3.980712890625000000e-01,8.416748046875000000e-02,7.495117187500000000e-01,5.222167968750000000e-01
0.000000000000000000e+00,2.000000000000000000e+00,7.000000000000000000e+00,1.000000000000000000e+00,-3.000000000000000000e+00,-5.000000000000000000e+00,0.000000000000000000e+00,-1.000000000000000000e+00,-3.980712890625000000e-01,8.416748046875000000e-02,7.495117187500000000e-01,5.222167968750000000e-01
1.000000000000000000e+00,-2.000000000000000000e+00,0.000000000000000000e+00,0.000000000000000000e+00,1.000000000000000000e+00,-3.000000000000000000e+00,-1.000000000000000000e+00,-3.000000000000000000e+00,-3.980712890625000000e-01,8.416748046875000000e-02,7.495117187500000000e-01,5.222167968750000000e-01
-3.000000000000000000e+00,0.000000000000000000e+00,-3.000000000000000000e+00,2.000000000000000000e+00,-2.000000000000000000e+00,1.000000000000000000e+00,0.000000000000000000e+00,0.000000000000000000e+00,-4.004516601562500000e-01,8.526611328125000000e-02,7.495727539062500000e-01,5.200195312500000000e-01
-3.000000000000000000e+00,-3.000000000000000000e+00,-3.000000000000000000e+00,-5.000000000000000000e+00,-3.000000000000000000e+00,1.000000000000000000e+00,-4.000000000000000000e+00,-2.000000000000000000e+00,-4.004516601562500000e-01,8.526611328125000000e-02,7.495727539062500000e-01,5.200195312500000000e-01
0.000000000000000000e+00,-5.000000000000000000e+00,-1.000000000000000000e+00,-2.000000000000000000e+00,-4.000000000000000000e+00,-4.000000000000000000e+00,1.000000000000000000e+00,-3.000000000000000000e+00,-4.004516601562500000e-01,8.526611328125000000e-02,7.495727539062500000e-01,5.200195312500000000e-01
0.000000000000000000e+00,-1.000000000000000000e+00,0.000000000000000000e+00,0.000000000000000000e+00,0.000000000000000000e+00,-2.000000000000000000e+00,-3.000000000000000000e+00,-2.000000000000000000e+00,-4.004516601562500000e-01,8.526611328125000000e-02,7.495727539062500000e-01,5.200195312500000000e-01
-3.000000000000000000e+00,-2.000000000000000000e+00,-4.000000000000000000e+00,-2.000000000000000000e+00,0.000000000000000000e+00,-1.000000000000000000e+00,-1.000000000000000000e+00,0.000000000000000000e+00,-4.016113281250000000e-01,8.764648437500000000e-02,7.497558593750000000e-01,5.184936523437500000e-01
0.000000000000000000e+00,2.000000000000000000e+00,0.000000000000000000e+00,3.000000000000000000e+00,3.000000000000000000e+00,-2.000000000000000000e+00,0.000000000000000000e+00,-1.000000000000000000e+00,-4.016113281250000000e-01,8.764648437500000000e-02,7.497558593750000000e-01,5.184936523437500000e-01
0.000000000000000000e+00,-6.000000000000000000e+00,-5.000000000000000000e+00,4.000000000000000000e+00,1.000000000000000000e+00,-2.000000000000000000e+00,0.000000000000000000e+00,-4.000000000000000000e+00,-4.016113281250000000e-01,8.764648437500000000e-02,7.497558593750000000e-01,5.184936523437500000e-01
-7.000000000000000000e+00,-1.000000000000000000e+01,-3.000000000000000000e+00,-3.000000000000000000e+00,-3.000000000000000000e+00,-1.000000000000000000e+00,-2.000000000000000000e+00,-2.000000000000000000e+00,-4.016113281250000000e-01,8.764648437500000000e-02,7.497558593750000000e-01,5.184936523437500000e-01
3.000000000000000000e+00,2.000000000000000000e+00,-3.000000000000000000e+00,-2.000000000000000000e+00,-4.000000000000000000e+00,-2.000000000000000000e+00,-3.000000000000000000e+00,-1.000000000000000000e+00,-4.029541015625000000e-01,8.917236328125000000e-02,7.497558593750000000e-01,5.172119140625000000e-01
5.000000000000000000e+00,4.000000000000000000e+00,-9.000000000000000000e+00,-5.000000000000000000e+00,-4.000000000000000000e+00,0.000000000000000000e+00,-1.000000000000000000e+00,-1.000000000000000000e+00,-4.029541015625000000e-01,8.917236328125000000e-02,7.497558593750000000e-01,5.172119140625000000e-01
-9.000000000000000000e+00,1.000000000000000000e+00,2.000000000000000000e+00,4.000000000000000000e+00,0.000000000000000000e+00,4.000000000000000000e+00,3.000000000000000000e+00,6.000000000000000000e+00,-4.029541015625000000e-01,8.917236328125000000e-02,7.497558593750000000e-01,5.172119140625000000e-01
1.000000000000000000e+00,3.000000000000000000e+00,2.000000000000000000e+00,4.000000000000000000e+00,-1.000000000000000000e+00,0.000000000000000000e+00,0.000000000000000000e+00,-1.000000000000000000e+00,-4.029541015625000000e-01,8.917236328125000000e-02,7.497558593750000000e-01,5.172119140625000000e-01
-6.000000000000000000e+00,-7.000000000000000000e+00,2.000000000000000000e+00,-1.000000000000000000e+00,0.000000000000000000e+00,-9.000000000000000000e+00,-7.000000000000000000e+00,-4.000000000000000000e+00,-4.036254882812500000e-01,8.905029296875000000e-02,7.498168945312500000e-01,5.165405273437500000e-01
0.000000000000000000e+00,-1.000000000000000000e+00,-1.000000000000000000e+00,-1.200000000000000000e+01,2.000000000000000000e+00,1.300000000000000000e+01,7.000000000000000000e+00,-1.300000000000000000e+01,-4.036254882812500000e-01,8.905029296875000000e-02,7.498168945312500000e-01,5.165405273437500000e-01
8.000000000000000000e+00,1.200000000000000000e+01,-1.000000000000000000e+00,8.000000000000000000e+00,4.000000000000000000e+00,1.000000000000000000e+00,7.000000000000000000e+00,7.000000000000000000e+00,-4.036254882812500000e-01,8.905029296875000000e-02,7.498168945312500000e-01,5.165405273437500000e-01
6.000000000000000000e+00,-3.000000000000000000e+00,0.000000000000000000e+00,-5.000000000000000000e+00,0.000000000000000000e+00,-1.000000000000000000e+00,-2.000000000000000000e+00,-2.000000000000000000e+00,-4.036254882812500000e-01,8.905029296875000000e-02,7.498168945312500000e-01,5.165405273437500000e-01
-4.000000000000000000e+00,-2.000000000000000000e+00,0.000000000000000000e+00,5.000000000000000000e+00,-2.000000000000000000e+00,-1.000000000000000000e+00,-3.000000000000000000e+00,-6.000000000000000000e+00,-4.026489257812500000e-01,8.911132812500000000e-02,7.508544921875000000e-01,5.158691406250000000e-01
-7.000000000000000000e+00,-5.000000000000000000e+00,-5.000000000000000000e+00,1.000000000000000000e+00,2.000000000000000000e+00,-4.000000000000000000e+00,0.000000000000000000e+00,1.000000000000000000e+00,-4.026489257812500000e-01,8.911132812500000000e-02,7.508544921875000000e-01,5.158691406250000000e-01
-1.600000000000000000e+01,-6.000000000000000000e+00,-2.300000000000000000e+01,2.000000000000000000e+00,-3.000000000000000000e+00,-3.000000000000000000e+00,-1.100000000000000000e+01,-9.000000000000000000e+00,-4.026489257812500000e-01,8.911132812500000000e-02,7.508544921875000000e-01,5.158691406250000000e-01
-4.000000000000000000e+00,-4.000000000000000000e+00,4.000000000000000000e+00,-7.000000000000000000e+00,-2.000000000000000000e+00,3.000000000000000000e+00,0.000000000000000000e+00,-3.000000000000000000e+00,-4.026489257812500000e-01,8.911132812500000000e-02,7.508544921875000000e-01,5.158691406250000000e-01
9.000000000000000000e+00,6.000000000000000000e+00,6.000000000000000000e+00,-4.000000000000000000e+00,-1.000000000000000000e+00,-1.000000000000000000e+00,4.000000000000000000e+00,6.000000000000000000e+00,-4.016723632812500000e-01,8.709716796875000000e-02,7.527465820312500000e-01,5.141601562500000000e-01
1.000000000000000000e+00,2.000000000000000000e+00,4.000000000000000000e+00,0.000000000000000000e+00,2.000000000000000000e+00,-2.000000000000000000e+00,-6.000000000000000000e+00,0.000000000000000000e+00,-4.016723632812500000e-01,8.709716796875000000e-02,7.527465820312500000e-01,5.141601562500000000e-01
3.000000000000000000e+00,1.000000000000000000e+00,-1.000000000000000000e+00,-6.000000000000000000e+00,-2.000000000000000000e+00,1.000000000000000000e+00,-1.000000000000000000e+00,9.000000000000000000e+00,-4.016723632812500000e-01,8.709716796875000000e-02,7.527465820312500000e-01,5.141601562500000000e-01
1.000000000000000000e+00,1.000000000000000000e+00,1.000000000000000000e+00,6.000000000000000000e+00,-3.000000000000000000e+00,-4.000000000000000000e+00,-3.000000000000000000e+00,-6.000000000000000000e+00,-4.016723632812500000e-01,8.709716796875000000e-02,7.527465820312500000e-01,5.141601562500000000e-01
-1.100000000000000000e+01,-4.000000000000000000e+00,-2.000000000000000000e+00,0.000000000000000000e+00,-1.000000000000000000e+00,0.000000000000000000e+00,-2.000000000000000000e+00,-9.000000000000000000e+00,-4.005126953125000000e-01,8.441162109375000000e-02,7.546997070312500000e-01,5.126342773437500000e-01
-8.000000000000000000e+00,-2.000000000000000000e+00,3.000000000000000000e+00,-4.000000000000000000e+00,1.000000000000000000e+00,-1.000000000000000000e+00,-4.000000000000000000e+00,5.000000000000000000e+00,-4.005126953125000000e-01,8.441162109375000000e-02,7.546997070312500000e-01,5.126342773437500000e-01
1.900000000000000000e+01,3.000000000000000000e+00,4.000000000000000000e+00,-4.000000000000000000e+00,-4.000000000000000000e+00,-2.000000000000000000e+00,-1.000000000000000000e+00,1.400000000000000000e+01,-4.005126953125000000e-01,8.441162109375000000e-02,7.546997070312500000e-01,5.126342773437500000e-01
-1.000000000000000000e+00,1.000000000000000000e+00,-6.000000000000000000e+00,-9.000000000000000000e+00,-1.000000000000000000e+00,-1.000000000000000000e+00,-6.000000000000000000e+00,0.000000000000000000e+00,-4.005126953125000000e-01,8.441162109375000000e-02,7.546997070312500000e-01,5.126342773437500000e-01
1.000000000000000000e+00,2.000000000000000000e+00,-6.000000000000000000e+00,8.000000000000000000e+00,-2.000000000000000000e+00,-2.000000000000000000e+00,-2.000000000000000000e+00,1.000000000000000000e+00,-3.981933593750000000e-01,8.270263671875000000e-02,7.565307617187500000e-01,5.120849609375000000e-01
-6.000000000000000000e+00,-1.300000000000000000e+01,7.000000000000000000e+00,0.000000000000000000e+00,-4.000000000000000000e+00,-8.000000000000000000e+00,-2.400000000000000000e+01,-1.900000000000000000e+01,-3.981933593750000000e-01,8.270263671875000000e-02,7.565307617187500000e-01,5.120849609375000000e-01
2.000000000000000000e+00,2.000000000000000000e+00,2.000000000000000000e+00,2.000000000000000000e+00,1.000000000000000000e+00,3.000000000000000000e+00,2.900000000000000000e+01,1.300000000000000000e+01,-3.981933593750000000e-01,8.270263671875000000e-02,7.565307617187500000e-01,5.120849609375000000e-01
-4.000000000000000000e+00,-7.000000000000000000e+00,-6.000000000000000000e+00,-9.000000000000000000e+00,0.000000000000000000e+00,0.000000000000000000e+00,-1.100000000000000000e+01,-6.000000000000000000e+00,-3.981933593750000000e-01,8.270263671875000000e-02,7.565307617187500000e-01,5.120849609375000000e-01
5.000000000000000000e+00,-2.000000000000000000e+00,-1.000000000000000000e+00,-3.000000000000000000e+00,-2.000000000000000000e+00,-6.000000000000000000e+00,-3.000000000000000000e+00,4.000000000000000000e+00,-3.954467773437500000e-01,8.221435546875000000e-02,7.578735351562500000e-01,5.123291015625000000e-01
0.000000000000000000e+00,6.000000000000000000e+00,7.000000000000000000e+00,6.000000000000000000e+00,1.000000000000000000e+00,-4.000000000000000000e+00,1.000000000000000000e+00,0.000000000000000000e+00,-3.954467773437500000e-01,8.221435546875000000e-02,7.578735351562500000e-01,5.123291015625000000e-01
-1.000000000000000000e+00,-2.000000000000000000e+00,2.000000000000000000e+00,-6.000000000000000000e+00,-1.000000000000000000e+00,-2.000000000000000000e+00,-1.300000000000000000e+01,-1.100000000000000000e+01,-3.954467773437500000e-01,8.221435546875000000e-02,7.578735351562500000e-01,5.123291015625000000e-01
0.000000000000000000e+00,1.000000000000000000e+00,-1.300000000000000000e+01,-2.000000000000000000e+00,-2.000000000000000000e+00,-2.000000000000000000e+00,1.300000000000000000e+01,9.000000000000000000e+00,-3.954467773437500000e-01,8.221435546875000000e-02,7.578735351562500000e-01,5.123291015625000000e-01
-2.000000000000000000e+00,-1.000000000000000000e+00,7.000000000000000000e+00,-6.000000000000000000e+00,-1.000000000000000000e+00,0.000000000000000000e+00,-5.000000000000000000e+00,-5.000000000000000000e+00,-3.924560546875000000e-01,8.422851562500000000e-02,7.582397460937500000e-01,5.136718750000000000e-01
3.000000000000000000e+00,2.000000000000000000e+00,-2.000000000000000000e+00,1.700000000000000000e+01,1.000000000000000000e+00,-1.000000000000000000e+00,0.000000000000000000e+00,5.000000000000000000e+00,-3.924560546875000000e-01,8.422851562500000000e-02,7.582397460937500000e-01,5.136718750000000000e-01
-5.000000000000000000e+00,1.000000000000000000e+00,1.200000000000000000e+01,-1.000000000000000000e+00,-1.000000000000000000e+00,-3.000000000000000000e+00,-2.000000000000000000e+00,-9.000000000000000000e+00,-3.924560546875000000e-01,8.422851562500000000e-02,7.582397460937500000e-01,5.136718750000000000e-01
-1.000000000000000000e+00,-6.000000000000000000e+00,-2.200000000000000000e+01,-4.000000000000000000e+00,-3.000000000000000000e+00,-1.000000000000000000e+00,6.000000000000000000e+00,1.000000000000000000e+00,-3.924560546875000000e-01,8.422851562500000000e-02,7.582397460937500000e-01,5.136718750000000000e-01
-3.000000000000000000e+00,3.000000000000000000e+00,1.500000000000000000e+01,6.000000000000000000e+00,1.000000000000000000e+00,4.000000000000000000e+00,1.000000000000000000e+00,2.000000000000000000e+00,-3.901367187500000000e-01,8.728027343750000000e-02,7.581787109375000000e-01,5.150756835937500000e-01
2.000000000000000000e+00,1.000000000000000000e+00,1.000000000000000000e+01,-9.000000000000000000e+00,-4.000000000000000000e+00,-2.000000000000000000e+00,5.000000000000000000e+00,1.000000000000000000e+00,-3.901367187500000000e-01,8.728027343750000000e-02,7.581787109375000000e-01,5.150756835937500000e-01
-2.000000000000000000e+00,-5.000000000000000000e+00,-2.000000000000000000e+01,-9.000000000000000000e+00,-1.000000000000000000e+00,0.000000000000000000e+00,-3.000000000000000000e+00,-7.000000000000000000e+00,-3.901367187500000000e-01,8.728027343750000000e-02,7.581787109375000000e-01,5.150756835937500000e-01
1.000000000000000000e+00,9.000000000000000000e+00,3.000000000000000000e+01,1.200000000000000000e+01,2.000000000000000000e+00,-1.000000000000000000e+00,-2.000000000000000000e+00,4.000000000000000000e+00,-3.901367187500000000e-01,8.728027343750000000e-02,7.581787109375000000e-01,5.150756835937500000e-01
-2.000000000000000000e+00,-4.000000000000000000e+00,-2.800000000000000000e+01,-1.000000000000000000e+01,-2.000000000000000000e+00,0.000000000000000000e+00,-4.000000000000000000e+00,-3.000000000000000000e+00,-3.882446289062500000e-01,8.990478515625000000e-02,7.579956054687500000e-01,5.162963867187500000e-01
-4.000000000000000000e+00,0.000000000000000000e+00,4.000000000000000000e+00,7.000000000000000000e+00,-2.000000000000000000e+00,0.000000000000000000e+00,1.000000000000000000e+00,-4.000000000000000000e+00,-3.882446289062500000e-01,8.990478515625000000e-02,7.579956054687500000e-01,5.162963867187500000e-01
1.100000000000000000e+01,-2.000000000000000000e+00,-4.000000000000000000e+00,1.000000000000000000e+00,-3.000000000000000000e+00,1.000000000000000000e+00,3.000000000000000000e+00,1.400000000000000000e+01,-3.882446289062500000e-01,8.990478515625000000e-02,7.579956054687500000e-01,5.162963867187500000e-01
-2.000000000000000000e+01,-2.000000000000000000e+00,8.000000000000000000e+00,-6.000000000000000000e+00,-2.000000000000000000e+00,-3.000000000000000000e+00,-9.000000000000000000e+00,-4.000000000000000000e+00,-3.882446289062500000e-01,8.990478515625000000e-02,7.579956054687500000e-01,5.162963867187500000e-01
1.800000000000000000e+01,-1.100000000000000000e+01,-6.000000000000000000e+00,1.000000000000000000e+00,-1.000000000000000000e+00,-1.000000000000000000e+00,3.000000000000000000e+00,-3.000000000000000000e+00,-3.865356445312500000e-01,9.204101562500000000e-02,7.577514648437500000e-01,5.175170898437500000e-01
0.000000000000000000e+00,6.000000000000000000e+00,3.000000000000000000e+00,-7.000000000000000000e+00,1.000000000000000000e+00,0.000000000000000000e+00,1.000000000000000000e+00,-4.000000000000000000e+00,-3.865356445312500000e-01,9.204101562500000000e-02,7.577514648437500000e-01,5.175170898437500000e-01
-8.000000000000000000e+00,-4.000000000000000000e+00,1.000000000000000000e+00,-5.000000000000000000e+00,0.000000000000000000e+00,0.000000000000000000e+00,-5.000000000000000000e+00,0.000000000000000000e+00,-3.865356445312500000e-01,9.204101562500000000e-02,7.577514648437500000e-01,5.175170898437500000e-01
3.000000000000000000e+00,2.000000000000000000e+00,6.000000000000000000e+00,5.000000000000000000e+00,-3.000000000000000000e+00,-3.000000000000000000e+00,-2.000000000000000000e+00,2.000000000000000000e+00,-3.865356445312500000e-01,9.204101562500000000e-02,7.577514648437500000e-01,5.175170898437500000e-01
-5.000000000000000000e+00,6.000000000000000000e+00,1.000000000000000000e+01,0.000000000000000000e+00,2.000000000000000000e+00,4.000000000000000000e+00,1.000000000000000000e+00,2.000000000000000000e+00,-3.858032226562500000e-01,9.295654296875000000e-02,7.576293945312500000e-01,5.180664062500000000e-01
2.000000000000000000e+00,-5.000000000000000000e+00,-1.100000000000000000e+01,-5.000000000000000000e+00,-6.000000000000000000e+00,-5.000000000000000000e+00,-1.500000000000000000e+01,2.000000000000000000e+00,-3.858032226562500000e-01,9.295654296875000000e-02,7.576293945312500000e-01,5.180664062500000000e-01
1.000000000000000000e+00,2.000000000000000000e+00,1.000000000000000000e+01,1.000000000000000000e+00,-1.000000000000000000e+00,6.000000000000000000e+00,1.900000000000000000e+01,-3.000000000000000000e+00,-3.858032226562500000e-01,9.295654296875000000e-02,7.576293945312500000e-01,5.180664062500000000e-01
1.000000000000000000e+00,-5.000000000000000000e+00,-5.000000000000000000e+00,2.000000000000000000e+00,0.000000000000000000e+00,2.000000000000000000e+00,-2.000000000000000000e+00,-5.000000000000000000e+00,-3.858032226562500000e-01,9.295654296875000000e-02,7.576293945312500000e-01,5.180664062500000000e-01
-7.000000000000000000e+00,2.000000000000000000e+00,-4.000000000000000000e+00,-1.000000000000000000e+01,0.000000000000000000e+00,2.000000000000000000e+00,4.000000000000000000e+00,-3.000000000000000000e+00,-3.858032226562500000e-01,9.246826171875000000e-02,7.574462890625000000e-01,5.184936523437500000e-01
-5.000000000000000000e+00,-4.000000000000000000e+00,4.000000000000000000e+00,0.000000000000000000e+00,-5.000000000000000000e+00,-3.000000000000000000e+00,6.000000000000000000e+00,1.000000000000000000e+01,-3.858032226562500000e-01,9.246826171875000000e-02,7.574462890625000000e-01,5.184936523437500000e-01
-1.000000000000000000e+01,1.000000000000000000e+00,-5.000000000000000000e+00,2.000000000000000000e+00,2.000000000000000000e+00,-5.000000000000000000e+00,-1.700000000000000000e+01,-1.300000000000000000e+01,-3.858032226562500000e-01,9.246826171875000000e-02,7.574462890625000000e-01,5.184936523437500000e-01
1.200000000000000000e+01,1.000000000000000000e+01,5.000000000000000000e+00,-2.000000000000000000e+00,0.000000000000000000e+00,-6.000000000000000000e+00,-8.000000000000000000e+00,4.000000000000000000e+00,-3.858032226562500000e-01,9.246826171875000000e-02,7.574462890625000000e-01,5.184936523437500000e-01
-3.000000000000000000e+00,1.000000000000000000e+00,1.300000000000000000e+01,-4.000000000000000000e+00,-2.000000000000000000e+00,2.000000000000000000e+00,1.000000000000000000e+00,-2.000000000000000000e+00,-3.859863281250000000e-01,9.167480468750000000e-02,7.571411132812500000e-01,5.189819335937500000e-01
-5.000000000000000000e+00,-1.000000000000000000e+01,-3.000000000000000000e+00,1.000000000000000000e+00,-2.000000000000000000e+00,0.000000000000000000e+00,2.000000000000000000e+00,4.000000000000000000e+00,-3.859863281250000000e-01,9.167480468750000000e-02,7.571411132812500000e-01,5.189819335937500000e-01
-8.000000000000000000e+00,-4.000000000000000000e+00,5.000000000000000000e+00,-3.000000000000000000e+00,-7.000000000000000000e+00,-2.000000000000000000e+00,-7.000000000000000000e+00,-8.000000000000000000e+00,-3.859863281250000000e-01,9.167480468750000000e-02,7.571411132812500000e-01,5.189819335937500000e-01
-5.000000000000000000e+00,-1.000000000000000000e+00,-5.000000000000000000e+00,2.000000000000000000e+00,3.000000000000000000e+00,2.000000000000000000e+00,4.000000000000000000e+00,-2.100000000000000000e+01,-3.859863281250000000e-01,9.167480468750000000e-02,7.571411132812500000e-01,5.189819335937500000e-01
1.000000000000000000e+01,2.000000000000000000e+00,4.000000000000000000e+00,6.000000000000000000e+00,-2.000000000000000000e+00,-2.000000000000000000e+00,-3.000000000000000000e+00,9.000000000000000000e+00,-3.868408203125000000e-01,9.094238281250000000e-02,7.569580078125000000e-01,5.186157226562500000e-01
9.000000000000000000e+00,7.000000000000000000e+00,1.300000000000000000e+01,-4.000000000000000000e+00,-2.000000000000000000e+00,-2.000000000000000000e+00,3.000000000000000000e+00,5.000000000000000000e+00,-3.868408203125000000e-01,9.094238281250000000e-02,7.569580078125000000e-01,5.186157226562500000e-01
-6.000000000000000000e+00,-1.100000000000000000e+01,-1.600000000000000000e+01,-4.000000000000000000e+00,-3.000000000000000000e+00,-4.000000000000000000e+00,-3.000000000000000000e+00,-5.000000000000000000e+00,-3.868408203125000000e-01,9.094238281250000000e-02,7.569580078125000000e-01,5.186157226562500000e-01
-8.000000000000000000e+00,-4.000000000000000000e+00,5.000000000000000000e+00,2.000000000000000000e+00,-1.000000000000000000e+00,0.000000000000000000e+00,-3.000000000000000000e+00,-4.000000000000000000e+00,-3.868408203125000000e-01,9.094238281250000000e-02,7.569580078125000000e-01,5.186157226562500000e-01
-5.000000000000000000e+00,4.000000000000000000e+00,-4.000000000000000000e+00,4.000000000000000000e+00,2.000000000000000000e+00,0.000000000000000000e+00,4.000000000000000000e+00,-3.000000000000000000e+00,-3.886108398437500000e-01,8.862304687500000000e-02,7.570190429687500000e-01,5.176391601562500000e-01
-3.000000000000000000e+00,-1.300000000000000000e+01,-1.600000000000000000e+01,-1.400000000000000000e+01,-3.000000000000000000e+00,-1.000000000000000000e+00,2.000000000000000000e+00,-5.000000000000000000e+00,-3.886108398437500000e-01,8.862304687500000000e-02,7.570190429687500000e-01,5.176391601562500000e-01
6.000000000000000000e+00,8.000000000000000000e+00,2.000000000000000000e+00,6.000000000000000000e+00,2.000000000000000000e+00,-3.000000000000000000e+00,-2.000000000000000000e+00,1.000000000000000000e+00,-3.886108398437500000e-01,8.862304687500000000e-02,7.570190429687500000e-01,5.176391601562500000e-01
-3.000000000000000000e+00,-6.000000000000000000e+00,-1.100000000000000000e+01,-1.100000000000000000e+01,-4.000000000000000000e+00,1.000000000000000000e+00,3.000000000000000000e+00,0.000000000000000000e+00,-3.886108398437500000e-01,8.862304687500000000e-02,7.570190429687500000e-01,5.176391601562500000e-01
-3.000000000000000000e+00,0.000000000000000000e+00,2.000000000000000000e+00,1.700000000000000000e+01,3.000000000000000000e+00,2.000000000000000000e+00,-1.000000000000000000e+00,0.000000000000000000e+00,-3.900146484375000000e-01,8.618164062500000000e-02,7.566528320312500000e-01,5.175170898437500000e-01
-2.000000000000000000e+00,7.000000000000000000e+00,-4.000000000000000000e+00,-5.000000000000000000e+00,-2.000000000000000000e+00,3.000000000000000000e+00,-1.000000000000000000e+00,-1.000000000000000000e+00,-3.900146484375000000e-01,8.618164062500000000e-02,7.566528320312500000e-01,5.175170898437500000e-01
3.000000000000000000e+00,-3.000000000000000000e+00,1.400000000000000000e+01,-3.000000000000000000e+00,-2.000000000000000000e+00,-7.000000000000000000e+00,-7.000000000000000000e+00,-7.000000000000000000e+00,-3.900146484375000000e-01,8.618164062500000000e-02,7.566528320312500000e-01,5.175170898437500000e-01
6.000000000000000000e+00,2.000000000000000000e+00,-1.600000000000000000e+01,-1.000000000000000000e+00,-2.000000000000000000e+00,-2.000000000000000000e+00,4.000000000000000000e+00,5.000000000000000000e+00,-3.900146484375000000e-01,8.618164062500000000e-02,7.566528320312500000e-01,5.175170898437500000e-01
0.000000000000000000e+00,-7.000000000000000000e+00,-4.000000000000000000e+00,-3.000000000000000000e+00,-6.000000000000000000e+00,-4.000000000000000000e+00,-3.000000000000000000e+00,1.000000000000000000e+00,-3.904418945312500000e-01,8.508300781250000000e-02,7.561035156250000000e-01,5.182495117187500000e-01
-5.000000000000000000e+00,0.000000000000000000e+00,-1.400000000000000000e+01,3.000000000000000000e+00,3.000000000000000000e+00,4.000000000000000000e+00,-1.000000000000000000e+00,-1.000000000000000000e+01,-3.904418945312500000e-01,8.508300781250000000e-02,7.561035156250000000e-01,5.182495117187500000e-01
-5.000000000000000000e+00,-6.000000000000000000e+00,-1.900000000000000000e+01,-6.000000000000000000e+00,-3.000000000000000000e+00,0.000000000000000000e+00,-3.000000000000000000e+00,-4.000000000000000000e+00,-3.904418945312500000e-01,8.508300781250000000e-02,7.561035156250000000e-01,5.182495117187500000e-01
-1.000000000000000000e+00,0.000000000000000000e+00,2.000000000000000000e+01,0.000000000000000000e+00,-1.000000000000000000e+00,-1.000000000000000000e+00,1.000000000000000000e+00,2.000000000000000000e+00,-3.904418945312500000e-01,8.508300781250000000e-02,7.561035156250000000e-01,5.182495117187500000e-01
-5.000000000000000000e+00,2.000000000000000000e+00,0.000000000000000000e+00,0.000000000000000000e+00,-1.000000000000000000e+00,-4.000000000000000000e+00,-1.000000000000000000e+00,-1.000000000000000000e+00,-3.903198242187500000e-01,8.502197265625000000e-02,7.554931640625000000e-01,5.192260742187500000e-01
0.000000000000000000e+00,-5.000000000000000000e+00,-2.000000000000000000e+01,-6.000000000000000000e+00,-3.000000000000000000e+00,-3.000000000000000000e+00,1.000000000000000000e+00,1.000000000000000000e+00,-3.903198242187500000e-01,8.502197265625000000e-02,7.554931640625000000e-01,5.192260742187500000e-01
1.000000000000000000e+00,7.000000000000000000e+00,2.300000000000000000e+01,6.000000000000000000e+00,5.000000000000000000e+00,2.000000000000000000e+00,0.000000000000000000e+00,-4.000000000000000000e+00,-3.903198242187500000e-01,8.502197265625000000e-02,7.554931640625000000e-01,5.192260742187500000e-01
0.000000000000000000e+00,4.000000000000000000e+00,-2.900000000000000000e+01,3.000000000000000000e+00,1.000000000000000000e+00,-3.000000000000000000e+00,1.000000000000000000e+00,1.000000000000000000e+01,-3.903198242187500000e-01,8.502197265625000000e-02,7.554931640625000000e-01,5.192260742187500000e-01
-5.000000000000000000e+00,-1.100000000000000000e+01,0.000000000000000000e+00,-9.000000000000000000e+00,-3.000000000000000000e+00,-1.000000000000000000e+00,-5.000000000000000000e+00,-4.000000000000000000e+00,-3.901367187500000000e-01,8.471679687500000000e-02,7.550659179687500000e-01,5.200195312500000000e-01
-1.000000000000000000e+00,3.000000000000000000e+00,1.000000000000000000e+00,-3.000000000000000000e+00,0.000000000000000000e+00,0.000000000000000000e+00,-5.000000000000000000e+00,1.000000000000000000e+00,-3.901367187500000000e-01,8.471679687500000000e-02,7.550659179687500000e-01,5.200195312500000000e-01
1.000000000000000000e+00,-4.000000000000000000e+00,-3.000000000000000000e+00,-2.000000000000000000e+00,-4.000000000000000000e+00,0.000000000000000000e+00,1.000000000000000000e+00,-1.000000000000000000e+00,-3.901367187500000000e-01,8.471679687500000000e-02,7.550659179687500000e-01,5.200195312500000000e-01
1.000000000000000000e+00,0.000000000000000000e+00,7.000000000000000000e+00,5.000000000000000000e+00,-1.000000000000000000e+00,1.000000000000000000e+00,-2.000000000000000000e+00,-5.000000000000000000e+00,-3.901367187500000000e-01,8.471679687500000000e-02,7.550659179687500000e-01,5.200195312500000000e-01
-2.000000000000000000e+00,4.000000000000000000e+00,1.000000000000000000e+00,-3.000000000000000000e+00,1.000000000000000000e+00,-2.000000000000000000e+00,4.000000000000000000e+00,7.000000000000000000e+00,-3.895263671875000000e-01,8.398437500000000000e-02,7.548217773437500000e-01,5.209350585937500000e-01
0.000000000000000000e+00,-4.000000000000000000e+00,-1.000000000000000000e+01,3.000000000000000000e+00,-2.000000000000000000e+00,-1.000000000000000000e+00,3.000000000000000000e+00,-2.000000000000000000e+00,-3.895263671875000000e-01,8.398437500000000000e-02,7.548217773437500000e-01,5.209350585937500000e-01
-4.000000000000000000e+00,-2.000000000000000000e+00,1.000000000000000000e+00,-3.000000000000000000e+00,0.000000000000000000e+00,-1.000000000000000000e+00,-2.000000000000000000e+00,-1.300000000000000000e+01,-3.895263671875000000e-01,8.398437500000000000e-02,7.548217773437500000e-01,5.209350585937500000e-01
1.000000000000000000e+00,1.000000000000000000e+00,7.000000000000000000e+00,0.000000000000000000e+00,-1.000000000000000000e+00,0.000000000000000000e+00,-2.000000000000000000e+00,1.000000000000000000e+00,-3.895263671875000000e-01,8.398437500000000000e-02,7.548217773437500000e-01,5.209350585937500000e-01
-2.000000000000000000e+00,-1.000000000000000000e+00,-3.000000000000000000e+00,-7.000000000000000000e+00,-2.000000000000000000e+00,2.000000000000000000e+00,0.000000000000000000e+00,-3.000000000000000000e+00,-3.886718750000000000e-01,8.233642578125000000e-02,7.548828125000000000e-01,5.217895507812500000e-01
5.000000000000000000e+00,2.000000000000000000e+00,4.000000000000000000e+00,5.000000000000000000e+00,3.000000000000000000e+00,-1.000000000000000000e+00,-3.000000000000000000e+00,7.000000000000000000e+00,-3.886718750000000000e-01,8.233642578125000000e-02,7.548828125000000000e-01,5.217895507812500000e-01
6.000000000000000000e+00,4.000000000000000000e+00,3.000000000000000000e+00,-5.000000000000000000e+00,0.000000000000000000e+00,0.000000000000000000e+00,-2.000000000000000000e+00,1.100000000000000000e+01,-3.886718750000000000e-01,8.233642578125000000e-02,7.548828125000000000e-01,5.217895507812500000e-01
3.000000000000000000e+00,-6.000000000000000000e+00,-1.600000000000000000e+01,-9.000000000000000000e+00,-4.000000000000000000e+00,-1.000000000000000000e+00,1.000000000000000000e+00,-3.000000000000000000e+00,-3.886718750000000000e-01,8.233642578125000000e-02,7.548828125000000000e-01,5.217895507812500000e-01
-5.000000000000000000e+00,-8.000000000000000000e+00,6.000000000000000000e+00,8.000000000000000000e+00,0.000000000000000000e+00,-1.000000000000000000e+00,-1.000000000000000000e+00,0.000000000000000000e+00,-3.878173828125000000e-01,8.013916015625000000e-02,7.549438476562500000e-01,5.226440429687500000e-01
-2.000000000000000000e+00,0.000000000000000000e+00,1.000000000000000000e+00,-1.100000000000000000e+01,-6.000000000000000000e+00,-3.000000000000000000e+00,1.000000000000000000e+00,0.000000000000000000e+00,-3.878173828125000000e-01,8.013916015625000000e-02,7.549438476562500000e-01,5.226440429687500000e-01
1.000000000000000000e+00,-4.000000000000000000e+00,-1.400000000000000000e+01,5.000000000000000000e+00,1.000000000000000000e+00,-1.000000000000000000e+00,0.000000000000000000e+00,5.000000000000000000e+00,-3.878173828125000000e-01,8.013916015625000000e-02,7.549438476562500000e-01,5.226440429687500000e-01
1.100000000000000000e+01,2.000000000000000000e+00,2.000000000000000000e+01,4.000000000000000000e+00,-1.000000000000000000e+00,0.000000000000000000e+00,-4.000000000000000000e+00,-2.000000000000000000e+00,-3.878173828125000000e-01,8.013916015625000000e-02,7.549438476562500000e-01,5.226440429687500000e-01
-6.000000000000000000e+00,-7.000000000000000000e+00,-1.800000000000000000e+01,1.000000000000000000e+00,-6.000000000000000000e+00,-1.000000000000000000e+00,-2.000000000000000000e+00,1.000000000000000000e+00,-3.873291015625000000e-01,7.739257812500000000e-02,7.554931640625000000e-01,5.226440429687500000e-01
1.000000000000000000e+00,1.000000000000000000e+00,0.000000000000000000e+00,-1.000000000000000000e+00,3.000000000000000000e+00,1.000000000000000000e+00,1.000000000000000000e+00,-2.000000000000000000e+00,-3.873291015625000000e-01,7.739257812500000000e-02,7.554931640625000000e-01,5.226440429687500000e-01
4.000000000000000000e+00,8.000000000000000000e+00,1.000000000000000000e+00,-6.000000000000000000e+00,-3.000000000000000000e+00,1.000000000000000000e+00,-1.000000000000000000e+00,1.000000000000000000e+00,-3.873291015625000000e-01,7.739257812500000000e-02,7.554931640625000000e-01,5.226440429687500000e-01
-9.000000000000000000e+00,-9.000000000000000000e+00,1.000000000000000000e+00,0.000000000000000000e+00,-3.000000000000000000e+00,1.000000000000000000e+00,-2.000000000000000000e+00,-3.000000000000000000e+00,-3.873291015625000000e-01,7.739257812500000000e-02,7.554931640625000000e-01,5.226440429687500000e-01
-2.000000000000000000e+00,5.000000000000000000e+00,7.000000000000000000e+00,-2.000000000000000000e+00,-1.000000000000000000e+00,-5.000000000000000000e+00,-3.000000000000000000e+00,-7.000000000000000000e+00,-3.869628906250000000e-01,7.403564453125000000e-02,7.562866210937500000e-01,5.222778320312500000e-01
-9.000000000000000000e+00,3.000000000000000000e+00,1.000000000000000000e+00,-2.000000000000000000e+00,3.000000000000000000e+00,1.000000000000000000e+00,5.000000000000000000e+00,-1.000000000000000000e+00,-3.869628906250000000e-01,7.403564453125000000e-02,7.562866210937500000e-01,5.222778320312500000e-01
2.000000000000000000e+00,-1.200000000000000000e+01,-2.000000000000000000e+01,-1.300000000000000000e+01,-4.000000000000000000e+00,1.000000000000000000e+00,-1.000000000000000000e+00,-1.000000000000000000e+00,-3.869628906250000000e-01,7.403564453125000000e-02,7.562866210937500000e-01,5.222778320312500000e-01
-3.000000000000000000e+00,4.000000000000000000e+00,6.000000000000000000e+00,1.000000000000000000e+00,1.000000000000000000e+00,-3.000000000000000000e+00,-2.000000000000000000e+00,2.000000000000000000e+00,-3.869628906250000000e-01,7.403564453125000000e-02,7.562866210937500000e-01,5.222778320312500000e-01
2.000000000000000000e+00,4.000000000000000000e+00,-1.000000000000000000e+00,2.000000000000000000e+00,2.000000000000000000e+00,-1.000000000000000000e+00,2.000000000000000000e+00,0.000000000000000000e+00,-3.857421875000000000e-01,7.165527343750000000e-02,7.564697265625000000e-01,5.231933593750000000e-01
-7.000000000000000000e+00,-1.000000000000000000e+00,1.400000000000000000e+01,4.000000000000000000e+00,-3.000000000000000000e+00,-5.000000000000000000e+00,3.000000000000000000e+00,9.000000000000000000e+00,-3.857421875000000000e-01,7.165527343750000000e-02,7.564697265625000000e-01,5.231933593750000000e-01
-2.000000000000000000e+00,0.000000000000000000e+00,6.000000000000000000e+00,7.000000000000000000e+00,4.000000000000000000e+00,-2.000000000000000000e+00,-6.000000000000000000e+00,-8.000000000000000000e+00,-3.857421875000000000e-01,7.165527343750000000e-02,7.564697265625000000e-01,5.231933593750000000e-01
-1.100000000000000000e+01,-2.000000000000000000e+00,0.000000000000000000e+00,2.000000000000000000e+00,-2.000000000000000000e+00,-2.000000000000000000e+00,-5.000000000000000000e+00,0.000000000000000000e+00,-3.857421875000000000e-01,7.165527343750000000e-02,7.564697265625000000e-01,5.231933593750000000e-01
1.000000000000000000e+00,0.000000000000000000e+00,-6.000000000000000000e+00,-1.100000000000000000e+01,-3.000000000000000000e+00,3.000000000000000000e+00,2.000000000000000000e+00,0.000000000000000000e+00,-3.847045898437500000e-01,7.080078125000000000e-02,7.562255859375000000e-01,5.244750976562500000e-01
1.700000000000000000e+01,0.000000000000000000e+00,9.000000000000000000e+00,1.000000000000000000e+01,0.000000000000000000e+00,0.000000000000000000e+00,-2.000000000000000000e+00,-1.000000000000000000e+00,-3.847045898437500000e-01,7.080078125000000000e-02,7.562255859375000000e-01,5.244750976562500000e-01
-5.000000000000000000e+00,0.000000000000000000e+00,-6.000000000000000000e+00,-1.100000000000000000e+01,-3.000000000000000000e+00,1.000000000000000000e+00,3.000000000000000000e+00,-3.000000000000000000e+00,-3.847045898437500000e-01,7.080078125000000000e-02,7.562255859375000000e-01,5.244750976562500000e-01
-4.000000000000000000e+00,-1.000000000000000000e+01,-3.000000000000000000e+00,1.000000000000000000e+01,-2.000000000000000000e+00,-4.000000000000000000e+00,-8.000000000000000000e+00,-7.000000000000000000e+00,-3.847045898437500000e-01,7.080078125000000000e-02,7.562255859375000000e-01,5.244750976562500000e-01
-4.000000000000000000e+00,4.000000000000000000e+00,1.500000000000000000e+01,-7.000000000000000000e+00,0.000000000000000000e+00,0.000000000000000000e+00,0.000000000000000000e+00,-2.000000000000000000e+00,-3.838500976562500000e-01,7.092285156250000000e-02,7.554931640625000000e-01,5.261230468750000000e-01
-2.000000000000000000e+00,-3.000000000000000000e+00,-5.000000000000000000e+00,-6.000000000000000000e+00,-4.000000000000000000e+00,-2.000000000000000000e+00,-3.000000000000000000e+00,-2.000000000000000000e+00,-3.838500976562500000e-01,7.092285156250000000e-02,7.554931640625000000e-01,5.261230468750000000e-01
-4.000000000000000000e+00,0.000000000000000000e+00,8.000000000000000000e+00,1.100000000000000000e+01,2.000000000000000000e+00,-3.000000000000000000e+00,-1.000000000000000000e+00,0.000000000000000000e+00,-3.838500976562500000e-01,7.092285156250000000e-02,7.554931640625000000e-01,5.261230468750000000e-01
1.000000000000000000e+00,2.000000000000000000e+00,6.000000000000000000e+00,-4.000000000000000000e+00,0.000000000000000000e+00,0.000000000000000000e+00,2.000000000000000000e+00,-1.000000000000000000e+00,-3.838500976562500000e-01,7.092285156250000000e-02,7.554931640625000000e-01,5.261230468750000000e-01
0.000000000000000000e+00,-5.000000000000000000e+00,-8.000000000000000000e+00,-4.000000000000000000e+00,-1.000000000000000000e+00,-1.000000000000000000e+00,-2.000000000000000000e+00,1.000000000000000000e+00,-3.829956054687500000e-01,7.202148437500000000e-02,7.543334960937500000e-01,5.282592773437500000e-01
-1.000000000000000000e+00,-2.000000000000000000e+00,-4.000000000000000000e+00,-4.000000000000000000e+00,-2.000000000000000000e+00,2.000000000000000000e+00,-3.000000000000000000e+00,-2.000000000000000000e+00,-3.829956054687500000e-01,7.202148437500000000e-02,7.543334960937500000e-01,5.282592773437500000e-01
1.000000000000000000e+00,3.000000000000000000e+00,1.100000000000000000e+01,-2.000000000000000000e+00,-1.000000000000000000e+00,1.000000000000000000e+00,1.000000000000000000e+00,2.000000000000000000e+00,-3.829956054687500000e-01,7.202148437500000000e-02,7.543334960937500000e-01,5.282592773437500000e-01
0.000000000000000000e+00,3.000000000000000000e+00,7.000000000000000000e+00,8.000000000000000000e+00,-1.000000000000000000e+00,0.000000000000000000e+00,4.000000000000000000e+00,3.000000000000000000e+00,-3.829956054687500000e-01,7.202148437500000000e-02,7.543334960937500000e-01,5.282592773437500000e-01
-1.000000000000000000e+00,0.000000000000000000e+00,7.000000000000000000e+00,2.000000000000000000e+00,0.000000000000000000e+00,-1.000000000000000000e+00,-3.000000000000000000e+00,-1.000000000000000000e+00,-3.825073242187500000e-01,7.324218750000000000e-02,7.536010742187500000e-01,5.294799804687500000e-01
-3.000000000000000000e+00,-2.000000000000000000e+00,-2.000000000000000000e+00,-2.000000000000000000e+00,-3.000000000000000000e+00,-4.000000000000000000e+00,-3.000000000000000000e+00,-3.000000000000000000e+00,-3.825073242187500000e-01,7.324218750000000000e-02,7.536010742187500000e-01,5.294799804687500000e-01
2.000000000000000000e+00,0.000000000000000000e+00,0.000000000000000000e+00,4.000000000000000000e+00,-3.000000000000000000e+00,-1.000000000000000000e+00,1.000000000000000000e+00,2.000000000000000000e+00,-3.825073242187500000e-01,7.324218750000000000e-02,7.536010742187500000e-01,5.294799804687500000e-01
-1.000000000000000000e+00,-3.000000000000000000e+00,-3.000000000000000000e+00,-4.000000000000000000e+00,1.000000000000000000e+00,2.000000000000000000e+00,-3.000000000000000000e+00,0.000000000000000000e+00,-3.825073242187500000e-01,7.324218750000000000e-02,7.536010742187500000e-01,5.294799804687500000e-01
-1.000000000000000000e+00,0.000000000000000000e+00,-1.000000000000000000e+00,4.000000000000000000e+00,-1.000000000000000000e+00,1.000000000000000000e+00,-2.000000000000000000e+00,-1.100000000000000000e+01,-3.833007812500000000e-01,7.281494140625000000e-02,7.533569335937500000e-01,5.293579101562500000e-01
4.000000000000000000e+00,-1.000000000000000000e+00,-5.000000000000000000e+00,-4.000000000000000000e+00,1.000000000000000000e+00,1.000000000000000000e+00,-3.000000000000000000e+00,-3.000000000000000000e+00,-3.833007812500000000e-01,7.281494140625000000e-02,7.533569335937500000e-01,5.293579101562500000e-01
-1.400000000000000000e+01,-2.000000000000000000e+00,9.000000000000000000e+00,1.000000000000000000e+00,-2.000000000000000000e+00,0.000000000000000000e+00,-1.000000000000000000e+00,-2.000000000000000000e+00,-3.833007812500000000e-01,7.281494140625000000e-02,7.533569335937500000e-01,5.293579101562500000e-01
-1.000000000000000000e+00,-3.000000000000000000e+00,-1.000000000000000000e+01,-7.000000000000000000e+00,-6.000000000000000000e+00,-4.000000000000000000e+00,-2.000000000000000000e+00,-8.000000000000000000e+00,-3.833007812500000000e-01,7.281494140625000000e-02,7.533569335937500000e-01,5.293579101562500000e-01
5.000000000000000000e+00,-2.000000000000000000e+00,1.200000000000000000e+01,3.000000000000000000e+00,-1.000000000000000000e+00,-2.000000000000000000e+00,2.000000000000000000e+00,6.000000000000000000e+00,-3.849487304687500000e-01,7.153320312500000000e-02,7.530517578125000000e-01,5.286865234375000000e-01
-1.100000000000000000e+01,-5.000000000000000000e+00,-1.500000000000000000e+01,-7.000000000000000000e+00,-2.000000000000000000e+00,0.000000000000000000e+00,1.000000000000000000e+00,1.000000000000000000e+00,-3.849487304687500000e-01,7.153320312500000000e-02,7.530517578125000000e-01,5.286865234375000000e-01
3.000000000000000000e+00,4.000000000000000000e+00,1.000000000000000000e+00,-1.000000000000000000e+00,-5.000000000000000000e+00,-3.000000000000000000e+00,-3.000000000000000000e+00,-4.000000000000000000e+00,-3.849487304687500000e-01,7.153320312500000000e-02,7.530517578125000000e-01,5.286865234375000000e-01
0.000000000000000000e+00,-3.000000000000000000e+00,-6.000000000000000000e+00,-9.000000000000000000e+00,0.000000000000000000e+00,-3.000000000000000000e+00,3.000000000000000000e+00,1.100000000000000000e+01,-3.849487304687500000e-01,7.153320312500000000e-02,7.530517578125000000e-01,5.286865234375000000e-01
-5.000000000000000000e+00,3.000000000000000000e+00,9.000000000000000000e+00,2.000000000000000000e+00,-1.000000000000000000e+00,1.000000000000000000e+00,-4.000000000000000000e+00,-1.200000000000000000e+01,-3.866577148437500000e-01,7.098388671875000000e-02,7.525024414062500000e-01,5.283203125000000000e-01
-6.000000000000000000e+00,-7.000000000000000000e+00,-9.000000000000000000e+00,0.000000000000000000e+00,-2.000000000000000000e+00,-4.000000000000000000e+00,-1.100000000000000000e+01,-6.000000000000000000e+00,-3.866577148437500000e-01,7.098388671875000000e-02,7.525024414062500000e-01,5.283203125000000000e-01
-1.000000000000000000e+00,0.000000000000000000e+00,1.400000000000000000e+01,0.000000000000000000e+00,-2.000000000000000000e+00,-2.000000000000000000e+00,-1.000000000000000000e+00,1.300000000000000000e+01,-3.866577148437500000e-01,7.098388671875000000e-02,7.525024414062500000e-01,5.283203125000000000e-01
5.000000000000000000e+00,7.000000000000000000e+00,1.300000000000000000e+01,-7.000000000000000000e+00,0.000000000000000000e+00,0.000000000000000000e+00,2.000000000000000000e+00,-4.000000000000000000e+00,-3.866577148437500000e-01,7.098388671875000000e-02,7.525024414062500000e-01,5.283203125000000000e-01
1.000000000000000000e+00,-1.000000000000000000e+00,-2.500000000000000000e+01,1.000000000000000000e+01,0.000000000000000000e+00,2.000000000000000000e+00,-1.000000000000000000e+00,4.000000000000000000e+00,-3.881225585937500000e-01,7.183837890625000000e-02,7.517700195312500000e-01,5.282592773437500000e-01
-1.000000000000000000e+00,1.000000000000000000e+00,9.000000000000000000e+00,3.000000000000000000e+00,2.000000000000000000e+00,-3.000000000000000000e+00,2.000000000000000000e+00,-3.000000000000000000e+00,-3.881225585937500000e-01,7.183837890625000000e-02,7.517700195312500000e-01,5.282592773437500000e-01
-3.000000000000000000e+00,-4.000000000000000000e+00,2.000000000000000000e+00,3.000000000000000000e+00,0.000000000000000000e+00,-2.000000000000000000e+00,2.000000000000000000e+00,1.000000000000000000e+00,-3.881225585937500000e-01,7.183837890625000000e-02,7.517700195312500000e-01,5.282592773437500000e-01
-1.000000000000000000e+00,3.000000000000000000e+00,1.200000000000000000e+01,-6.000000000000000000e+00,-1.000000000000000000e+00,-1.000000000000000000e+00,-2.000000000000000000e+00,-1.000000000000000000e+00,-3.881225585937500000e-01,7.183837890625000000e-02,7.517700195312500000e-01,5.282592773437500000e-01
-3.000000000000000000e+00,-9.000000000000000000e+00,-2.400000000000000000e+01,-1.700000000000000000e+01,-6.000000000000000000e+00,-4.000000000000000000e+00,0.000000000000000000e+00,1.000000000000000000e+01,-3.892211914062500000e-01,7.373046875000000000e-02,7.509765625000000000e-01,5.282592773437500000e-01
0.000000000000000000e+00,1.000000000000000000e+00,1.400000000000000000e+01,7.000000000000000000e+00,0.000000000000000000e+00,-1.000000000000000000e+00,0.000000000000000000e+00,-3.000000000000000000e+00,-3.892211914062500000e-01,7.373046875000000000e-02,7.509765625000000000e-01,5.282592773437500000e-01
-3.000000000000000000e+00,-4.000000000000000000e+00,-1.100000000000000000e+01,-5.000000000000000000e+00,0.000000000000000000e+00,0.000000000000000000e+00,0.000000000000000000e+00,-2.000000000000000000e+00,-3.892211914062500000e-01,7.373046875000000000e-02,7.509765625000000000e-01,5.282592773437500000e-01
-3.000000000000000000e+00,-3.000000000000000000e+00,-8.000000000000000000e+00,1.200000000000000000e+01,0.000000000000000000e+00,2.000000000000000000e+00,0.000000000000000000e+00,-1.000000000000000000e+00,-3.892211914062500000e-01,7.373046875000000000e-02,7.509765625000000000e-01,5.282592773437500000e-01
1.000000000000000000e+00,2.000000000000000000e+00,4.000000000000000000e+00,-1.000000000000000000e+00,1.000000000000000000e+00,-2.000000000000000000e+00,-4.000000000000000000e+00,-4.000000000000000000e+00,-3.901367187500000000e-01,7.592773437500000000e-02,7.503662109375000000e-01,5.281372070312500000e-01
-1.000000000000000000e+01,-1.000000000000000000e+00,-7.000000000000000000e+00,-4.000000000000000000e+00,0.000000000000000000e+00,0.000000000000000000e+00,1.000000000000000000e+00,-1.000000000000000000e+00,-3.901367187500000000e-01,7.592773437500000000e-02,7.503662109375000000e-01,5.281372070312500000e-01
-1.000000000000000000e+00,0.000000000000000000e+00,-6.000000000000000000e+00,-5.000000000000000000e+00,-4.000000000000000000e+00,1.000000000000000000e+00,-1.000000000000000000e+00,-1.000000000000000000e+00,-3.901367187500000000e-01,7.592773437500000000e-02,7.503662109375000000e-01,5.281372070312500000e-01
7.000000000000000000e+00,-2.000000000000000000e+00,-3.000000000000000000e+00,1.000000000000000000e+00,2.000000000000000000e+00,-2.000000000000000000e+00,3.000000000000000000e+00,-1.000000000000000000e+00,-3.901367187500000000e-01,7.592773437500000000e-02,7.503662109375000000e-01,5.281372070312500000e-01
-3.000000000000000000e+00,-4.000000000000000000e+00,-3.600000000000000000e+01,-2.000000000000000000e+00,-2.000000000000000000e+00,-1.000000000000000000e+00,-1.000000000000000000e+00,0.000000000000000000e+00,-3.910522460937500000e-01,7.684326171875000000e-02,7.501220703125000000e-01,5.276489257812500000e-01
8.000000000000000000e+00,3.000000000000000000e+00,9.000000000000000000e+00,-1.000000000000000000e+00,-1.000000000000000000e+00,-1.000000000000000000e+00,2.000000000000000000e+00,4.000000000000000000e+00,-3.910522460937500000e-01,7.684326171875000000e-02,7.501220703125000000e-01,5.276489257812500000e-01
3.000000000000000000e+00,1.000000000000000000e+00,-7.000000000000000000e+00,8.000000000000000000e+00,2.000000000000000000e+00,-3.000000000000000000e+00,3.000000000000000000e+00,-4.000000000000000000e+00,-3.910522460937500000e-01,7.684326171875000000e-02,7.501220703125000000e-01,5.276489257812500000e-01
3.000000000000000000e+00,4.000000000000000000e+00,1.100000000000000000e+01,-4.000000000000000000e+00,-4.000000000000000000e+00,2.000000000000000000e+00,-2.000000000000000000e+00,-1.100000000000000000e+01,-3.910522460937500000e-01,7.684326171875000000e-02,7.501220703125000000e-01,5.276489257812500000e-01
-1.500000000000000000e+01,-6.000000000000000000e+00,-6.000000000000000000e+00,-5.000000000000000000e+00,-3.000000000000000000e+00,4.000000000000000000e+00,2.000000000000000000e+00,1.000000000000000000e+00,-3.919067382812500000e-01,7.678222656250000000e-02,7.503051757812500000e-01,5.267333984375000000e-01
-1.600000000000000000e+01,1.000000000000000000e+00,2.000000000000000000e+00,3.000000000000000000e+00,3.000000000000000000e+00,-1.000000000000000000e+00,0.000000000000000000e+00,-3.000000000000000000e+00,-3.919067382812500000e-01,7.678222656250000000e-02,7.503051757812500000e-01,5.267333984375000000e-01
1.000000000000000000e+01,-4.000000000000000000e+00,-1.400000000000000000e+01,1.000000000000000000e+00,-1.000000000000000000e+00,-3.000000000000000000e+00,-2.000000000000000000e+00,1.000000000000000000e+00,-3.919067382812500000e-01,7.678222656250000000e-02,7.503051757812500000e-01,5.267333984375000000e-01
3.000000000000000000e+00,4.000000000000000000e+00,1.000000000000000000e+00,4.000000000000000000e+00,0.000000000000000000e+00,3.000000000000000000e+00,2.000000000000000000e+00,4.000000000000000000e+00,-3.919067382812500000e-01,7.678222656250000000e-02,7.503051757812500000e-01,5.267333984375000000e-01
4.000000000000000000e+00,0.000000000000000000e+00,-4.000000000000000000e+00,-3.000000000000000000e+00,-1.000000000000000000e+00,-5.000000000000000000e+00,-2.000000000000000000e+00,0.000000000000000000e+00,-3.928222656250000000e-01,7.635498046875000000e-02,7.507324218750000000e-01,5.255737304687500000e-01
4.000000000000000000e+00,1.000000000000000000e+00,8.000000000000000000e+00,-4.000000000000000000e+00,-4.000000000000000000e+00,-3.000000000000000000e+00,-3.000000000000000000e+00,-1.300000000000000000e+01,-3.928222656250000000e-01,7.635498046875000000e-02,7.507324218750000000e-01,5.255737304687500000e-01
2.000000000000000000e+00,2.000000000000000000e+00,5.000000000000000000e+00,-2.000000000000000000e+00,1.000000000000000000e+00,0.000000000000000000e+00,-1.000000000000000000e+00,9.000000000000000000e+00,-3.928222656250000000e-01,7.635498046875000000e-02,7.507324218750000000e-01,5.255737304687500000e-01
-6.000000000000000000e+00,-7.000000000000000000e+00,-6.000000000000000000e+00,-1.000000000000000000e+00,-1.000000000000000000e+00,-2.000000000000000000e+00,-5.000000000000000000e+00,0.000000000000000000e+00,-3.928222656250000000e-01,7.635498046875000000e-02,7.507324218750000000e-01,5.255737304687500000e-01
1.000000000000000000e+00,1.000000000000000000e+00,-7.000000000000000000e+00,-2.000000000000000000e+00,0.000000000000000000e+00,-1.000000000000000000e+00,0.000000000000000000e+00,-6.000000000000000000e+00,-3.936157226562500000e-01,7.598876953125000000e-02,7.506713867187500000e-01,5.250854492187500000e-01
2.000000000000000000e+00,-8.000000000000000000e+00,-1.800000000000000000e+01,-6.000000000000000000e+00,-6.000000000000000000e+00,-2.000000000000000000e+00,0.000000000000000000e+00,4.000000000000000000e+00,-3.936157226562500000e-01,7.598876953125000000e-02,7.506713867187500000e-01,5.250854492187500000e-01
-1.000000000000000000e+00,5.000000000000000000e+00,2.400000000000000000e+01,6.000000000000000000e+00,-3.000000000000000000e+00,-3.000000000000000000e+00,-3.000000000000000000e+00,-2.000000000000000000e+00,-3.936157226562500000e-01,7.598876953125000000e-02,7.506713867187500000e-01,5.250854492187500000e-01
-4.000000000000000000e+00,-4.000000000000000000e+00,-1.700000000000000000e+01,5.000000000000000000e+00,0.000000000000000000e+00,-1.000000000000000000e+00,-3.000000000000000000e+00,-6.000000000000000000e+00,-3.936157226562500000e-01,7.598876953125000000e-02,7.506713867187500000e-01,5.250854492187500000e-01
5.000000000000000000e+00,-3.000000000000000000e+00,8.000000000000000000e+00,-8.000000000000000000e+00,-4.000000000000000000e+00,-1.000000000000000000e+00,2.000000000000000000e+00,1.300000000000000000e+01,-3.936767578125000000e-01,7.647705078125000000e-02,7.504272460937500000e-01,5.253906250000000000e-01
-1.000000000000000000e+00,4.000000000000000000e+00,-5.000000000000000000e+00,1.000000000000000000e+00,1.000000000000000000e+00,-2.000000000000000000e+00,0.000000000000000000e+00,2.000000000000000000e+00,-3.936767578125000000e-01,7.647705078125000000e-02,7.504272460937500000e-01,5.253906250000000000e-01
7.000000000000000000e+00,-1.000000000000000000e+00,-1.500000000000000000e+01,-6.000000000000000000e+00,1.000000000000000000e+00,3.000000000000000000e+00,-1.000000000000000000e+00,-8.000000000000000000e+00,-3.936767578125000000e-01,7.647705078125000000e-02,7.504272460937500000e-01,5.253906250000000000e-01
0.000000000000000000e+00,2.000000000000000000e+00,1.200000000000000000e+01,4.000000000000000000e+00,1.000000000000000000e+00,-4.000000000000000000e+00,1.000000000000000000e+00,0.000000000000000000e+00,-3.936767578125000000e-01,7.647705078125000000e-02,7.504272460937500000e-01,5.253906250000000000e-01
7.000000000000000000e+00,4.000000000000000000e+00,1.000000000000000000e+00,3.000000000000000000e+00,2.000000000000000000e+00,4.000000000000000000e+00,-3.000000000000000000e+00,-1.000000000000000000e+00,-3.935546875000000000e-01,7.745361328125000000e-02,7.501831054687500000e-01,5.256347656250000000e-01
-7.000000000000000000e+00,-8.000000000000000000e+00,-6.000000000000000000e+00,-6.000000000000000000e+00,-3.000000000000000000e+00,-4.000000000000000000e+00,2.000000000000000000e+00,1.200000000000000000e+01,-3.935546875000000000e-01,7.745361328125000000e-02,7.501831054687500000e-01,5.256347656250000000e-01
-1.000000000000000000e+00,-6.000000000000000000e+00,-2.200000000000000000e+01,-1.000000000000000000e+00,-2.000000000000000000e+00,-3.000000000000000000e+00,-1.700000000000000000e+01,-3.000000000000000000e+00,-3.935546875000000000e-01,7.745361328125000000e-02,7.501831054687500000e-01,5.256347656250000000e-01
-5.000000000000000000e+00,5.000000000000000000e+00,-1.300000000000000000e+01,-3.000000000000000000e+00,-3.000000000000000000e+00,-4.000000000000000000e+00,-1.000000000000000000e+00,7.000000000000000000e+00,-3.935546875000000000e-01,7.745361328125000000e-02,7.501831054687500000e-01,5.256347656250000000e-01
8.000000000000000000e+00,9.000000000000000000e+00,3.200000000000000000e+01,8.000000000000000000e+00,2.000000000000000000e+00,0.000000000000000000e+00,5.000000000000000000e+00,-2.000000000000000000e+00,-3.930053710937500000e-01,7.855224609375000000e-02,7.503051757812500000e-01,5.257568359375000000e-01
4.000000000000000000e+00,-2.000000000000000000e+00,-1.800000000000000000e+01,0.000000000000000000e+00,1.000000000000000000e+00,0.000000000000000000e+00,-2.000000000000000000e+00,2.000000000000000000e+00,-3.930053710937500000e-01,7.855224609375000000e-02,7.503051757812500000e-01,5.257568359375000000e-01
-3.000000000000000000e+00,-3.000000000000000000e+00,8.000000000000000000e+00,-3.000000000000000000e+00,-6.000000000000000000e+00,1.000000000000000000e+00,-1.000000000000000000e+00,-3.000000000000000000e+00,-3.930053710937500000e-01,7.855224609375000000e-02,7.503051757812500000e-01,5.257568359375000000e-01
-2.000000000000000000e+00,5.000000000000000000e+00,-8.000000000000000000e+00,-1.100000000000000000e+01,-4.000000000000000000e+00,-6.000000000000000000e+00,-6.000000000000000000e+00,-2.000000000000000000e+00,-3.930053710937500000e-01,7.855224609375000000e-02,7.503051757812500000e-01,5.257568359375000000e-01
-5.000000000000000000e+00,-3.000000000000000000e+00,1.200000000000000000e+01,3.000000000000000000e+00,-1.000000000000000000e+00,-6.000000000000000000e+00,-7.000000000000000000e+00,-5.000000000000000000e+00,-3.929443359375000000e-01,7.891845703125000000e-02,7.503662109375000000e-01,5.256347656250000000e-01
-3.000000000000000000e+00,3.000000000000000000e+00,1.100000000000000000e+01,7.000000000000000000e+00,0.000000000000000000e+00,1.000000000000000000e+00,4.000000000000000000e+00,-5.000000000000000000e+00,-3.929443359375000000e-01,7.891845703125000000e-02,7.503662109375000000e-01,5.256347656250000000e-01
-1.000000000000000000e+01,-1.200000000000000000e+01,1.000000000000000000e+00,2.000000000000000000e+00,1.000000000000000000e+00,3.000000000000000000e+00,6.000000000000000000e+00,-1.000000000000000000e+00,-3.929443359375000000e-01,7.891845703125000000e-02,7.503662109375000000e-01,5.256347656250000000e-01
1.000000000000000000e+00,2.000000000000000000e+00,-4.000000000000000000e+00,-1.100000000000000000e+01,-2.000000000000000000e+00,3.000000000000000000e+00,-3.000000000000000000e+00,-7.000000000000000000e+00,-3.929443359375000000e-01,7.891845703125000000e-02,7.503662109375000000e-01,5.256347656250000000e-01
0.000000000000000000e+00,4.000000000000000000e+00,5.000000000000000000e+00,3.000000000000000000e+00,-4.000000000000000000e+00,-5.000000000000000000e+00,3.000000000000000000e+00,6.000000000000000000e+00,-3.928833007812500000e-01,7.904052734375000000e-02,7.504882812500000000e-01,5.254516601562500000e-01
-1.000000000000000000e+00,-1.000000000000000000e+00,5.000000000000000000e+00,6.000000000000000000e+00,2.000000000000000000e+00,0.000000000000000000e+00,-4.000000000000000000e+00,-7.000000000000000000e+00,-3.928833007812500000e-01,7.904052734375000000e-02,7.504882812500000000e-01,5.254516601562500000e-01
-5.000000000000000000e+00,-4.000000000000000000e+00,-1.700000000000000000e+01,-1.600000000000000000e+01,-2.000000000000000000e+00,0.000000000000000000e+00,2.000000000000000000e+00,-3.000000000000000000e+00,-3.928833007812500000e-01,7.904052734375000000e-02,7.504882812500000000e-01,5.254516601562500000e-01
2.000000000000000000e+00,1.000000000000000000e+00,1.300000000000000000e+01,1.000000000000000000e+01,0.000000000000000000e+00,1.000000000000000000e+00,2.000000000000000000e+00,6.000000000000000000e+00,-3.928833007812500000e-01,7.904052734375000000e-02,7.504882812500000000e-01,5.254516601562500000e-01
-6.000000000000000000e+00,-1.300000000000000000e+01,-2.600000000000000000e+01,-1.500000000000000000e+01,-2.000000000000000000e+00,0.000000000000000000e+00,-4.000000000000000000e+00,1.000000000000000000e+00,-3.928833007812500000e-01,7.904052734375000000e-02,7.504882812500000000e-01,5.254516601562500000e-01
1.000000000000000000e+01,1.000000000000000000e+00,1.000000000000000000e+01,9.000000000000000000e+00,3.000000000000000000e+00,-1.000000000000000000e+00,1.000000000000000000e+00,-3.000000000000000000e+00,-3.928833007812500000e-01,7.904052734375000000e-02,7.504882812500000000e-01,5.254516601562500000e-01
