1.000000000000000000e+00,5.000000000000000000e+00,3.000000000000000000e+00,1.200000000000000000e+01,1.000000000000000000e+00,0.000000000000000000e+00,6.000000000000000000e+00,1.000000000000000000e+00,4.148559570312500000e-01,1.566772460937500000e-01,-8.959350585937500000e-01,-2.624511718750000000e-02
2.000000000000000000e+00,6.000000000000000000e+00,-2.200000000000000000e+01,-1.700000000000000000e+01,0.000000000000000000e+00,-1.000000000000000000e+00,-5.000000000000000000e+00,0.000000000000000000e+00,4.148559570312500000e-01,1.566772460937500000e-01,-8.959350585937500000e-01,-2.624511718750000000e-02
-4.000000000000000000e+00,-5.000000000000000000e+00,1.300000000000000000e+01,2.300000000000000000e+01,-6.000000000000000000e+00,-2.000000000000000000e+00,1.600000000000000000e+01,0.000000000000000000e+00,4.148559570312500000e-01,1.566772460937500000e-01,-8.959350585937500000e-01,-2.624511718750000000e-02
-5.000000000000000000e+00,-1.200000000000000000e+01,-5.000000000000000000e+00,-4.000000000000000000e+01,-6.000000000000000000e+00,0.000000000000000000e+00,9.000000000000000000e+00,-1.000000000000000000e+00,4.148559570312500000e-01,1.566772460937500000e-01,-8.959350585937500000e-01,-2.624511718750000000e-02
-2.000000000000000000e+00,2.000000000000000000e+00,1.800000000000000000e+01,1.000000000000000000e+00,1.000000000000000000e+00,0.000000000000000000e+00,-1.600000000000000000e+01,-4.000000000000000000e+00,4.142456054687500000e-01,1.576538085937500000e-01,-8.959960937500000000e-01,-2.648925781250000000e-02
-8.000000000000000000e+00,-1.000000000000000000e+01,-2.900000000000000000e+01,-6.000000000000000000e+00,-7.000000000000000000e+00,-8.000000000000000000e+00,-5.000000000000000000e+00,-3.000000000000000000e+00,4.142456054687500000e-01,1.576538085937500000e-01,-8.959960937500000000e-01,-2.648925781250000000e-02
3.000000000000000000e+00,5.000000000000000000e+00,1.700000000000000000e+01,1.000000000000000000e+01,6.000000000000000000e+00,3.000000000000000000e+00,1.300000000000000000e+01,2.000000000000000000e+00,4.142456054687500000e-01,1.576538085937500000e-01,-8.959960937500000000e-01,-2.648925781250000000e-02
-1.000000000000000000e+00,-1.000000000000000000e+00,-2.500000000000000000e+01,-9.000000000000000000e+00,-1.000000000000000000e+00,-3.000000000000000000e+00,-7.000000000000000000e+00,0.000000000000000000e+00,4.142456054687500000e-01,1.576538085937500000e-01,-8.959960937500000000e-01,-2.648925781250000000e-02
1.000000000000000000e+00,2.000000000000000000e+00,-1.000000000000000000e+01,0.000000000000000000e+00,-1.000000000000000000e+00,-1.000000000000000000e+00,2.000000000000000000e+00,0.000000000000000000e+00,4.137573242187500000e-01,1.582641601562500000e-01,-8.961181640625000000e-01,-2.709960937500000000e-02
5.000000000000000000e+00,8.000000000000000000e+00,-3.000000000000000000e+00,-5.000000000000000000e+00,2.000000000000000000e+00,4.000000000000000000e+00,-7.000000000000000000e+00,0.000000000000000000e+00,4.137573242187500000e-01,1.582641601562500000e-01,-8.961181640625000000e-01,-2.709960937500000000e-02
1.000000000000000000e+00,-1.100000000000000000e+01,2.800000000000000000e+01,-1.800000000000000000e+01,-1.100000000000000000e+01,-1.200000000000000000e+01,-4.500000000000000000e+01,-2.000000000000000000e+00,4.137573242187500000e-01,1.582641601562500000e-01,-8.961181640625000000e-01,-2.709960937500000000e-02
-1.200000000000000000e+01,-1.200000000000000000e+01,-4.700000000000000000e+01,-2.200000000000000000e+01,-1.300000000000000000e+01,-1.000000000000000000e+01,4.000000000000000000e+00,-8.000000000000000000e+00,4.137573242187500000e-01,1.582641601562500000e-01,-8.961181640625000000e-01,-2.709960937500000000e-02
1.900000000000000000e+01,-7.000000000000000000e+00,3.700000000000000000e+01,2.100000000000000000e+01,-1.000000000000000000e+00,-8.000000000000000000e+00,1.000000000000000000e+00,-1.000000000000000000e+00,4.133911132812500000e-01,1.586914062500000000e-01,-8.962402343750000000e-01,-2.752685546875000000e-02
-5.000000000000000000e+00,0.000000000000000000e+00,-5.000000000000000000e+00,-1.000000000000000000e+00,2.000000000000000000e+00,1.000000000000000000e+00,8.000000000000000000e+00,0.000000000000000000e+00,4.133911132812500000e-01,1.586914062500000000e-01,-8.962402343750000000e-01,-2.752685546875000000e-02
0.000000000000000000e+00,6.000000000000000000e+00,-1.100000000000000000e+01,3.000000000000000000e+00,5.000000000000000000e+00,2.000000000000000000e+00,2.000000000000000000e+00,2.000000000000000000e+00,4.133911132812500000e-01,1.586914062500000000e-01,-8.962402343750000000e-01,-2.752685546875000000e-02
7.000000000000000000e+00,3.000000000000000000e+00,3.000000000000000000e+00,4.000000000000000000e+00,4.000000000000000000e+00,2.000000000000000000e+00,-5.000000000000000000e+00,1.000000000000000000e+00,4.133911132812500000e-01,1.586914062500000000e-01,-8.962402343750000000e-01,-2.752685546875000000e-02
-6.000000000000000000e+00,0.000000000000000000e+00,-1.200000000000000000e+01,-3.000000000000000000e+00,1.000000000000000000e+00,1.000000000000000000e+00,-6.000000000000000000e+00,-2.000000000000000000e+00,4.132690429687500000e-01,1.591796875000000000e-01,-8.961791992187500000e-01,-2.758789062500000000e-02
2.000000000000000000e+00,-4.000000000000000000e+00,-1.000000000000000000e+00,6.000000000000000000e+00,-2.000000000000000000e+00,0.000000000000000000e+00,0.000000000000000000e+00,0.000000000000000000e+00,4.132690429687500000e-01,1.591796875000000000e-01,-8.961791992187500000e-01,-2.758789062500000000e-02
2.000000000000000000e+00,-5.000000000000000000e+00,-2.100000000000000000e+01,-2.100000000000000000e+01,-1.000000000000000000e+01,0.000000000000000000e+00,2.200000000000000000e+01,2.000000000000000000e+00,4.132690429687500000e-01,1.591796875000000000e-01,-8.961791992187500000e-01,-2.758789062500000000e-02
-2.000000000000000000e+00,-1.000000000000000000e+00,1.500000000000000000e+01,9.000000000000000000e+00,0.000000000000000000e+00,0.000000000000000000e+00,-4.000000000000000000e+00,-2.000000000000000000e+00,4.132690429687500000e-01,1.591796875000000000e-01,-8.961791992187500000e-01,-2.758789062500000000e-02
0.000000000000000000e+00,4.000000000000000000e+00,-5.300000000000000000e+01,-1.000000000000000000e+01,2.000000000000000000e+00,3.000000000000000000e+00,1.200000000000000000e+01,5.000000000000000000e+00,4.130249023437500000e-01,1.596679687500000000e-01,-8.961791992187500000e-01,-2.752685546875000000e-02
-4.000000000000000000e+00,-4.000000000000000000e+00,1.700000000000000000e+01,9.000000000000000000e+00,-1.000000000000000000e+01,-5.000000000000000000e+00,-4.000000000000000000e+00,-5.000000000000000000e+00,4.130249023437500000e-01,1.596679687500000000e-01,-8.961791992187500000e-01,-2.752685546875000000e-02
-1.700000000000000000e+01,-1.300000000000000000e+01,-3.700000000000000000e+01,-5.500000000000000000e+01,-1.100000000000000000e+01,-4.000000000000000000e+00,5.000000000000000000e+00,-7.000000000000000000e+00,4.130249023437500000e-01,1.596679687500000000e-01,-8.961791992187500000e-01,-2.752685546875000000e-02
-2.000000000000000000e+00,-7.000000000000000000e+00,-4.900000000000000000e+01,7.000000000000000000e+00,0.000000000000000000e+00,-5.000000000000000000e+00,-1.300000000000000000e+01,-3.000000000000000000e+00,4.130249023437500000e-01,1.596679687500000000e-01,-8.961791992187500000e-01,-2.752685546875000000e-02
-4.000000000000000000e+00,-5.000000000000000000e+00,-5.000000000000000000e+00,-1.500000000000000000e+01,0.000000000000000000e+00,2.000000000000000000e+00,-3.000000000000000000e+00,-1.000000000000000000e+00,4.130859375000000000e-01,1.603393554687500000e-01,-8.960571289062500000e-01,-2.740478515625000000e-02
4.000000000000000000e+00,2.000000000000000000e+00,1.900000000000000000e+01,-1.000000000000000000e+00,1.000000000000000000e+00,0.000000000000000000e+00,-2.000000000000000000e+00,0.000000000000000000e+00,4.130859375000000000e-01,1.603393554687500000e-01,-8.960571289062500000e-01,-2.740478515625000000e-02
1.000000000000000000e+00,3.000000000000000000e+00,-1.100000000000000000e+01,6.000000000000000000e+00,-1.000000000000000000e+00,0.000000000000000000e+00,1.000000000000000000e+01,2.000000000000000000e+00,4.130859375000000000e-01,1.603393554687500000e-01,-8.960571289062500000e-01,-2.740478515625000000e-02
0.000000000000000000e+00,1.000000000000000000e+00,1.500000000000000000e+01,3.000000000000000000e+00,0.000000000000000000e+00,1.000000000000000000e+00,-1.000000000000000000e+01,1.000000000000000000e+00,4.130859375000000000e-01,1.603393554687500000e-01,-8.960571289062500000e-01,-2.740478515625000000e-02
-1.000000000000000000e+00,-6.000000000000000000e+00,-3.300000000000000000e+01,-1.200000000000000000e+01,2.000000000000000000e+00,7.000000000000000000e+00,1.000000000000000000e+01,1.000000000000000000e+00,4.130249023437500000e-01,1.621093750000000000e-01,-8.957519531250000000e-01,-2.764892578125000000e-02
-5.000000000000000000e+00,-3.000000000000000000e+00,-1.100000000000000000e+01,-7.000000000000000000e+00,-4.000000000000000000e+00,-4.000000000000000000e+00,2.000000000000000000e+00,2.000000000000000000e+00,4.130249023437500000e-01,1.621093750000000000e-01,-8.957519531250000000e-01,-2.764892578125000000e-02
-1.000000000000000000e+00,2.000000000000000000e+00,-1.200000000000000000e+01,9.000000000000000000e+00,-3.000000000000000000e+00,-2.000000000000000000e+00,8.000000000000000000e+00,-3.000000000000000000e+00,4.130249023437500000e-01,1.621093750000000000e-01,-8.957519531250000000e-01,-2.764892578125000000e-02
-4.000000000000000000e+00,1.000000000000000000e+00,2.300000000000000000e+01,7.000000000000000000e+00,3.000000000000000000e+00,-3.000000000000000000e+00,-7.000000000000000000e+00,-1.000000000000000000e+00,4.130249023437500000e-01,1.621093750000000000e-01,-8.957519531250000000e-01,-2.764892578125000000e-02
-2.000000000000000000e+00,-5.000000000000000000e+00,-1.400000000000000000e+01,0.000000000000000000e+00,-1.000000000000000000e+00,-1.000000000000000000e+00,-1.000000000000000000e+00,0.000000000000000000e+00,4.129028320312500000e-01,1.627807617187500000e-01,-8.956298828125000000e-01,-2.880859375000000000e-02
1.000000000000000000e+00,-3.000000000000000000e+00,-1.100000000000000000e+01,-1.000000000000000000e+00,2.000000000000000000e+00,2.000000000000000000e+00,2.000000000000000000e+00,-1.000000000000000000e+00,4.129028320312500000e-01,1.627807617187500000e-01,-8.956298828125000000e-01,-2.880859375000000000e-02
1.000000000000000000e+01,1.600000000000000000e+01,2.400000000000000000e+01,2.500000000000000000e+01,7.000000000000000000e+00,3.000000000000000000e+00,3.000000000000000000e+00,5.000000000000000000e+00,4.129028320312500000e-01,1.627807617187500000e-01,-8.956298828125000000e-01,-2.880859375000000000e-02
-8.000000000000000000e+00,-3.200000000000000000e+01,0.000000000000000000e+00,-4.500000000000000000e+01,-1.800000000000000000e+01,-6.000000000000000000e+00,-9.000000000000000000e+00,-3.000000000000000000e+00,4.129028320312500000e-01,1.627807617187500000e-01,-8.956298828125000000e-01,-2.880859375000000000e-02
-5.000000000000000000e+00,-3.000000000000000000e+00,1.000000000000000000e+00,1.300000000000000000e+01,1.000000000000000000e+00,2.000000000000000000e+00,1.200000000000000000e+01,-2.000000000000000000e+00,4.123535156250000000e-01,1.632080078125000000e-01,-8.958129882812500000e-01,-2.954101562500000000e-02
9.000000000000000000e+00,-5.000000000000000000e+00,-2.100000000000000000e+01,-3.600000000000000000e+01,-8.000000000000000000e+00,-1.000000000000000000e+01,-2.800000000000000000e+01,-5.000000000000000000e+00,4.123535156250000000e-01,1.632080078125000000e-01,-8.958129882812500000e-01,-2.954101562500000000e-02
-3.400000000000000000e+01,0.000000000000000000e+00,-1.000000000000000000e+01,-8.000000000000000000e+00,4.000000000000000000e+00,3.000000000000000000e+00,1.200000000000000000e+01,-2.000000000000000000e+00,4.123535156250000000e-01,1.632080078125000000e-01,-8.958129882812500000e-01,-2.954101562500000000e-02
5.000000000000000000e+00,1.400000000000000000e+01,1.000000000000000000e+01,2.700000000000000000e+01,1.000000000000000000e+01,4.000000000000000000e+00,7.000000000000000000e+00,4.000000000000000000e+00,4.123535156250000000e-01,1.632080078125000000e-01,-8.958129882812500000e-01,-2.954101562500000000e-02
-1.000000000000000000e+00,1.000000000000000000e+00,-1.700000000000000000e+01,2.000000000000000000e+00,2.000000000000000000e+00,-1.000000000000000000e+00,-2.000000000000000000e+00,0.000000000000000000e+00,4.121093750000000000e-01,1.642456054687500000e-01,-8.956909179687500000e-01,-3.021240234375000000e-02
3.000000000000000000e+00,-4.000000000000000000e+00,3.000000000000000000e+00,1.000000000000000000e+00,-1.000000000000000000e+00,2.000000000000000000e+00,5.000000000000000000e+00,0.000000000000000000e+00,4.121093750000000000e-01,1.642456054687500000e-01,-8.956909179687500000e-01,-3.021240234375000000e-02
9.000000000000000000e+00,-1.000000000000000000e+00,-3.000000000000000000e+01,-1.400000000000000000e+01,-2.000000000000000000e+00,2.000000000000000000e+00,2.000000000000000000e+00,2.000000000000000000e+00,4.121093750000000000e-01,1.642456054687500000e-01,-8.956909179687500000e-01,-3.021240234375000000e-02
0.000000000000000000e+00,5.000000000000000000e+00,1.300000000000000000e+01,8.000000000000000000e+00,-2.000000000000000000e+00,0.000000000000000000e+00,2.000000000000000000e+00,-2.000000000000000000e+00,4.121093750000000000e-01,1.642456054687500000e-01,-8.956909179687500000e-01,-3.021240234375000000e-02
1.000000000000000000e+00,7.000000000000000000e+00,5.800000000000000000e+01,1.800000000000000000e+01,1.000000000000000000e+00,-3.000000000000000000e+00,-6.000000000000000000e+00,2.000000000000000000e+00,4.113159179687500000e-01,1.652832031250000000e-01,-8.958740234375000000e-01,-3.063964843750000000e-02
-7.000000000000000000e+00,0.000000000000000000e+00,-8.000000000000000000e+00,-2.000000000000000000e+00,-3.000000000000000000e+00,-4.000000000000000000e+00,-6.000000000000000000e+00,-5.000000000000000000e+00,4.113159179687500000e-01,1.652832031250000000e-01,-8.958740234375000000e-01,-3.063964843750000000e-02
-3.000000000000000000e+00,-1.200000000000000000e+01,2.100000000000000000e+01,-1.400000000000000000e+01,-5.000000000000000000e+00,4.000000000000000000e+00,5.000000000000000000e+00,-3.000000000000000000e+00,4.113159179687500000e-01,1.652832031250000000e-01,-8.958740234375000000e-01,-3.063964843750000000e-02
-1.300000000000000000e+01,-9.000000000000000000e+00,3.000000000000000000e+00,-6.000000000000000000e+00,-5.000000000000000000e+00,-4.000000000000000000e+00,-3.000000000000000000e+00,-2.000000000000000000e+00,4.113159179687500000e-01,1.652832031250000000e-01,-8.958740234375000000e-01,-3.063964843750000000e-02
1.100000000000000000e+01,3.000000000000000000e+00,3.200000000000000000e+01,1.600000000000000000e+01,5.000000000000000000e+00,1.000000000000000000e+00,3.000000000000000000e+00,-3.000000000000000000e+00,4.105834960937500000e-01,1.664428710937500000e-01,-8.959960937500000000e-01,-3.088378906250000000e-02
-3.000000000000000000e+00,6.000000000000000000e+00,3.600000000000000000e+01,1.800000000000000000e+01,4.000000000000000000e+00,-9.000000000000000000e+00,-4.000000000000000000e+01,3.000000000000000000e+00,4.105834960937500000e-01,1.664428710937500000e-01,-8.959960937500000000e-01,-3.088378906250000000e-02
3.000000000000000000e+00,-1.000000000000000000e+01,-7.000000000000000000e+01,-2.000000000000000000e+01,-3.000000000000000000e+00,-1.000000000000000000e+00,4.000000000000000000e+01,2.000000000000000000e+00,4.105834960937500000e-01,1.664428710937500000e-01,-8.959960937500000000e-01,-3.088378906250000000e-02
1.000000000000000000e+00,2.000000000000000000e+00,-6.000000000000000000e+00,-1.000000000000000000e+00,-2.000000000000000000e+00,-2.000000000000000000e+00,1.000000000000000000e+00,1.000000000000000000e+00,4.105834960937500000e-01,1.664428710937500000e-01,-8.959960937500000000e-01,-3.088378906250000000e-02
-4.000000000000000000e+00,-2.000000000000000000e+00,-2.000000000000000000e+01,-1.700000000000000000e+01,-8.000000000000000000e+00,-2.000000000000000000e+00,-5.000000000000000000e+00,-3.000000000000000000e+00,4.098510742187500000e-01,1.676025390625000000e-01,-8.961181640625000000e-01,-3.112792968750000000e-02
-1.000000000000000000e+01,-7.000000000000000000e+00,-5.000000000000000000e+00,-6.000000000000000000e+00,-3.000000000000000000e+00,1.000000000000000000e+00,1.000000000000000000e+00,-6.000000000000000000e+00,4.098510742187500000e-01,1.676025390625000000e-01,-8.961181640625000000e-01,-3.112792968750000000e-02
3.000000000000000000e+00,1.000000000000000000e+00,1.000000000000000000e+01,1.800000000000000000e+01,6.000000000000000000e+00,-2.000000000000000000e+00,-1.300000000000000000e+01,-1.000000000000000000e+00,4.098510742187500000e-01,1.676025390625000000e-01,-8.961181640625000000e-01,-3.112792968750000000e-02
7.000000000000000000e+00,1.000000000000000000e+01,9.000000000000000000e+00,1.200000000000000000e+01,3.000000000000000000e+00,1.000000000000000000e+00,1.000000000000000000e+00,1.000000000000000000e+00,4.098510742187500000e-01,1.676025390625000000e-01,-8.961181640625000000e-01,-3.112792968750000000e-02
-4.000000000000000000e+00,-1.000000000000000000e+00,-3.300000000000000000e+01,-1.100000000000000000e+01,-2.000000000000000000e+00,-3.000000000000000000e+00,-3.000000000000000000e+00,-2.000000000000000000e+00,4.092407226562500000e-01,1.676635742187500000e-01,-8.963012695312500000e-01,-3.234863281250000000e-02
-2.000000000000000000e+00,-6.000000000000000000e+00,6.200000000000000000e+01,5.000000000000000000e+00,0.000000000000000000e+00,2.000000000000000000e+00,1.200000000000000000e+01,-2.000000000000000000e+00,4.092407226562500000e-01,1.676635742187500000e-01,-8.963012695312500000e-01,-3.234863281250000000e-02
7.000000000000000000e+00,7.000000000000000000e+00,1.400000000000000000e+01,0.000000000000000000e+00,-1.000000000000000000e+00,-1.000000000000000000e+00,-9.000000000000000000e+00,1.000000000000000000e+00,4.092407226562500000e-01,1.676635742187500000e-01,-8.963012695312500000e-01,-3.234863281250000000e-02
-1.000000000000000000e+00,-7.000000000000000000e+00,-4.100000000000000000e+01,-4.000000000000000000e+00,-8.000000000000000000e+00,1.000000000000000000e+00,2.000000000000000000e+00,-3.000000000000000000e+00,4.092407226562500000e-01,1.676635742187500000e-01,-8.963012695312500000e-01,-3.234863281250000000e-02
-5.000000000000000000e+00,-4.000000000000000000e+00,4.000000000000000000e+01,-2.000000000000000000e+00,-4.000000000000000000e+00,-3.000000000000000000e+00,-1.400000000000000000e+01,-4.000000000000000000e+00,4.085693359375000000e-01,1.673583984375000000e-01,-8.966674804687500000e-01,-3.320312500000000000e-02
0.000000000000000000e+00,5.000000000000000000e+00,-1.200000000000000000e+01,1.100000000000000000e+01,5.000000000000000000e+00,2.000000000000000000e+00,1.400000000000000000e+01,2.000000000000000000e+00,4.085693359375000000e-01,1.673583984375000000e-01,-8.966674804687500000e-01,-3.320312500000000000e-02
2.000000000000000000e+00,2.000000000000000000e+00,-1.200000000000000000e+01,0.000000000000000000e+00,2.000000000000000000e+00,-1.000000000000000000e+00,-2.000000000000000000e+00,-3.000000000000000000e+00,4.085693359375000000e-01,1.673583984375000000e-01,-8.966674804687500000e-01,-3.320312500000000000e-02
5.000000000000000000e+00,1.000000000000000000e+01,4.300000000000000000e+01,2.700000000000000000e+01,7.000000000000000000e+00,3.000000000000000000e+00,-1.100000000000000000e+01,2.000000000000000000e+00,4.085693359375000000e-01,1.673583984375000000e-01,-8.966674804687500000e-01,-3.320312500000000000e-02
-7.000000000000000000e+00,-1.300000000000000000e+01,-7.400000000000000000e+01,-5.700000000000000000e+01,-1.100000000000000000e+01,-3.000000000000000000e+00,1.000000000000000000e+00,-2.000000000000000000e+00,4.078979492187500000e-01,1.679077148437500000e-01,-8.968505859375000000e-01,-3.338623046875000000e-02
-1.000000000000000000e+00,-4.000000000000000000e+00,-3.000000000000000000e+01,-2.000000000000000000e+00,-8.000000000000000000e+00,-3.000000000000000000e+00,4.000000000000000000e+00,3.000000000000000000e+00,4.078979492187500000e-01,1.679077148437500000e-01,-8.968505859375000000e-01,-3.338623046875000000e-02
1.000000000000000000e+00,1.000000000000000000e+00,3.200000000000000000e+01,2.000000000000000000e+00,-2.000000000000000000e+00,-1.000000000000000000e+00,-7.000000000000000000e+00,-2.000000000000000000e+00,4.078979492187500000e-01,1.679077148437500000e-01,-8.968505859375000000e-01,-3.338623046875000000e-02
3.000000000000000000e+00,3.000000000000000000e+00,-1.000000000000000000e+01,4.000000000000000000e+00,0.000000000000000000e+00,0.000000000000000000e+00,2.000000000000000000e+00,-2.000000000000000000e+00,4.078979492187500000e-01,1.679077148437500000e-01,-8.968505859375000000e-01,-3.338623046875000000e-02
1.000000000000000000e+00,5.000000000000000000e+00,1.300000000000000000e+01,1.700000000000000000e+01,3.000000000000000000e+00,-1.000000000000000000e+00,-2.000000000000000000e+00,-1.000000000000000000e+00,4.074096679687500000e-01,1.697998046875000000e-01,-8.967285156250000000e-01,-3.326416015625000000e-02
-3.000000000000000000e+00,-1.000000000000000000e+01,-1.400000000000000000e+01,-5.000000000000000000e+00,-3.000000000000000000e+00,-4.000000000000000000e+00,1.000000000000000000e+00,0.000000000000000000e+00,4.074096679687500000e-01,1.697998046875000000e-01,-8.967285156250000000e-01,-3.326416015625000000e-02
4.000000000000000000e+00,1.000000000000000000e+00,-3.400000000000000000e+01,-1.800000000000000000e+01,0.000000000000000000e+00,5.000000000000000000e+00,4.200000000000000000e+01,1.000000000000000000e+00,4.074096679687500000e-01,1.697998046875000000e-01,-8.967285156250000000e-01,-3.326416015625000000e-02
-5.000000000000000000e+00,-1.000000000000000000e+00,2.000000000000000000e+00,4.000000000000000000e+00,-2.000000000000000000e+00,-1.000000000000000000e+00,1.000000000000000000e+00,-3.000000000000000000e+00,4.074096679687500000e-01,1.697998046875000000e-01,-8.967285156250000000e-01,-3.326416015625000000e-02
-4.000000000000000000e+00,-4.000000000000000000e+00,1.800000000000000000e+01,1.000000000000000000e+00,-2.000000000000000000e+00,-2.000000000000000000e+00,-1.100000000000000000e+01,-1.000000000000000000e+00,4.068603515625000000e-01,1.706542968750000000e-01,-8.967895507812500000e-01,-3.375244140625000000e-02
-1.000000000000000000e+00,0.000000000000000000e+00,-1.200000000000000000e+01,-4.000000000000000000e+00,0.000000000000000000e+00,3.000000000000000000e+00,9.000000000000000000e+00,-1.000000000000000000e+00,4.068603515625000000e-01,1.706542968750000000e-01,-8.967895507812500000e-01,-3.375244140625000000e-02
1.000000000000000000e+00,2.000000000000000000e+00,1.200000000000000000e+01,1.100000000000000000e+01,-1.000000000000000000e+00,-5.000000000000000000e+00,-2.500000000000000000e+01,-2.000000000000000000e+00,4.068603515625000000e-01,1.706542968750000000e-01,-8.967895507812500000e-01,-3.375244140625000000e-02
2.000000000000000000e+00,4.000000000000000000e+00,7.000000000000000000e+00,-3.000000000000000000e+00,0.000000000000000000e+00,1.000000000000000000e+00,8.000000000000000000e+00,0.000000000000000000e+00,4.068603515625000000e-01,1.706542968750000000e-01,-8.967895507812500000e-01,-3.375244140625000000e-02
1.000000000000000000e+00,1.000000000000000000e+00,-9.000000000000000000e+00,5.000000000000000000e+00,0.000000000000000000e+00,0.000000000000000000e+00,4.000000000000000000e+00,-2.000000000000000000e+00,4.067382812500000000e-01,1.710205078125000000e-01,-8.967285156250000000e-01,-3.509521484375000000e-02
3.000000000000000000e+00,4.000000000000000000e+00,2.500000000000000000e+01,2.100000000000000000e+01,2.000000000000000000e+00,0.000000000000000000e+00,-4.000000000000000000e+00,1.000000000000000000e+00,4.067382812500000000e-01,1.710205078125000000e-01,-8.967285156250000000e-01,-3.509521484375000000e-02
-9.000000000000000000e+00,-7.000000000000000000e+00,-9.000000000000000000e+00,-5.000000000000000000e+00,-2.000000000000000000e+00,-6.000000000000000000e+00,-1.600000000000000000e+01,-5.000000000000000000e+00,4.067382812500000000e-01,1.710205078125000000e-01,-8.967285156250000000e-01,-3.509521484375000000e-02
4.000000000000000000e+00,3.000000000000000000e+00,-1.300000000000000000e+01,-7.000000000000000000e+00,3.000000000000000000e+00,0.000000000000000000e+00,3.000000000000000000e+00,-2.000000000000000000e+00,4.067382812500000000e-01,1.710205078125000000e-01,-8.967285156250000000e-01,-3.509521484375000000e-02
-2.000000000000000000e+00,-1.000000000000000000e+01,1.700000000000000000e+01,-9.000000000000000000e+00,-2.000000000000000000e+00,-3.000000000000000000e+00,-1.000000000000000000e+01,-2.000000000000000000e+00,4.072265625000000000e-01,1.702880859375000000e-01,-8.965454101562500000e-01,-3.668212890625000000e-02
1.000000000000000000e+00,1.000000000000000000e+00,-1.900000000000000000e+01,-2.000000000000000000e+00,0.000000000000000000e+00,1.000000000000000000e+00,5.000000000000000000e+00,2.000000000000000000e+00,4.072265625000000000e-01,1.702880859375000000e-01,-8.965454101562500000e-01,-3.668212890625000000e-02
5.000000000000000000e+00,-1.000000000000000000e+00,1.900000000000000000e+01,-2.000000000000000000e+01,-6.000000000000000000e+00,-1.000000000000000000e+00,-7.000000000000000000e+00,1.000000000000000000e+00,4.072265625000000000e-01,1.702880859375000000e-01,-8.965454101562500000e-01,-3.668212890625000000e-02
-3.000000000000000000e+00,-1.000000000000000000e+00,1.000000000000000000e+00,1.200000000000000000e+01,-3.000000000000000000e+00,-4.000000000000000000e+00,3.000000000000000000e+00,-1.000000000000000000e+00,4.072265625000000000e-01,1.702880859375000000e-01,-8.965454101562500000e-01,-3.668212890625000000e-02
6.000000000000000000e+00,1.200000000000000000e+01,-3.000000000000000000e+00,-4.000000000000000000e+00,6.000000000000000000e+00,2.000000000000000000e+00,5.000000000000000000e+00,2.000000000000000000e+00,4.080200195312500000e-01,1.699218750000000000e-01,-8.962402343750000000e-01,-3.753662109375000000e-02
-5.000000000000000000e+00,-4.000000000000000000e+00,2.700000000000000000e+01,2.000000000000000000e+01,-4.000000000000000000e+00,-3.000000000000000000e+00,-1.000000000000000000e+00,-3.000000000000000000e+00,4.080200195312500000e-01,1.699218750000000000e-01,-8.962402343750000000e-01,-3.753662109375000000e-02
1.000000000000000000e+00,1.000000000000000000e+00,-2.000000000000000000e+01,-1.600000000000000000e+01,-2.000000000000000000e+00,-2.000000000000000000e+00,-5.000000000000000000e+00,-1.000000000000000000e+00,4.080200195312500000e-01,1.699218750000000000e-01,-8.962402343750000000e-01,-3.753662109375000000e-02
1.500000000000000000e+01,1.000000000000000000e+00,-1.200000000000000000e+01,-1.200000000000000000e+01,1.000000000000000000e+00,2.000000000000000000e+00,0.000000000000000000e+00,3.000000000000000000e+00,4.080200195312500000e-01,1.699218750000000000e-01,-8.962402343750000000e-01,-3.753662109375000000e-02
-4.100000000000000000e+01,-6.000000000000000000e+00,2.400000000000000000e+01,2.300000000000000000e+01,-1.000000000000000000e+00,-1.000000000000000000e+00,-1.100000000000000000e+01,-5.000000000000000000e+00,4.090576171875000000e-01,1.713256835937500000e-01,-8.955078125000000000e-01,-3.765869140625000000e-02
-2.000000000000000000e+00,4.000000000000000000e+00,7.000000000000000000e+00,0.000000000000000000e+00,1.000000000000000000e+00,-2.000000000000000000e+00,6.000000000000000000e+00,2.000000000000000000e+00,4.090576171875000000e-01,1.713256835937500000e-01,-8.955078125000000000e-01,-3.765869140625000000e-02
-3.000000000000000000e+00,0.000000000000000000e+00,-8.000000000000000000e+00,8.000000000000000000e+00,6.000000000000000000e+00,5.000000000000000000e+00,-4.000000000000000000e+00,0.000000000000000000e+00,4.090576171875000000e-01,1.713256835937500000e-01,-8.955078125000000000e-01,-3.765869140625000000e-02
-1.000000000000000000e+00,1.000000000000000000e+00,3.000000000000000000e+00,0.000000000000000000e+00,-1.000000000000000000e+00,-6.000000000000000000e+00,-5.700000000000000000e+01,-3.000000000000000000e+00,4.090576171875000000e-01,1.713256835937500000e-01,-8.955078125000000000e-01,-3.765869140625000000e-02
6.000000000000000000e+00,-8.000000000000000000e+00,-5.000000000000000000e+00,-6.000000000000000000e+00,-1.100000000000000000e+01,3.000000000000000000e+00,3.900000000000000000e+01,-1.000000000000000000e+00,4.096679687500000000e-01,1.734008789062500000e-01,-8.947753906250000000e-01,-3.808593750000000000e-02
2.000000000000000000e+00,9.000000000000000000e+00,5.300000000000000000e+01,2.000000000000000000e+01,6.000000000000000000e+00,-5.000000000000000000e+00,-4.000000000000000000e+00,0.000000000000000000e+00,4.096679687500000000e-01,1.734008789062500000e-01,-8.947753906250000000e-01,-3.808593750000000000e-02
-4.000000000000000000e+00,-1.000000000000000000e+01,-1.200000000000000000e+01,5.000000000000000000e+00,0.000000000000000000e+00,0.000000000000000000e+00,1.000000000000000000e+00,-3.000000000000000000e+00,4.096679687500000000e-01,1.734008789062500000e-01,-8.947753906250000000e-01,-3.808593750000000000e-02
-2.000000000000000000e+00,-1.000000000000000000e+00,4.300000000000000000e+01,7.000000000000000000e+00,-1.000000000000000000e+00,-3.000000000000000000e+00,-6.000000000000000000e+00,0.000000000000000000e+00,4.096679687500000000e-01,1.734008789062500000e-01,-8.947753906250000000e-01,-3.808593750000000000e-02
7.000000000000000000e+00,3.000000000000000000e+00,-6.000000000000000000e+00,2.000000000000000000e+00,3.000000000000000000e+00,0.000000000000000000e+00,-7.000000000000000000e+00,3.000000000000000000e+00,4.101562500000000000e-01,1.759033203125000000e-01,-8.940429687500000000e-01,-3.942871093750000000e-02
-7.000000000000000000e+00,0.000000000000000000e+00,-2.400000000000000000e+01,-1.800000000000000000e+01,-6.000000000000000000e+00,2.000000000000000000e+00,1.700000000000000000e+01,-5.000000000000000000e+00,4.101562500000000000e-01,1.759033203125000000e-01,-8.940429687500000000e-01,-3.942871093750000000e-02
7.000000000000000000e+00,4.000000000000000000e+00,-4.000000000000000000e+00,9.000000000000000000e+00,2.000000000000000000e+00,0.000000000000000000e+00,-7.000000000000000000e+00,-1.000000000000000000e+00,4.101562500000000000e-01,1.759033203125000000e-01,-8.940429687500000000e-01,-3.942871093750000000e-02
-3.000000000000000000e+00,-9.000000000000000000e+00,1.700000000000000000e+01,3.000000000000000000e+00,-1.000000000000000000e+00,-1.000000000000000000e+00,1.100000000000000000e+01,-2.000000000000000000e+00,4.101562500000000000e-01,1.759033203125000000e-01,-8.940429687500000000e-01,-3.942871093750000000e-02
-3.000000000000000000e+00,2.000000000000000000e+00,-1.400000000000000000e+01,3.000000000000000000e+00,0.000000000000000000e+00,-3.000000000000000000e+00,-1.800000000000000000e+01,-3.000000000000000000e+00,4.110717773437500000e-01,1.771240234375000000e-01,-8.932495117187500000e-01,-4.223632812500000000e-02
0.000000000000000000e+00,-4.000000000000000000e+00,-2.200000000000000000e+01,-6.000000000000000000e+00,-2.000000000000000000e+00,0.000000000000000000e+00,4.000000000000000000e+00,0.000000000000000000e+00,4.110717773437500000e-01,1.771240234375000000e-01,-8.932495117187500000e-01,-4.223632812500000000e-02
-8.000000000000000000e+00,3.000000000000000000e+00,6.000000000000000000e+00,4.000000000000000000e+00,0.000000000000000000e+00,-2.000000000000000000e+00,-1.400000000000000000e+01,-1.000000000000000000e+00,4.110717773437500000e-01,1.771240234375000000e-01,-8.932495117187500000e-01,-4.223632812500000000e-02
-7.000000000000000000e+00,1.000000000000000000e+00,-1.000000000000000000e+00,-1.000000000000000000e+01,3.000000000000000000e+00,7.000000000000000000e+00,1.900000000000000000e+01,-2.000000000000000000e+00,4.110717773437500000e-01,1.771240234375000000e-01,-8.932495117187500000e-01,-4.223632812500000000e-02
3.000000000000000000e+00,-1.000000000000000000e+00,-6.000000000000000000e+00,1.400000000000000000e+01,-5.000000000000000000e+00,-9.000000000000000000e+00,-6.000000000000000000e+00,-1.000000000000000000e+00,4.124145507812500000e-01,1.762084960937500000e-01,-8.927001953125000000e-01,-4.510498046875000000e-02
4.000000000000000000e+00,-1.000000000000000000e+00,-2.600000000000000000e+01,-2.900000000000000000e+01,-2.000000000000000000e+00,-3.000000000000000000e+00,-1.400000000000000000e+01,0.000000000000000000e+00,4.124145507812500000e-01,1.762084960937500000e-01,-8.927001953125000000e-01,-4.510498046875000000e-02
-4.000000000000000000e+00,-1.000000000000000000e+01,-1.600000000000000000e+01,-7.000000000000000000e+00,-6.000000000000000000e+00,-4.000000000000000000e+00,5.000000000000000000e+00,-4.000000000000000000e+00,4.124145507812500000e-01,1.762084960937500000e-01,-8.927001953125000000e-01,-4.510498046875000000e-02
-4.000000000000000000e+00,1.000000000000000000e+00,-1.600000000000000000e+01,-4.000000000000000000e+00,4.000000000000000000e+00,0.000000000000000000e+00,3.000000000000000000e+00,1.000000000000000000e+00,4.124145507812500000e-01,1.762084960937500000e-01,-8.927001953125000000e-01,-4.510498046875000000e-02
6.000000000000000000e+00,-1.000000000000000000e+00,3.300000000000000000e+01,4.000000000000000000e+00,1.000000000000000000e+00,1.000000000000000000e+00,8.000000000000000000e+00,0.000000000000000000e+00,4.133911132812500000e-01,1.760253906250000000e-01,-8.922119140625000000e-01,-4.608154296875000000e-02
-5.000000000000000000e+00,-4.000000000000000000e+00,-3.500000000000000000e+01,-1.800000000000000000e+01,-2.000000000000000000e+00,-1.000000000000000000e+00,-9.000000000000000000e+00,-5.000000000000000000e+00,4.133911132812500000e-01,1.760253906250000000e-01,-8.922119140625000000e-01,-4.608154296875000000e-02
-1.000000000000000000e+00,2.000000000000000000e+00,6.000000000000000000e+01,1.800000000000000000e+01,-5.000000000000000000e+00,-2.000000000000000000e+00,7.000000000000000000e+00,-2.000000000000000000e+00,4.133911132812500000e-01,1.760253906250000000e-01,-8.922119140625000000e-01,-4.608154296875000000e-02
3.000000000000000000e+00,-5.000000000000000000e+00,-1.200000000000000000e+01,-4.000000000000000000e+00,-3.000000000000000000e+00,-3.000000000000000000e+00,-1.100000000000000000e+01,-3.000000000000000000e+00,4.133911132812500000e-01,1.760253906250000000e-01,-8.922119140625000000e-01,-4.608154296875000000e-02
2.100000000000000000e+01,4.000000000000000000e+00,-1.700000000000000000e+01,-6.000000000000000000e+00,7.000000000000000000e+00,0.000000000000000000e+00,-1.900000000000000000e+01,0.000000000000000000e+00,4.140014648437500000e-01,1.771850585937500000e-01,-8.917236328125000000e-01,-4.583740234375000000e-02
-2.100000000000000000e+01,-3.000000000000000000e+00,-4.700000000000000000e+01,-1.200000000000000000e+01,-7.000000000000000000e+00,-1.000000000000000000e+00,7.000000000000000000e+00,0.000000000000000000e+00,4.140014648437500000e-01,1.771850585937500000e-01,-8.917236328125000000e-01,-4.583740234375000000e-02
2.000000000000000000e+00,7.000000000000000000e+00,2.400000000000000000e+01,1.600000000000000000e+01,8.000000000000000000e+00,-1.000000000000000000e+00,-5.500000000000000000e+01,1.000000000000000000e+00,4.140014648437500000e-01,1.771850585937500000e-01,-8.917236328125000000e-01,-4.583740234375000000e-02
-4.000000000000000000e+00,-6.000000000000000000e+00,-1.500000000000000000e+01,-2.200000000000000000e+01,-6.000000000000000000e+00,5.000000000000000000e+00,1.700000000000000000e+01,-1.000000000000000000e+00,4.140014648437500000e-01,1.771850585937500000e-01,-8.917236328125000000e-01,-4.583740234375000000e-02
3.000000000000000000e+00,1.000000000000000000e+00,-2.600000000000000000e+01,-1.000000000000000000e+00,-3.000000000000000000e+00,-3.000000000000000000e+00,1.000000000000000000e+00,0.000000000000000000e+00,4.143676757812500000e-01,1.788330078125000000e-01,-8.912353515625000000e-01,-4.559326171875000000e-02
5.000000000000000000e+00,-7.000000000000000000e+00,-3.000000000000000000e+00,2.000000000000000000e+00,-1.000000000000000000e+00,1.000000000000000000e+00,1.000000000000000000e+00,-2.000000000000000000e+00,4.143676757812500000e-01,1.788330078125000000e-01,-8.912353515625000000e-01,-4.559326171875000000e-02
-3.000000000000000000e+00,1.000000000000000000e+00,-1.200000000000000000e+01,-1.000000000000000000e+00,0.000000000000000000e+00,-8.000000000000000000e+00,-9.000000000000000000e+00,-3.000000000000000000e+00,4.143676757812500000e-01,1.788330078125000000e-01,-8.912353515625000000e-01,-4.559326171875000000e-02
8.000000000000000000e+00,2.000000000000000000e+00,2.100000000000000000e+01,2.000000000000000000e+00,-2.000000000000000000e+00,3.000000000000000000e+00,7.000000000000000000e+00,0.000000000000000000e+00,4.143676757812500000e-01,1.788330078125000000e-01,-8.912353515625000000e-01,-4.559326171875000000e-02
-2.000000000000000000e+00,-3.000000000000000000e+00,-2.700000000000000000e+01,-1.400000000000000000e+01,-3.000000000000000000e+00,-4.000000000000000000e+00,-6.000000000000000000e+00,-1.000000000000000000e+00,4.149169921875000000e-01,1.788940429687500000e-01,-8.909301757812500000e-01,-4.608154296875000000e-02
4.000000000000000000e+00,6.000000000000000000e+00,6.600000000000000000e+01,2.200000000000000000e+01,1.000000000000000000e+00,2.000000000000000000e+00,1.000000000000000000e+00,2.000000000000000000e+00,4.149169921875000000e-01,1.788940429687500000e-01,-8.909301757812500000e-01,-4.608154296875000000e-02
-1.000000000000000000e+01,-2.000000000000000000e+01,-4.000000000000000000e+00,-7.000000000000000000e+00,-1.100000000000000000e+01,-7.000000000000000000e+00,3.000000000000000000e+00,-4.000000000000000000e+00,4.149169921875000000e-01,1.788940429687500000e-01,-8.909301757812500000e-01,-4.608154296875000000e-02
-2.000000000000000000e+00,1.000000000000000000e+00,-6.000000000000000000e+00,1.000000000000000000e+00,-1.000000000000000000e+00,2.000000000000000000e+00,1.400000000000000000e+01,1.000000000000000000e+00,4.149169921875000000e-01,1.788940429687500000e-01,-8.909301757812500000e-01,-4.608154296875000000e-02
-4.000000000000000000e+00,-2.000000000000000000e+00,-1.000000000000000000e+00,4.000000000000000000e+00,2.000000000000000000e+00,1.000000000000000000e+00,4.000000000000000000e+00,-3.000000000000000000e+00,4.157104492187500000e-01,1.774291992187500000e-01,-8.908081054687500000e-01,-4.656982421875000000e-02
4.000000000000000000e+00,6.000000000000000000e+00,1.100000000000000000e+01,1.200000000000000000e+01,7.000000000000000000e+00,1.000000000000000000e+00,-1.400000000000000000e+01,-1.000000000000000000e+00,4.157104492187500000e-01,1.774291992187500000e-01,-8.908081054687500000e-01,-4.656982421875000000e-02
6.000000000000000000e+00,0.000000000000000000e+00,-8.000000000000000000e+00,-8.000000000000000000e+00,1.000000000000000000e+00,1.000000000000000000e+00,2.200000000000000000e+01,3.000000000000000000e+00,4.157104492187500000e-01,1.774291992187500000e-01,-8.908081054687500000e-01,-4.656982421875000000e-02
-1.000000000000000000e+00,1.000000000000000000e+00,-3.600000000000000000e+01,-1.200000000000000000e+01,1.000000000000000000e+00,-3.000000000000000000e+00,-5.000000000000000000e+00,1.000000000000000000e+00,4.157104492187500000e-01,1.774291992187500000e-01,-8.908081054687500000e-01,-4.656982421875000000e-02
-9.000000000000000000e+00,-1.000000000000000000e+01,2.900000000000000000e+01,-7.000000000000000000e+00,-1.400000000000000000e+01,-5.000000000000000000e+00,-1.000000000000000000e+00,-4.000000000000000000e+00,4.164428710937500000e-01,1.760864257812500000e-01,-8.907470703125000000e-01,-4.632568359375000000e-02
2.000000000000000000e+00,4.000000000000000000e+00,1.700000000000000000e+01,1.200000000000000000e+01,2.000000000000000000e+00,2.000000000000000000e+00,0.000000000000000000e+00,2.000000000000000000e+00,4.164428710937500000e-01,1.760864257812500000e-01,-8.907470703125000000e-01,-4.632568359375000000e-02
0.000000000000000000e+00,0.000000000000000000e+00,-5.100000000000000000e+01,-8.000000000000000000e+00,2.000000000000000000e+00,5.000000000000000000e+00,8.000000000000000000e+00,1.000000000000000000e+00,4.164428710937500000e-01,1.760864257812500000e-01,-8.907470703125000000e-01,-4.632568359375000000e-02
-3.000000000000000000e+00,5.000000000000000000e+00,4.000000000000000000e+01,1.600000000000000000e+01,-2.000000000000000000e+00,2.000000000000000000e+00,1.700000000000000000e+01,0.000000000000000000e+00,4.164428710937500000e-01,1.760864257812500000e-01,-8.907470703125000000e-01,-4.632568359375000000e-02
-6.000000000000000000e+00,3.000000000000000000e+00,-3.000000000000000000e+00,0.000000000000000000e+00,-1.000000000000000000e+00,-6.000000000000000000e+00,-2.900000000000000000e+01,-7.000000000000000000e+00,4.168090820312500000e-01,1.755371093750000000e-01,-8.907470703125000000e-01,-4.547119140625000000e-02
6.000000000000000000e+00,-1.000000000000000000e+00,-3.400000000000000000e+01,-1.700000000000000000e+01,1.000000000000000000e+00,-2.000000000000000000e+00,-4.000000000000000000e+00,1.000000000000000000e+00,4.168090820312500000e-01,1.755371093750000000e-01,-8.907470703125000000e-01,-4.547119140625000000e-02
2.000000000000000000e+00,-2.000000000000000000e+00,-4.000000000000000000e+00,2.000000000000000000e+00,-6.000000000000000000e+00,-2.000000000000000000e+00,8.000000000000000000e+00,0.000000000000000000e+00,4.168090820312500000e-01,1.755371093750000000e-01,-8.907470703125000000e-01,-4.547119140625000000e-02
-1.000000000000000000e+00,2.000000000000000000e+00,1.900000000000000000e+01,1.000000000000000000e+01,-2.000000000000000000e+00,-5.000000000000000000e+00,-1.000000000000000000e+01,0.000000000000000000e+00,4.168090820312500000e-01,1.755371093750000000e-01,-8.907470703125000000e-01,-4.547119140625000000e-02
-3.000000000000000000e+00,-3.000000000000000000e+00,-4.200000000000000000e+01,-1.000000000000000000e+00,5.000000000000000000e+00,3.000000000000000000e+00,7.000000000000000000e+00,1.000000000000000000e+00,4.169921875000000000e-01,1.754150390625000000e-01,-8.906860351562500000e-01,-4.473876953125000000e-02
7.000000000000000000e+00,-1.200000000000000000e+01,0.000000000000000000e+00,-9.000000000000000000e+00,-8.000000000000000000e+00,-3.000000000000000000e+00,5.000000000000000000e+00,-4.000000000000000000e+00,4.169921875000000000e-01,1.754150390625000000e-01,-8.906860351562500000e-01,-4.473876953125000000e-02
-5.000000000000000000e+00,1.000000000000000000e+00,9.000000000000000000e+00,6.000000000000000000e+00,3.000000000000000000e+00,-3.000000000000000000e+00,-1.100000000000000000e+01,-3.000000000000000000e+00,4.171142578125000000e-01,1.751098632812500000e-01,-8.906860351562500000e-01,-4.449462890625000000e-02
-4.000000000000000000e+00,5.000000000000000000e+00,-6.000000000000000000e+00,-8.000000000000000000e+00,-1.000000000000000000e+00,-3.000000000000000000e+00,3.000000000000000000e+00,-1.000000000000000000e+00,4.171142578125000000e-01,1.751098632812500000e-01,-8.906860351562500000e-01,-4.449462890625000000e-02
-3.000000000000000000e+00,-1.000000000000000000e+00,6.000000000000000000e+00,1.000000000000000000e+01,-4.000000000000000000e+00,2.000000000000000000e+00,0.000000000000000000e+00,-1.000000000000000000e+00,4.171142578125000000e-01,1.751098632812500000e-01,-8.906860351562500000e-01,-4.449462890625000000e-02
-5.000000000000000000e+00,-3.000000000000000000e+00,2.100000000000000000e+01,-5.000000000000000000e+00,1.000000000000000000e+00,1.000000000000000000e+00,2.000000000000000000e+00,1.000000000000000000e+00,4.171142578125000000e-01,1.751098632812500000e-01,-8.906860351562500000e-01,-4.449462890625000000e-02
6.000000000000000000e+00,1.000000000000000000e+00,4.000000000000000000e+00,0.000000000000000000e+00,-4.000000000000000000e+00,-2.000000000000000000e+00,7.000000000000000000e+00,0.000000000000000000e+00,4.174194335937500000e-01,1.738891601562500000e-01,-8.908081054687500000e-01,-4.479980468750000000e-02
-2.000000000000000000e+00,-7.000000000000000000e+00,-2.200000000000000000e+01,-2.000000000000000000e+00,1.000000000000000000e+00,-5.000000000000000000e+00,-1.100000000000000000e+01,-1.000000000000000000e+00,4.174194335937500000e-01,1.738891601562500000e-01,-8.908081054687500000e-01,-4.479980468750000000e-02
-5.000000000000000000e+00,-3.000000000000000000e+00,-1.700000000000000000e+01,-2.100000000000000000e+01,-2.000000000000000000e+00,0.000000000000000000e+00,8.000000000000000000e+00,0.000000000000000000e+00,4.174194335937500000e-01,1.738891601562500000e-01,-8.908081054687500000e-01,-4.479980468750000000e-02
2.000000000000000000e+00,1.000000000000000000e+00,1.700000000000000000e+01,9.000000000000000000e+00,4.000000000000000000e+00,5.000000000000000000e+00,-3.000000000000000000e+00,-3.000000000000000000e+00,4.174194335937500000e-01,1.738891601562500000e-01,-8.908081054687500000e-01,-4.479980468750000000e-02
1.400000000000000000e+01,5.000000000000000000e+00,-8.000000000000000000e+00,-7.000000000000000000e+00,2.000000000000000000e+00,0.000000000000000000e+00,1.000000000000000000e+01,2.000000000000000000e+00,4.176635742187500000e-01,1.723632812500000000e-01,-8.909301757812500000e-01,-4.553222656250000000e-02
-5.000000000000000000e+00,-5.000000000000000000e+00,-1.100000000000000000e+01,-4.000000000000000000e+00,-1.000000000000000000e+00,-2.000000000000000000e+00,2.000000000000000000e+00,-3.000000000000000000e+00,4.176635742187500000e-01,1.723632812500000000e-01,-8.909301757812500000e-01,-4.553222656250000000e-02
1.000000000000000000e+00,2.000000000000000000e+00,-6.000000000000000000e+00,-5.000000000000000000e+00,2.000000000000000000e+00,2.000000000000000000e+00,-1.200000000000000000e+01,1.000000000000000000e+00,4.176635742187500000e-01,1.723632812500000000e-01,-8.909301757812500000e-01,-4.553222656250000000e-02
-6.000000000000000000e+00,-2.000000000000000000e+00,-1.200000000000000000e+01,-7.000000000000000000e+00,0.000000000000000000e+00,0.000000000000000000e+00,-1.000000000000000000e+00,-4.000000000000000000e+00,4.176635742187500000e-01,1.723632812500000000e-01,-8.909301757812500000e-01,-4.553222656250000000e-02
-2.000000000000000000e+00,7.000000000000000000e+00,5.800000000000000000e+01,3.000000000000000000e+01,4.000000000000000000e+00,-5.000000000000000000e+00,-4.800000000000000000e+01,0.000000000000000000e+00,4.176635742187500000e-01,1.708374023437500000e-01,-8.912353515625000000e-01,-4.620361328125000000e-02
-6.000000000000000000e+00,-9.000000000000000000e+00,-3.400000000000000000e+01,-5.000000000000000000e+00,-3.000000000000000000e+00,-4.000000000000000000e+00,1.900000000000000000e+01,-1.000000000000000000e+00,4.176635742187500000e-01,1.708374023437500000e-01,-8.912353515625000000e-01,-4.620361328125000000e-02
8.000000000000000000e+00,2.000000000000000000e+00,-1.700000000000000000e+01,-4.000000000000000000e+00,3.000000000000000000e+00,-3.000000000000000000e+00,9.000000000000000000e+00,0.000000000000000000e+00,4.176635742187500000e-01,1.708374023437500000e-01,-8.912353515625000000e-01,-4.620361328125000000e-02
0.000000000000000000e+00,1.000000000000000000e+00,5.000000000000000000e+00,3.000000000000000000e+00,-2.000000000000000000e+00,-4.000000000000000000e+00,-1.000000000000000000e+00,0.000000000000000000e+00,4.176635742187500000e-01,1.708374023437500000e-01,-8.912353515625000000e-01,-4.620361328125000000e-02
-5.000000000000000000e+00,1.000000000000000000e+00,2.000000000000000000e+00,-1.000000000000000000e+00,-2.000000000000000000e+00,-1.000000000000000000e+00,2.000000000000000000e+00,-1.000000000000000000e+00,4.171142578125000000e-01,1.705932617187500000e-01,-8.915405273437500000e-01,-4.620361328125000000e-02
6.000000000000000000e+00,-1.000000000000000000e+00,4.100000000000000000e+01,3.000000000000000000e+00,-4.000000000000000000e+00,0.000000000000000000e+00,-1.700000000000000000e+01,-1.000000000000000000e+00,4.171142578125000000e-01,1.705932617187500000e-01,-8.915405273437500000e-01,-4.620361328125000000e-02
-6.000000000000000000e+00,-4.000000000000000000e+00,4.300000000000000000e+01,1.600000000000000000e+01,0.000000000000000000e+00,-3.000000000000000000e+00,-3.000000000000000000e+00,-2.000000000000000000e+00,4.171142578125000000e-01,1.705932617187500000e-01,-8.915405273437500000e-01,-4.620361328125000000e-02
-1.000000000000000000e+00,-3.000000000000000000e+00,-1.500000000000000000e+01,-9.000000000000000000e+00,-5.000000000000000000e+00,-4.000000000000000000e+00,0.000000000000000000e+00,0.000000000000000000e+00,4.171142578125000000e-01,1.705932617187500000e-01,-8.915405273437500000e-01,-4.620361328125000000e-02
0.000000000000000000e+00,5.000000000000000000e+00,8.000000000000000000e+00,1.500000000000000000e+01,0.000000000000000000e+00,3.000000000000000000e+00,1.400000000000000000e+01,-2.000000000000000000e+00,4.161987304687500000e-01,1.714477539062500000e-01,-8.917846679687500000e-01,-4.608154296875000000e-02
1.000000000000000000e+00,-1.000000000000000000e+01,-7.700000000000000000e+01,-4.200000000000000000e+01,-7.000000000000000000e+00,-4.000000000000000000e+00,-7.000000000000000000e+00,-1.000000000000000000e+00,4.161987304687500000e-01,1.714477539062500000e-01,-8.917846679687500000e-01,-4.608154296875000000e-02
1.300000000000000000e+01,3.000000000000000000e+00,5.000000000000000000e+00,8.000000000000000000e+00,0.000000000000000000e+00,-2.000000000000000000e+00,1.900000000000000000e+01,2.000000000000000000e+00,4.161987304687500000e-01,1.714477539062500000e-01,-8.917846679687500000e-01,-4.608154296875000000e-02
-1.700000000000000000e+01,-4.000000000000000000e+00,-5.000000000000000000e+00,3.000000000000000000e+00,1.000000000000000000e+00,2.000000000000000000e+00,-5.000000000000000000e+00,-3.000000000000000000e+00,4.161987304687500000e-01,1.714477539062500000e-01,-8.917846679687500000e-01,-4.608154296875000000e-02
1.000000000000000000e+00,-3.000000000000000000e+00,2.000000000000000000e+00,-8.000000000000000000e+00,-2.000000000000000000e+00,1.000000000000000000e+00,1.200000000000000000e+01,1.000000000000000000e+00,4.154663085937500000e-01,1.724853515625000000e-01,-8.919067382812500000e-01,-4.669189453125000000e-02
-4.000000000000000000e+00,4.000000000000000000e+00,2.300000000000000000e+01,2.000000000000000000e+01,-1.000000000000000000e+00,-3.000000000000000000e+00,-3.000000000000000000e+00,-3.000000000000000000e+00,4.154663085937500000e-01,1.724853515625000000e-01,-8.919067382812500000e-01,-4.669189453125000000e-02
6.000000000000000000e+00,1.000000000000000000e+00,2.400000000000000000e+01,2.200000000000000000e+01,0.000000000000000000e+00,4.000000000000000000e+00,-1.700000000000000000e+01,-3.000000000000000000e+00,4.154663085937500000e-01,1.724853515625000000e-01,-8.919067382812500000e-01,-4.669189453125000000e-02
7.000000000000000000e+00,0.000000000000000000e+00,-3.800000000000000000e+01,-3.200000000000000000e+01,0.000000000000000000e+00,-4.000000000000000000e+00,0.000000000000000000e+00,0.000000000000000000e+00,4.154663085937500000e-01,1.724853515625000000e-01,-8.919067382812500000e-01,-4.669189453125000000e-02
-2.000000000000000000e+00,4.000000000000000000e+00,2.200000000000000000e+01,7.000000000000000000e+00,3.000000000000000000e+00,3.000000000000000000e+00,7.000000000000000000e+00,-1.000000000000000000e+00,4.149169921875000000e-01,1.723632812500000000e-01,-8.920898437500000000e-01,-4.785156250000000000e-02
-6.000000000000000000e+00,-9.000000000000000000e+00,-4.100000000000000000e+01,-2.900000000000000000e+01,-8.000000000000000000e+00,-3.000000000000000000e+00,-1.000000000000000000e+00,-4.000000000000000000e+00,4.149169921875000000e-01,1.723632812500000000e-01,-8.920898437500000000e-01,-4.785156250000000000e-02
-7.000000000000000000e+00,1.000000000000000000e+00,-1.900000000000000000e+01,-1.100000000000000000e+01,-2.000000000000000000e+00,-1.000000000000000000e+00,-6.000000000000000000e+00,-2.000000000000000000e+00,4.149169921875000000e-01,1.723632812500000000e-01,-8.920898437500000000e-01,-4.785156250000000000e-02
0.000000000000000000e+00,-2.000000000000000000e+00,2.800000000000000000e+01,1.900000000000000000e+01,0.000000000000000000e+00,-2.000000000000000000e+00,3.000000000000000000e+00,2.000000000000000000e+00,4.149169921875000000e-01,1.723632812500000000e-01,-8.920898437500000000e-01,-4.785156250000000000e-02
-5.000000000000000000e+00,-2.000000000000000000e+00,-7.000000000000000000e+00,-9.000000000000000000e+00,-4.000000000000000000e+00,1.000000000000000000e+00,6.000000000000000000e+00,-3.000000000000000000e+00,4.143676757812500000e-01,1.722412109375000000e-01,-8.923339843750000000e-01,-4.870605468750000000e-02
1.000000000000000000e+00,4.000000000000000000e+00,3.700000000000000000e+01,1.900000000000000000e+01,5.000000000000000000e+00,3.000000000000000000e+00,-3.000000000000000000e+00,3.000000000000000000e+00,4.143676757812500000e-01,1.722412109375000000e-01,-8.923339843750000000e-01,-4.870605468750000000e-02
-2.000000000000000000e+00,0.000000000000000000e+00,5.800000000000000000e+01,1.000000000000000000e+01,-4.000000000000000000e+00,-3.000000000000000000e+00,6.000000000000000000e+00,-3.000000000000000000e+00,4.143676757812500000e-01,1.722412109375000000e-01,-8.923339843750000000e-01,-4.870605468750000000e-02
-4.000000000000000000e+00,-7.000000000000000000e+00,-1.300000000000000000e+01,7.000000000000000000e+00,-2.000000000000000000e+00,-3.000000000000000000e+00,-1.000000000000000000e+00,-1.000000000000000000e+00,4.143676757812500000e-01,1.722412109375000000e-01,-8.923339843750000000e-01,-4.870605468750000000e-02
0.000000000000000000e+00,-9.000000000000000000e+00,-1.000000000000000000e+00,-1.100000000000000000e+01,0.000000000000000000e+00,1.000000000000000000e+00,4.000000000000000000e+00,-1.000000000000000000e+00,4.138183593750000000e-01,1.730957031250000000e-01,-8.923950195312500000e-01,-4.882812500000000000e-02
1.000000000000000000e+00,4.000000000000000000e+00,-2.300000000000000000e+01,-3.000000000000000000e+00,-1.000000000000000000e+00,-5.000000000000000000e+00,-6.000000000000000000e+00,-1.000000000000000000e+00,4.138183593750000000e-01,1.730957031250000000e-01,-8.923950195312500000e-01,-4.882812500000000000e-02
-7.000000000000000000e+00,-6.000000000000000000e+00,-1.100000000000000000e+01,-1.100000000000000000e+01,-2.000000000000000000e+00,-4.000000000000000000e+00,-4.200000000000000000e+01,-2.000000000000000000e+00,4.138183593750000000e-01,1.730957031250000000e-01,-8.923950195312500000e-01,-4.882812500000000000e-02
4.000000000000000000e+00,7.000000000000000000e+00,1.800000000000000000e+01,1.400000000000000000e+01,5.000000000000000000e+00,9.000000000000000000e+00,3.600000000000000000e+01,4.000000000000000000e+00,4.138183593750000000e-01,1.730957031250000000e-01,-8.923950195312500000e-01,-4.882812500000000000e-02
-2.000000000000000000e+00,3.000000000000000000e+00,-4.600000000000000000e+01,0.000000000000000000e+00,3.000000000000000000e+00,-3.000000000000000000e+00,0.000000000000000000e+00,0.000000000000000000e+00,4.130859375000000000e-01,1.748046875000000000e-01,-8.924560546875000000e-01,-4.876708984375000000e-02
-5.000000000000000000e+00,-4.000000000000000000e+00,3.100000000000000000e+01,1.300000000000000000e+01,0.000000000000000000e+00,0.000000000000000000e+00,-1.100000000000000000e+01,-6.000000000000000000e+00,4.130859375000000000e-01,1.748046875000000000e-01,-8.924560546875000000e-01,-4.876708984375000000e-02
-3.000000000000000000e+00,2.000000000000000000e+00,-1.700000000000000000e+01,-9.000000000000000000e+00,1.000000000000000000e+00,-1.000000000000000000e+00,7.000000000000000000e+00,2.000000000000000000e+00,4.130859375000000000e-01,1.748046875000000000e-01,-8.924560546875000000e-01,-4.876708984375000000e-02
0.000000000000000000e+00,-2.000000000000000000e+00,-8.000000000000000000e+00,-1.400000000000000000e+01,-7.000000000000000000e+00,-5.000000000000000000e+00,-1.200000000000000000e+01,-4.000000000000000000e+00,4.130859375000000000e-01,1.748046875000000000e-01,-8.924560546875000000e-01,-4.876708984375000000e-02
2.000000000000000000e+00,-1.000000000000000000e+00,-2.000000000000000000e+01,-2.000000000000000000e+00,1.000000000000000000e+00,0.000000000000000000e+00,0.000000000000000000e+00,0.000000000000000000e+00,4.125366210937500000e-01,1.760864257812500000e-01,-8.923950195312500000e-01,-4.907226562500000000e-02
0.000000000000000000e+00,2.000000000000000000e+00,-2.100000000000000000e+01,7.000000000000000000e+00,1.000000000000000000e+00,2.000000000000000000e+00,8.000000000000000000e+00,2.000000000000000000e+00,4.125366210937500000e-01,1.760864257812500000e-01,-8.923950195312500000e-01,-4.907226562500000000e-02
0.000000000000000000e+00,0.000000000000000000e+00,-5.400000000000000000e+01,-3.000000000000000000e+01,1.000000000000000000e+00,3.000000000000000000e+00,1.400000000000000000e+01,0.000000000000000000e+00,4.125366210937500000e-01,1.760864257812500000e-01,-8.923950195312500000e-01,-4.907226562500000000e-02
-4.000000000000000000e+00,-1.200000000000000000e+01,-5.600000000000000000e+01,-5.000000000000000000e+00,-8.000000000000000000e+00,-5.000000000000000000e+00,-1.200000000000000000e+01,-4.000000000000000000e+00,4.125366210937500000e-01,1.760864257812500000e-01,-8.923950195312500000e-01,-4.907226562500000000e-02
-3.000000000000000000e+00,-5.000000000000000000e+00,-3.700000000000000000e+01,-3.700000000000000000e+01,-9.000000000000000000e+00,-6.000000000000000000e+00,4.000000000000000000e+00,-2.000000000000000000e+00,4.121704101562500000e-01,1.762695312500000000e-01,-8.925170898437500000e-01,-4.980468750000000000e-02
-4.000000000000000000e+00,0.000000000000000000e+00,2.000000000000000000e+00,5.000000000000000000e+00,1.000000000000000000e+00,1.000000000000000000e+00,1.000000000000000000e+00,0.000000000000000000e+00,4.121704101562500000e-01,1.762695312500000000e-01,-8.925170898437500000e-01,-4.980468750000000000e-02
-2.000000000000000000e+00,-1.000000000000000000e+00,-2.100000000000000000e+01,-1.300000000000000000e+01,-2.000000000000000000e+00,1.000000000000000000e+00,0.000000000000000000e+00,-1.000000000000000000e+00,4.121704101562500000e-01,1.762695312500000000e-01,-8.925170898437500000e-01,-4.980468750000000000e-02
-1.000000000000000000e+00,3.000000000000000000e+00,5.700000000000000000e+01,2.600000000000000000e+01,4.000000000000000000e+00,-1.000000000000000000e+00,-8.000000000000000000e+00,-2.000000000000000000e+00,4.121704101562500000e-01,1.762695312500000000e-01,-8.925170898437500000e-01,-4.980468750000000000e-02
1.300000000000000000e+01,-6.000000000000000000e+00,-2.300000000000000000e+01,-9.000000000000000000e+00,-5.000000000000000000e+00,-5.000000000000000000e+00,-4.000000000000000000e+00,0.000000000000000000e+00,4.119262695312500000e-01,1.759643554687500000e-01,-8.927001953125000000e-01,-4.986572265625000000e-02
-3.600000000000000000e+01,-3.000000000000000000e+00,0.000000000000000000e+00,-8.000000000000000000e+00,2.000000000000000000e+00,1.000000000000000000e+00,1.000000000000000000e+00,-5.000000000000000000e+00,4.119262695312500000e-01,1.759643554687500000e-01,-8.927001953125000000e-01,-4.986572265625000000e-02
1.000000000000000000e+00,2.000000000000000000e+00,-2.000000000000000000e+01,1.100000000000000000e+01,-5.000000000000000000e+00,-3.000000000000000000e+00,6.000000000000000000e+00,0.000000000000000000e+00,4.119262695312500000e-01,1.759643554687500000e-01,-8.927001953125000000e-01,-4.986572265625000000e-02
-9.000000000000000000e+00,-1.000000000000000000e+01,9.000000000000000000e+00,-1.200000000000000000e+01,-4.000000000000000000e+00,-4.000000000000000000e+00,0.000000000000000000e+00,-3.000000000000000000e+00,4.119262695312500000e-01,1.759643554687500000e-01,-8.927001953125000000e-01,-4.986572265625000000e-02
1.000000000000000000e+00,2.000000000000000000e+00,5.700000000000000000e+01,1.800000000000000000e+01,0.000000000000000000e+00,1.000000000000000000e+00,-3.000000000000000000e+00,-2.000000000000000000e+00,4.118041992187500000e-01,1.759033203125000000e-01,-8.928222656250000000e-01,-4.937744140625000000e-02
1.300000000000000000e+01,4.000000000000000000e+00,3.000000000000000000e+01,1.300000000000000000e+01,5.000000000000000000e+00,2.000000000000000000e+00,4.000000000000000000e+00,1.000000000000000000e+00,4.118041992187500000e-01,1.759033203125000000e-01,-8.928222656250000000e-01,-4.937744140625000000e-02
-1.000000000000000000e+00,0.000000000000000000e+00,-1.700000000000000000e+01,0.000000000000000000e+00,1.000000000000000000e+00,1.000000000000000000e+00,8.000000000000000000e+00,1.000000000000000000e+00,4.118041992187500000e-01,1.759033203125000000e-01,-8.928222656250000000e-01,-4.937744140625000000e-02
-1.000000000000000000e+00,5.000000000000000000e+00,-5.000000000000000000e+00,-2.000000000000000000e+00,0.000000000000000000e+00,-2.000000000000000000e+00,-6.000000000000000000e+00,-1.000000000000000000e+00,4.118041992187500000e-01,1.759033203125000000e-01,-8.928222656250000000e-01,-4.937744140625000000e-02
1.000000000000000000e+00,0.000000000000000000e+00,1.400000000000000000e+01,2.000000000000000000e+00,0.000000000000000000e+00,2.000000000000000000e+00,-5.000000000000000000e+00,2.000000000000000000e+00,4.114990234375000000e-01,1.761474609375000000e-01,-8.928833007812500000e-01,-4.870605468750000000e-02
4.000000000000000000e+00,-6.000000000000000000e+00,-1.100000000000000000e+01,-4.000000000000000000e+00,-3.000000000000000000e+00,-4.000000000000000000e+00,-5.000000000000000000e+00,2.000000000000000000e+00,4.114990234375000000e-01,1.761474609375000000e-01,-8.928833007812500000e-01,-4.870605468750000000e-02
-3.000000000000000000e+00,-4.000000000000000000e+00,6.100000000000000000e+01,3.700000000000000000e+01,-6.000000000000000000e+00,-5.000000000000000000e+00,2.300000000000000000e+01,-5.000000000000000000e+00,4.114990234375000000e-01,1.761474609375000000e-01,-8.928833007812500000e-01,-4.870605468750000000e-02
5.000000000000000000e+00,-2.000000000000000000e+00,-3.200000000000000000e+01,-3.300000000000000000e+01,-2.000000000000000000e+00,-3.000000000000000000e+00,-5.000000000000000000e+00,-2.000000000000000000e+00,4.114990234375000000e-01,1.761474609375000000e-01,-8.928833007812500000e-01,-4.870605468750000000e-02
-8.000000000000000000e+00,1.000000000000000000e+00,1.400000000000000000e+01,1.400000000000000000e+01,-3.000000000000000000e+00,-1.000000000000000000e+00,2.000000000000000000e+00,-3.000000000000000000e+00,4.114379882812500000e-01,1.762084960937500000e-01,-8.929443359375000000e-01,-4.803466796875000000e-02
5.000000000000000000e+00,2.000000000000000000e+00,-8.000000000000000000e+00,-1.000000000000000000e+00,2.000000000000000000e+00,3.000000000000000000e+00,1.200000000000000000e+01,-1.000000000000000000e+00,4.114379882812500000e-01,1.762084960937500000e-01,-8.929443359375000000e-01,-4.803466796875000000e-02
-3.000000000000000000e+00,-1.000000000000000000e+00,-4.000000000000000000e+00,-1.100000000000000000e+01,0.000000000000000000e+00,0.000000000000000000e+00,-5.000000000000000000e+00,0.000000000000000000e+00,4.114379882812500000e-01,1.762084960937500000e-01,-8.929443359375000000e-01,-4.803466796875000000e-02
3.000000000000000000e+00,0.000000000000000000e+00,2.000000000000000000e+00,6.000000000000000000e+00,1.000000000000000000e+00,-2.000000000000000000e+00,-7.000000000000000000e+00,0.000000000000000000e+00,4.114379882812500000e-01,1.762084960937500000e-01,-8.929443359375000000e-01,-4.803466796875000000e-02
-7.000000000000000000e+00,-4.000000000000000000e+00,-1.600000000000000000e+01,-6.000000000000000000e+00,-1.000000000000000000e+00,1.000000000000000000e+00,1.000000000000000000e+00,-3.000000000000000000e+00,4.114990234375000000e-01,1.759033203125000000e-01,-8.930053710937500000e-01,-4.797363281250000000e-02
5.000000000000000000e+00,1.200000000000000000e+01,1.900000000000000000e+01,1.000000000000000000e+00,0.000000000000000000e+00,-3.000000000000000000e+00,-1.500000000000000000e+01,0.000000000000000000e+00,4.114990234375000000e-01,1.759033203125000000e-01,-8.930053710937500000e-01,-4.797363281250000000e-02
1.100000000000000000e+01,1.000000000000000000e+01,4.200000000000000000e+01,7.000000000000000000e+00,1.000000000000000000e+01,3.000000000000000000e+00,-2.000000000000000000e+00,4.000000000000000000e+00,4.114990234375000000e-01,1.759033203125000000e-01,-8.930053710937500000e-01,-4.797363281250000000e-02
-1.000000000000000000e+01,-1.600000000000000000e+01,1.100000000000000000e+01,-2.500000000000000000e+01,-8.000000000000000000e+00,1.000000000000000000e+00,5.000000000000000000e+00,-5.000000000000000000e+00,4.114990234375000000e-01,1.759033203125000000e-01,-8.930053710937500000e-01,-4.797363281250000000e-02
-1.000000000000000000e+00,-6.000000000000000000e+00,3.100000000000000000e+01,5.000000000000000000e+00,-6.000000000000000000e+00,-1.200000000000000000e+01,-1.700000000000000000e+01,-6.000000000000000000e+00,4.114379882812500000e-01,1.749267578125000000e-01,-8.931884765625000000e-01,-4.815673828125000000e-02
-3.600000000000000000e+01,-7.000000000000000000e+00,-5.300000000000000000e+01,-7.000000000000000000e+00,-3.000000000000000000e+00,-3.000000000000000000e+00,5.000000000000000000e+00,-4.000000000000000000e+00,4.114379882812500000e-01,1.749267578125000000e-01,-8.931884765625000000e-01,-4.815673828125000000e-02
-3.000000000000000000e+00,5.000000000000000000e+00,1.600000000000000000e+01,-6.000000000000000000e+00,-2.000000000000000000e+00,-1.000000000000000000e+00,-4.000000000000000000e+00,-3.000000000000000000e+00,4.114379882812500000e-01,1.749267578125000000e-01,-8.931884765625000000e-01,-4.815673828125000000e-02
4.000000000000000000e+00,1.100000000000000000e+01,-2.000000000000000000e+00,1.100000000000000000e+01,8.000000000000000000e+00,6.000000000000000000e+00,8.000000000000000000e+00,5.000000000000000000e+00,4.114379882812500000e-01,1.749267578125000000e-01,-8.931884765625000000e-01,-4.815673828125000000e-02
-1.000000000000000000e+00,-1.000000000000000000e+00,-9.000000000000000000e+00,-3.000000000000000000e+00,1.000000000000000000e+00,2.000000000000000000e+00,3.000000000000000000e+00,-2.000000000000000000e+00,4.116210937500000000e-01,1.744384765625000000e-01,-8.932495117187500000e-01,-4.791259765625000000e-02
1.200000000000000000e+01,-2.000000000000000000e+00,1.900000000000000000e+01,5.000000000000000000e+00,0.000000000000000000e+00,-4.000000000000000000e+00,-5.000000000000000000e+00,-2.000000000000000000e+00,4.116210937500000000e-01,1.744384765625000000e-01,-8.932495117187500000e-01,-4.791259765625000000e-02
-4.000000000000000000e+00,-4.000000000000000000e+00,-8.000000000000000000e+00,-1.000000000000000000e+00,-3.000000000000000000e+00,-4.000000000000000000e+00,0.000000000000000000e+00,-2.000000000000000000e+00,4.116210937500000000e-01,1.744384765625000000e-01,-8.932495117187500000e-01,-4.791259765625000000e-02
-3.000000000000000000e+00,2.000000000000000000e+00,-1.100000000000000000e+01,5.000000000000000000e+00,-1.000000000000000000e+00,1.000000000000000000e+00,-1.000000000000000000e+01,-2.000000000000000000e+00,4.116210937500000000e-01,1.744384765625000000e-01,-8.932495117187500000e-01,-4.791259765625000000e-02
-2.000000000000000000e+00,-2.000000000000000000e+00,-1.200000000000000000e+01,-6.000000000000000000e+00,-3.000000000000000000e+00,0.000000000000000000e+00,5.000000000000000000e+00,0.000000000000000000e+00,4.117431640625000000e-01,1.741333007812500000e-01,-8.932495117187500000e-01,-4.779052734375000000e-02
1.300000000000000000e+01,-1.000000000000000000e+00,3.000000000000000000e+00,2.000000000000000000e+00,-1.000000000000000000e+00,-1.000000000000000000e+00,-4.000000000000000000e+00,0.000000000000000000e+00,4.117431640625000000e-01,1.741333007812500000e-01,-8.932495117187500000e-01,-4.779052734375000000e-02
0.000000000000000000e+00,-2.000000000000000000e+00,-4.700000000000000000e+01,-1.800000000000000000e+01,2.000000000000000000e+00,6.000000000000000000e+00,1.000000000000000000e+00,1.000000000000000000e+00,4.117431640625000000e-01,1.741333007812500000e-01,-8.932495117187500000e-01,-4.779052734375000000e-02
-3.000000000000000000e+00,-1.100000000000000000e+01,1.700000000000000000e+01,-2.200000000000000000e+01,-1.100000000000000000e+01,-1.100000000000000000e+01,-3.000000000000000000e+00,-8.000000000000000000e+00,4.117431640625000000e-01,1.741333007812500000e-01,-8.932495117187500000e-01,-4.779052734375000000e-02
-7.000000000000000000e+00,-2.000000000000000000e+00,-4.500000000000000000e+01,0.000000000000000000e+00,3.000000000000000000e+00,1.000000000000000000e+00,-6.000000000000000000e+00,-1.000000000000000000e+00,4.120483398437500000e-01,1.740722656250000000e-01,-8.931274414062500000e-01,-4.718017578125000000e-02
1.000000000000000000e+01,0.000000000000000000e+00,-6.000000000000000000e+00,-3.000000000000000000e+00,-2.000000000000000000e+00,-3.000000000000000000e+00,-1.000000000000000000e+00,-1.000000000000000000e+00,4.120483398437500000e-01,1.740722656250000000e-01,-8.931274414062500000e-01,-4.718017578125000000e-02
-1.000000000000000000e+00,-4.000000000000000000e+00,-1.100000000000000000e+01,-4.000000000000000000e+00,0.000000000000000000e+00,4.000000000000000000e+00,1.400000000000000000e+01,2.000000000000000000e+00,4.120483398437500000e-01,1.740722656250000000e-01,-8.931274414062500000e-01,-4.718017578125000000e-02
1.000000000000000000e+00,7.000000000000000000e+00,1.000000000000000000e+01,1.700000000000000000e+01,1.000000000000000000e+00,-3.000000000000000000e+00,-1.600000000000000000e+01,1.000000000000000000e+00,4.120483398437500000e-01,1.740722656250000000e-01,-8.931274414062500000e-01,-4.718017578125000000e-02
-5.000000000000000000e+00,-1.000000000000000000e+00,1.500000000000000000e+01,-5.000000000000000000e+00,0.000000000000000000e+00,-1.000000000000000000e+00,-3.000000000000000000e+00,-1.000000000000000000e+00,4.125366210937500000e-01,1.743774414062500000e-01,-8.928833007812500000e-01,-4.675292968750000000e-02
-1.000000000000000000e+00,-3.000000000000000000e+00,-2.000000000000000000e+00,-7.000000000000000000e+00,-2.000000000000000000e+00,-1.000000000000000000e+00,6.000000000000000000e+00,-3.000000000000000000e+00,4.125366210937500000e-01,1.743774414062500000e-01,-8.928833007812500000e-01,-4.675292968750000000e-02
4.000000000000000000e+00,-1.000000000000000000e+00,-4.000000000000000000e+00,8.000000000000000000e+00,0.000000000000000000e+00,-4.000000000000000000e+00,-8.000000000000000000e+00,0.000000000000000000e+00,4.125366210937500000e-01,1.743774414062500000e-01,-8.928833007812500000e-01,-4.675292968750000000e-02
5.000000000000000000e+00,3.000000000000000000e+00,1.700000000000000000e+01,1.300000000000000000e+01,5.000000000000000000e+00,2.000000000000000000e+00,4.000000000000000000e+00,1.000000000000000000e+00,4.125366210937500000e-01,1.743774414062500000e-01,-8.928833007812500000e-01,-4.675292968750000000e-02
-7.000000000000000000e+00,-5.000000000000000000e+00,8.000000000000000000e+00,-1.000000000000000000e+00,-5.000000000000000000e+00,-4.000000000000000000e+00,-1.000000000000000000e+00,-2.000000000000000000e+00,4.131469726562500000e-01,1.742553710937500000e-01,-8.926391601562500000e-01,-4.699707031250000000e-02
-3.000000000000000000e+00,-5.000000000000000000e+00,1.600000000000000000e+01,2.000000000000000000e+00,-5.000000000000000000e+00,1.000000000000000000e+00,3.500000000000000000e+01,-2.000000000000000000e+00,4.131469726562500000e-01,1.742553710937500000e-01,-8.926391601562500000e-01,-4.699707031250000000e-02
-3.000000000000000000e+00,-2.000000000000000000e+00,-5.000000000000000000e+00,-5.000000000000000000e+00,0.000000000000000000e+00,-4.000000000000000000e+00,-6.000000000000000000e+00,-1.000000000000000000e+00,4.131469726562500000e-01,1.742553710937500000e-01,-8.926391601562500000e-01,-4.699707031250000000e-02
-2.000000000000000000e+00,3.000000000000000000e+00,-3.000000000000000000e+00,6.000000000000000000e+00,1.000000000000000000e+00,4.000000000000000000e+00,9.000000000000000000e+00,1.000000000000000000e+00,4.131469726562500000e-01,1.742553710937500000e-01,-8.926391601562500000e-01,-4.699707031250000000e-02
3.000000000000000000e+00,2.000000000000000000e+00,-1.200000000000000000e+01,0.000000000000000000e+00,5.000000000000000000e+00,3.000000000000000000e+00,3.000000000000000000e+00,1.000000000000000000e+00,4.137573242187500000e-01,1.734008789062500000e-01,-8.925170898437500000e-01,-4.736328125000000000e-02
7.000000000000000000e+00,6.000000000000000000e+00,4.000000000000000000e+00,-6.000000000000000000e+00,7.000000000000000000e+00,5.000000000000000000e+00,-1.300000000000000000e+01,3.000000000000000000e+00,4.137573242187500000e-01,1.734008789062500000e-01,-8.925170898437500000e-01,-4.736328125000000000e-02
4.000000000000000000e+00,1.000000000000000000e+00,8.000000000000000000e+01,3.100000000000000000e+01,-5.000000000000000000e+00,-5.000000000000000000e+00,5.000000000000000000e+00,-4.000000000000000000e+00,4.137573242187500000e-01,1.734008789062500000e-01,-8.925170898437500000e-01,-4.736328125000000000e-02
-3.000000000000000000e+01,-6.000000000000000000e+00,-2.800000000000000000e+01,-1.800000000000000000e+01,-8.000000000000000000e+00,-3.000000000000000000e+00,0.000000000000000000e+00,-7.000000000000000000e+00,4.137573242187500000e-01,1.734008789062500000e-01,-8.925170898437500000e-01,-4.736328125000000000e-02
-3.000000000000000000e+00,-8.000000000000000000e+00,-7.000000000000000000e+00,-1.500000000000000000e+01,-6.000000000000000000e+00,-5.000000000000000000e+00,-9.000000000000000000e+00,-3.000000000000000000e+00,4.141235351562500000e-01,1.734008789062500000e-01,-8.923339843750000000e-01,-4.693603515625000000e-02
5.000000000000000000e+00,-1.000000000000000000e+00,-8.000000000000000000e+00,0.000000000000000000e+00,1.000000000000000000e+00,-1.000000000000000000e+00,-1.100000000000000000e+01,-2.000000000000000000e+00,4.141235351562500000e-01,1.734008789062500000e-01,-8.923339843750000000e-01,-4.693603515625000000e-02
-5.000000000000000000e+00,-2.000000000000000000e+00,-3.000000000000000000e+00,-1.000000000000000000e+00,5.000000000000000000e+00,1.000000000000000000e+00,5.000000000000000000e+00,0.000000000000000000e+00,4.141235351562500000e-01,1.734008789062500000e-01,-8.923339843750000000e-01,-4.693603515625000000e-02
1.500000000000000000e+01,6.000000000000000000e+00,9.000000000000000000e+00,2.000000000000000000e+01,6.000000000000000000e+00,2.000000000000000000e+00,0.000000000000000000e+00,2.000000000000000000e+00,4.141235351562500000e-01,1.734008789062500000e-01,-8.923339843750000000e-01,-4.693603515625000000e-02
3.000000000000000000e+00,8.000000000000000000e+00,-6.000000000000000000e+00,-1.700000000000000000e+01,2.000000000000000000e+00,2.000000000000000000e+00,-7.000000000000000000e+00,0.000000000000000000e+00,4.141845703125000000e-01,1.743164062500000000e-01,-8.921508789062500000e-01,-4.608154296875000000e-02
-7.000000000000000000e+00,-2.000000000000000000e+00,1.300000000000000000e+01,1.300000000000000000e+01,-4.000000000000000000e+00,3.000000000000000000e+00,1.000000000000000000e+01,-1.000000000000000000e+00,4.141845703125000000e-01,1.743164062500000000e-01,-8.921508789062500000e-01,-4.608154296875000000e-02
2.000000000000000000e+00,-4.000000000000000000e+00,7.000000000000000000e+00,-1.000000000000000000e+01,-9.000000000000000000e+00,-6.000000000000000000e+00,-9.000000000000000000e+00,0.000000000000000000e+00,4.141845703125000000e-01,1.743164062500000000e-01,-8.921508789062500000e-01,-4.608154296875000000e-02
3.000000000000000000e+00,0.000000000000000000e+00,4.000000000000000000e+00,8.000000000000000000e+00,-1.000000000000000000e+00,-2.000000000000000000e+00,0.000000000000000000e+00,-2.000000000000000000e+00,4.141845703125000000e-01,1.743164062500000000e-01,-8.921508789062500000e-01,-4.608154296875000000e-02
-2.000000000000000000e+00,-6.000000000000000000e+00,0.000000000000000000e+00,-3.000000000000000000e+00,-5.000000000000000000e+00,-1.000000000000000000e+00,-3.000000000000000000e+00,0.000000000000000000e+00,4.141845703125000000e-01,1.755371093750000000e-01,-8.919677734375000000e-01,-4.541015625000000000e-02
3.000000000000000000e+00,1.000000000000000000e+00,0.000000000000000000e+00,-3.000000000000000000e+00,2.000000000000000000e+00,-4.000000000000000000e+00,-4.000000000000000000e+00,1.000000000000000000e+00,4.141845703125000000e-01,1.755371093750000000e-01,-8.919677734375000000e-01,-4.541015625000000000e-02
-4.000000000000000000e+00,-3.000000000000000000e+00,-2.000000000000000000e+01,-9.000000000000000000e+00,-3.000000000000000000e+00,-2.000000000000000000e+00,-9.000000000000000000e+00,-2.000000000000000000e+00,4.141845703125000000e-01,1.755371093750000000e-01,-8.919677734375000000e-01,-4.541015625000000000e-02
1.000000000000000000e+00,0.000000000000000000e+00,-1.000000000000000000e+01,2.000000000000000000e+00,4.000000000000000000e+00,5.000000000000000000e+00,1.000000000000000000e+00,1.000000000000000000e+00,4.141845703125000000e-01,1.755371093750000000e-01,-8.919677734375000000e-01,-4.541015625000000000e-02
