-1.000000000000000000e+00,-3.000000000000000000e+00,-4.000000000000000000e+00,4.000000000000000000e+00,8.000000000000000000e+00,3.000000000000000000e+00,2.000000000000000000e+00,1.000000000000000000e+00,4.427490234375000000e-01,1.982421875000000000e-01,-8.577270507812500000e-01,1.702880859375000000e-01
-2.000000000000000000e+00,2.000000000000000000e+00,1.000000000000000000e+00,2.000000000000000000e+00,4.000000000000000000e+00,2.000000000000000000e+00,0.000000000000000000e+00,1.000000000000000000e+00,4.427490234375000000e-01,1.982421875000000000e-01,-8.577270507812500000e-01,1.702880859375000000e-01
-1.000000000000000000e+00,-3.000000000000000000e+00,0.000000000000000000e+00,-1.000000000000000000e+00,-2.000000000000000000e+00,-2.000000000000000000e+00,-4.000000000000000000e+00,1.000000000000000000e+00,4.423828125000000000e-01,1.983642578125000000e-01,-8.577880859375000000e-01,1.707763671875000000e-01
2.000000000000000000e+00,1.000000000000000000e+00,1.000000000000000000e+00,0.000000000000000000e+00,0.000000000000000000e+00,-1.000000000000000000e+00,1.000000000000000000e+00,1.000000000000000000e+00,4.423828125000000000e-01,1.983642578125000000e-01,-8.577880859375000000e-01,1.707763671875000000e-01
-2.000000000000000000e+00,1.000000000000000000e+00,1.000000000000000000e+00,-2.000000000000000000e+00,-3.000000000000000000e+00,-1.000000000000000000e+00,2.000000000000000000e+00,-1.000000000000000000e+00,4.423828125000000000e-01,1.983642578125000000e-01,-8.577880859375000000e-01,1.707763671875000000e-01
-9.000000000000000000e+00,1.100000000000000000e+01,-5.000000000000000000e+00,0.000000000000000000e+00,0.000000000000000000e+00,-2.000000000000000000e+00,-4.000000000000000000e+00,-2.000000000000000000e+00,4.423828125000000000e-01,1.983642578125000000e-01,-8.577880859375000000e-01,1.707763671875000000e-01
8.000000000000000000e+00,-2.000000000000000000e+01,7.000000000000000000e+00,-7.000000000000000000e+00,-5.000000000000000000e+00,-3.000000000000000000e+00,-1.000000000000000000e+00,-2.000000000000000000e+00,4.418945312500000000e-01,1.989746093750000000e-01,-8.577880859375000000e-01,1.713867187500000000e-01
5.000000000000000000e+00,1.000000000000000000e+01,1.000000000000000000e+00,4.000000000000000000e+00,-1.000000000000000000e+00,-1.000000000000000000e+00,-1.000000000000000000e+00,1.000000000000000000e+00,4.418945312500000000e-01,1.989746093750000000e-01,-8.577880859375000000e-01,1.713867187500000000e-01
-3.000000000000000000e+00,-9.000000000000000000e+00,7.000000000000000000e+00,1.000000000000000000e+00,0.000000000000000000e+00,1.000000000000000000e+00,-3.000000000000000000e+00,-2.000000000000000000e+00,4.418945312500000000e-01,1.989746093750000000e-01,-8.577880859375000000e-01,1.713867187500000000e-01
-2.000000000000000000e+00,9.000000000000000000e+00,1.000000000000000000e+01,-3.000000000000000000e+00,2.000000000000000000e+00,-2.000000000000000000e+00,2.000000000000000000e+00,1.000000000000000000e+00,4.418945312500000000e-01,1.989746093750000000e-01,-8.577880859375000000e-01,1.713867187500000000e-01
6.000000000000000000e+00,2.000000000000000000e+00,-2.000000000000000000e+00,6.000000000000000000e+00,1.000000000000000000e+00,3.000000000000000000e+00,3.000000000000000000e+00,1.000000000000000000e+00,4.414672851562500000e-01,1.990356445312500000e-01,-8.579101562500000000e-01,1.716918945312500000e-01
-1.400000000000000000e+01,-1.500000000000000000e+01,2.000000000000000000e+01,1.600000000000000000e+01,0.000000000000000000e+00,-3.000000000000000000e+00,-5.000000000000000000e+00,-6.000000000000000000e+00,4.414672851562500000e-01,1.990356445312500000e-01,-8.579101562500000000e-01,1.716918945312500000e-01
1.000000000000000000e+00,1.100000000000000000e+01,-1.300000000000000000e+01,-2.500000000000000000e+01,-9.000000000000000000e+00,-5.000000000000000000e+00,0.000000000000000000e+00,0.000000000000000000e+00,4.414672851562500000e-01,1.990356445312500000e-01,-8.579101562500000000e-01,1.716918945312500000e-01
-1.000000000000000000e+01,-7.000000000000000000e+00,-1.000000000000000000e+00,-3.000000000000000000e+00,0.000000000000000000e+00,-1.000000000000000000e+00,-2.000000000000000000e+00,-4.000000000000000000e+00,4.414672851562500000e-01,1.990356445312500000e-01,-8.579101562500000000e-01,1.716918945312500000e-01
2.000000000000000000e+00,1.000000000000000000e+00,-1.000000000000000000e+00,3.000000000000000000e+00,3.000000000000000000e+00,0.000000000000000000e+00,1.000000000000000000e+00,-1.000000000000000000e+00,4.414062500000000000e-01,1.987304687500000000e-01,-8.579711914062500000e-01,1.717529296875000000e-01
2.500000000000000000e+01,-1.000000000000000000e+00,-1.200000000000000000e+01,-1.000000000000000000e+01,-2.000000000000000000e+00,0.000000000000000000e+00,2.000000000000000000e+00,0.000000000000000000e+00,4.414062500000000000e-01,1.987304687500000000e-01,-8.579711914062500000e-01,1.717529296875000000e-01
-3.600000000000000000e+01,-4.000000000000000000e+00,1.700000000000000000e+01,8.000000000000000000e+00,0.000000000000000000e+00,-1.000000000000000000e+00,-1.000000000000000000e+00,-4.000000000000000000e+00,4.414062500000000000e-01,1.987304687500000000e-01,-8.579711914062500000e-01,1.717529296875000000e-01
1.800000000000000000e+01,-3.000000000000000000e+00,-1.000000000000000000e+00,-1.000000000000000000e+00,-2.000000000000000000e+00,1.000000000000000000e+00,-3.000000000000000000e+00,-1.000000000000000000e+00,4.414062500000000000e-01,1.987304687500000000e-01,-8.579711914062500000e-01,1.717529296875000000e-01
-1.900000000000000000e+01,1.000000000000000000e+00,2.000000000000000000e+00,-3.000000000000000000e+00,-5.000000000000000000e+00,-1.000000000000000000e+00,1.000000000000000000e+00,2.000000000000000000e+00,4.414062500000000000e-01,1.983642578125000000e-01,-8.580932617187500000e-01,1.716918945312500000e-01
1.200000000000000000e+01,3.000000000000000000e+00,-1.000000000000000000e+01,-2.000000000000000000e+00,1.000000000000000000e+00,-1.000000000000000000e+00,-2.000000000000000000e+00,0.000000000000000000e+00,4.414062500000000000e-01,1.983642578125000000e-01,-8.580932617187500000e-01,1.716918945312500000e-01
8.000000000000000000e+00,-5.000000000000000000e+00,-3.000000000000000000e+00,7.000000000000000000e+00,3.000000000000000000e+00,0.000000000000000000e+00,-1.000000000000000000e+00,-2.000000000000000000e+00,4.414062500000000000e-01,1.983642578125000000e-01,-8.580932617187500000e-01,1.716918945312500000e-01
-5.000000000000000000e+00,2.000000000000000000e+00,-7.000000000000000000e+00,-9.000000000000000000e+00,-4.000000000000000000e+00,-2.000000000000000000e+00,-1.000000000000000000e+00,-3.000000000000000000e+00,4.414062500000000000e-01,1.983642578125000000e-01,-8.580932617187500000e-01,1.716918945312500000e-01
0.000000000000000000e+00,-7.000000000000000000e+00,-3.000000000000000000e+00,4.000000000000000000e+00,1.000000000000000000e+00,0.000000000000000000e+00,-2.000000000000000000e+00,-3.000000000000000000e+00,4.414672851562500000e-01,1.978759765625000000e-01,-8.581542968750000000e-01,1.718750000000000000e-01
-1.400000000000000000e+01,-8.000000000000000000e+00,8.000000000000000000e+00,-3.000000000000000000e+00,-3.000000000000000000e+00,1.000000000000000000e+00,-4.000000000000000000e+00,-2.000000000000000000e+00,4.414672851562500000e-01,1.978759765625000000e-01,-8.581542968750000000e-01,1.718750000000000000e-01
9.000000000000000000e+00,1.000000000000000000e+01,-7.000000000000000000e+00,-4.000000000000000000e+00,-4.000000000000000000e+00,0.000000000000000000e+00,3.000000000000000000e+00,2.000000000000000000e+00,4.414672851562500000e-01,1.978759765625000000e-01,-8.581542968750000000e-01,1.718750000000000000e-01
1.000000000000000000e+00,-1.700000000000000000e+01,0.000000000000000000e+00,6.000000000000000000e+00,5.000000000000000000e+00,0.000000000000000000e+00,2.000000000000000000e+00,0.000000000000000000e+00,4.414672851562500000e-01,1.978759765625000000e-01,-8.581542968750000000e-01,1.718750000000000000e-01
-2.000000000000000000e+00,1.100000000000000000e+01,1.000000000000000000e+00,-6.000000000000000000e+00,-5.000000000000000000e+00,-2.000000000000000000e+00,-1.000000000000000000e+00,-3.000000000000000000e+00,4.413452148437500000e-01,1.978759765625000000e-01,-8.580932617187500000e-01,1.724853515625000000e-01
-1.000000000000000000e+00,7.000000000000000000e+00,-2.000000000000000000e+00,1.000000000000000000e+00,3.000000000000000000e+00,6.000000000000000000e+00,0.000000000000000000e+00,0.000000000000000000e+00,4.413452148437500000e-01,1.978759765625000000e-01,-8.580932617187500000e-01,1.724853515625000000e-01
-6.000000000000000000e+00,-8.000000000000000000e+00,6.000000000000000000e+00,5.000000000000000000e+00,3.000000000000000000e+00,-3.000000000000000000e+00,-2.000000000000000000e+00,-2.000000000000000000e+00,4.413452148437500000e-01,1.978759765625000000e-01,-8.580932617187500000e-01,1.724853515625000000e-01
9.000000000000000000e+00,1.100000000000000000e+01,3.000000000000000000e+00,-2.000000000000000000e+00,-5.000000000000000000e+00,-3.000000000000000000e+00,0.000000000000000000e+00,0.000000000000000000e+00,4.413452148437500000e-01,1.978759765625000000e-01,-8.580932617187500000e-01,1.724853515625000000e-01
5.000000000000000000e+00,-1.000000000000000000e+00,-3.000000000000000000e+00,-2.000000000000000000e+00,1.000000000000000000e+00,-1.000000000000000000e+00,-1.000000000000000000e+00,1.000000000000000000e+00,4.411621093750000000e-01,1.985473632812500000e-01,-8.579711914062500000e-01,1.729736328125000000e-01
-1.600000000000000000e+01,0.000000000000000000e+00,-2.000000000000000000e+00,-1.000000000000000000e+00,-7.000000000000000000e+00,-3.000000000000000000e+00,2.000000000000000000e+00,0.000000000000000000e+00,4.411621093750000000e-01,1.985473632812500000e-01,-8.579711914062500000e-01,1.729736328125000000e-01
1.300000000000000000e+01,2.000000000000000000e+00,6.000000000000000000e+00,-5.000000000000000000e+00,1.000000000000000000e+00,-2.000000000000000000e+00,-5.000000000000000000e+00,-2.000000000000000000e+00,4.411621093750000000e-01,1.985473632812500000e-01,-8.579711914062500000e-01,1.729736328125000000e-01
-2.000000000000000000e+00,-1.000000000000000000e+01,-1.200000000000000000e+01,-3.000000000000000000e+00,-8.000000000000000000e+00,-3.000000000000000000e+00,0.000000000000000000e+00,-2.000000000000000000e+00,4.411621093750000000e-01,1.985473632812500000e-01,-8.579711914062500000e-01,1.729736328125000000e-01
-5.000000000000000000e+00,-4.000000000000000000e+00,-8.000000000000000000e+00,-5.000000000000000000e+00,-1.000000000000000000e+00,-2.000000000000000000e+00,0.000000000000000000e+00,-2.000000000000000000e+00,4.411010742187500000e-01,1.986083984375000000e-01,-8.579711914062500000e-01,1.729125976562500000e-01
-1.000000000000000000e+00,4.000000000000000000e+00,7.000000000000000000e+00,3.000000000000000000e+00,0.000000000000000000e+00,-3.000000000000000000e+00,1.000000000000000000e+00,1.000000000000000000e+00,4.411010742187500000e-01,1.986083984375000000e-01,-8.579711914062500000e-01,1.729125976562500000e-01
6.000000000000000000e+00,-5.000000000000000000e+00,-1.400000000000000000e+01,1.100000000000000000e+01,5.000000000000000000e+00,3.000000000000000000e+00,1.000000000000000000e+00,3.000000000000000000e+00,4.411010742187500000e-01,1.986083984375000000e-01,-8.579711914062500000e-01,1.729125976562500000e-01
-4.000000000000000000e+00,3.000000000000000000e+00,-2.000000000000000000e+00,-1.800000000000000000e+01,0.000000000000000000e+00,-4.000000000000000000e+00,-1.000000000000000000e+00,-4.000000000000000000e+00,4.411010742187500000e-01,1.986083984375000000e-01,-8.579711914062500000e-01,1.729125976562500000e-01
2.000000000000000000e+00,6.000000000000000000e+00,-1.000000000000000000e+00,1.000000000000000000e+00,-4.000000000000000000e+00,1.000000000000000000e+00,-2.000000000000000000e+00,-2.000000000000000000e+00,4.412841796875000000e-01,1.981811523437500000e-01,-8.580322265625000000e-01,1.726074218750000000e-01
3.000000000000000000e+00,-1.300000000000000000e+01,-5.000000000000000000e+00,-3.000000000000000000e+00,0.000000000000000000e+00,-5.000000000000000000e+00,-2.000000000000000000e+00,0.000000000000000000e+00,4.412841796875000000e-01,1.981811523437500000e-01,-8.580322265625000000e-01,1.726074218750000000e-01
-6.000000000000000000e+00,-6.000000000000000000e+00,-4.000000000000000000e+00,1.000000000000000000e+00,-4.000000000000000000e+00,-1.000000000000000000e+00,2.000000000000000000e+00,2.000000000000000000e+00,4.412841796875000000e-01,1.981811523437500000e-01,-8.580322265625000000e-01,1.726074218750000000e-01
1.100000000000000000e+01,9.000000000000000000e+00,6.000000000000000000e+00,-2.000000000000000000e+00,1.000000000000000000e+00,1.000000000000000000e+00,-2.000000000000000000e+00,1.000000000000000000e+00,4.412841796875000000e-01,1.981811523437500000e-01,-8.580322265625000000e-01,1.726074218750000000e-01
-1.200000000000000000e+01,-5.000000000000000000e+00,0.000000000000000000e+00,5.000000000000000000e+00,-1.000000000000000000e+00,0.000000000000000000e+00,1.000000000000000000e+00,2.000000000000000000e+00,4.414672851562500000e-01,1.978759765625000000e-01,-8.579711914062500000e-01,1.726684570312500000e-01
-7.000000000000000000e+00,-2.600000000000000000e+01,-3.200000000000000000e+01,-1.500000000000000000e+01,-8.000000000000000000e+00,-6.000000000000000000e+00,-5.000000000000000000e+00,-6.000000000000000000e+00,4.414672851562500000e-01,1.978759765625000000e-01,-8.579711914062500000e-01,1.726684570312500000e-01
6.000000000000000000e+00,6.000000000000000000e+00,2.000000000000000000e+01,-2.000000000000000000e+00,-2.000000000000000000e+00,-1.000000000000000000e+00,-4.000000000000000000e+00,-2.000000000000000000e+00,4.414672851562500000e-01,1.978759765625000000e-01,-8.579711914062500000e-01,1.726684570312500000e-01
-1.300000000000000000e+01,-1.000000000000000000e+00,-8.000000000000000000e+00,6.000000000000000000e+00,2.000000000000000000e+00,2.000000000000000000e+00,3.000000000000000000e+00,0.000000000000000000e+00,4.414672851562500000e-01,1.978759765625000000e-01,-8.579711914062500000e-01,1.726684570312500000e-01
1.000000000000000000e+01,8.000000000000000000e+00,3.000000000000000000e+00,-8.000000000000000000e+00,-2.000000000000000000e+00,-4.000000000000000000e+00,-3.000000000000000000e+00,-2.000000000000000000e+00,4.413452148437500000e-01,1.983032226562500000e-01,-8.578491210937500000e-01,1.730957031250000000e-01
-6.000000000000000000e+00,-3.000000000000000000e+00,5.000000000000000000e+00,6.000000000000000000e+00,0.000000000000000000e+00,0.000000000000000000e+00,2.000000000000000000e+00,0.000000000000000000e+00,4.413452148437500000e-01,1.983032226562500000e-01,-8.578491210937500000e-01,1.730957031250000000e-01
-6.000000000000000000e+00,-7.000000000000000000e+00,-1.200000000000000000e+01,-8.000000000000000000e+00,-2.000000000000000000e+00,0.000000000000000000e+00,-1.000000000000000000e+00,-2.000000000000000000e+00,4.413452148437500000e-01,1.983032226562500000e-01,-8.578491210937500000e-01,1.730957031250000000e-01
1.700000000000000000e+01,-8.000000000000000000e+00,-3.000000000000000000e+00,-3.000000000000000000e+00,-8.000000000000000000e+00,-6.000000000000000000e+00,-4.000000000000000000e+00,-2.000000000000000000e+00,4.413452148437500000e-01,1.983032226562500000e-01,-8.578491210937500000e-01,1.730957031250000000e-01
0.000000000000000000e+00,5.000000000000000000e+00,-6.000000000000000000e+00,-3.000000000000000000e+00,-5.000000000000000000e+00,3.000000000000000000e+00,0.000000000000000000e+00,-3.000000000000000000e+00,4.411010742187500000e-01,1.990356445312500000e-01,-8.577880859375000000e-01,1.731567382812500000e-01
-9.000000000000000000e+00,1.000000000000000000e+00,3.000000000000000000e+00,3.000000000000000000e+00,8.000000000000000000e+00,2.000000000000000000e+00,0.000000000000000000e+00,0.000000000000000000e+00,4.411010742187500000e-01,1.990356445312500000e-01,-8.577880859375000000e-01,1.731567382812500000e-01
5.000000000000000000e+00,-1.000000000000000000e+01,-1.000000000000000000e+00,2.000000000000000000e+00,-1.000000000000000000e+00,2.000000000000000000e+00,4.000000000000000000e+00,1.000000000000000000e+00,4.411010742187500000e-01,1.990356445312500000e-01,-8.577880859375000000e-01,1.731567382812500000e-01
0.000000000000000000e+00,-4.000000000000000000e+00,5.000000000000000000e+00,-2.000000000000000000e+00,-2.000000000000000000e+00,0.000000000000000000e+00,1.000000000000000000e+00,-1.000000000000000000e+00,4.411010742187500000e-01,1.990356445312500000e-01,-8.577880859375000000e-01,1.731567382812500000e-01
-4.000000000000000000e+00,-7.000000000000000000e+00,2.000000000000000000e+00,2.000000000000000000e+00,-2.000000000000000000e+00,-2.000000000000000000e+00,-2.000000000000000000e+00,-1.000000000000000000e+00,4.411010742187500000e-01,1.990356445312500000e-01,-8.579101562500000000e-01,1.728515625000000000e-01
-4.000000000000000000e+00,-5.000000000000000000e+00,-1.400000000000000000e+01,-7.000000000000000000e+00,-6.000000000000000000e+00,-2.000000000000000000e+00,-3.000000000000000000e+00,-2.000000000000000000e+00,4.411010742187500000e-01,1.990356445312500000e-01,-8.579101562500000000e-01,1.728515625000000000e-01
2.000000000000000000e+00,-1.000000000000000000e+01,-4.000000000000000000e+00,-6.000000000000000000e+00,-4.000000000000000000e+00,-4.000000000000000000e+00,-3.000000000000000000e+00,0.000000000000000000e+00,4.411010742187500000e-01,1.990356445312500000e-01,-8.579101562500000000e-01,1.728515625000000000e-01
-1.100000000000000000e+01,0.000000000000000000e+00,0.000000000000000000e+00,1.000000000000000000e+00,-2.000000000000000000e+00,-2.000000000000000000e+00,1.000000000000000000e+00,-2.000000000000000000e+00,4.411010742187500000e-01,1.990356445312500000e-01,-8.579101562500000000e-01,1.728515625000000000e-01
0.000000000000000000e+00,-3.000000000000000000e+00,0.000000000000000000e+00,2.000000000000000000e+00,5.000000000000000000e+00,3.000000000000000000e+00,1.000000000000000000e+00,2.000000000000000000e+00,4.411621093750000000e-01,1.987915039062500000e-01,-8.579711914062500000e-01,1.725463867187500000e-01
1.400000000000000000e+01,8.000000000000000000e+00,6.000000000000000000e+00,-3.000000000000000000e+00,-2.000000000000000000e+00,-1.000000000000000000e+00,-2.000000000000000000e+00,-1.000000000000000000e+00,4.411621093750000000e-01,1.987915039062500000e-01,-8.579711914062500000e-01,1.725463867187500000e-01
-6.000000000000000000e+00,1.900000000000000000e+01,5.000000000000000000e+00,4.000000000000000000e+00,6.000000000000000000e+00,1.000000000000000000e+00,0.000000000000000000e+00,-1.000000000000000000e+00,4.411621093750000000e-01,1.987915039062500000e-01,-8.579711914062500000e-01,1.725463867187500000e-01
-5.000000000000000000e+00,-1.900000000000000000e+01,-1.800000000000000000e+01,-3.000000000000000000e+00,-6.000000000000000000e+00,-1.000000000000000000e+00,2.000000000000000000e+00,0.000000000000000000e+00,4.411621093750000000e-01,1.987915039062500000e-01,-8.579711914062500000e-01,1.725463867187500000e-01
0.000000000000000000e+00,-3.000000000000000000e+00,-4.000000000000000000e+00,-3.000000000000000000e+00,-4.000000000000000000e+00,-2.000000000000000000e+00,-4.000000000000000000e+00,-5.000000000000000000e+00,4.411621093750000000e-01,1.987304687500000000e-01,-8.579711914062500000e-01,1.725463867187500000e-01
4.000000000000000000e+00,3.000000000000000000e+00,7.000000000000000000e+00,-2.000000000000000000e+00,1.000000000000000000e+00,-2.000000000000000000e+00,-1.000000000000000000e+00,-1.000000000000000000e+00,4.411621093750000000e-01,1.987304687500000000e-01,-8.579711914062500000e-01,1.725463867187500000e-01
0.000000000000000000e+00,-4.000000000000000000e+00,-8.000000000000000000e+00,3.000000000000000000e+00,0.000000000000000000e+00,-1.000000000000000000e+00,-3.000000000000000000e+00,-1.000000000000000000e+00,4.411621093750000000e-01,1.987304687500000000e-01,-8.579711914062500000e-01,1.725463867187500000e-01
-9.000000000000000000e+00,3.000000000000000000e+00,2.000000000000000000e+00,1.000000000000000000e+00,4.000000000000000000e+00,4.000000000000000000e+00,-2.000000000000000000e+00,-1.000000000000000000e+00,4.411621093750000000e-01,1.987304687500000000e-01,-8.579711914062500000e-01,1.725463867187500000e-01
1.100000000000000000e+01,-2.000000000000000000e+00,-6.000000000000000000e+00,-5.000000000000000000e+00,-6.000000000000000000e+00,-5.000000000000000000e+00,-2.000000000000000000e+00,-2.000000000000000000e+00,4.409179687500000000e-01,1.990966796875000000e-01,-8.579711914062500000e-01,1.729125976562500000e-01
8.000000000000000000e+00,2.400000000000000000e+01,1.000000000000000000e+01,8.000000000000000000e+00,5.000000000000000000e+00,1.000000000000000000e+00,-2.000000000000000000e+00,1.000000000000000000e+00,4.409179687500000000e-01,1.990966796875000000e-01,-8.579711914062500000e-01,1.729125976562500000e-01
-1.400000000000000000e+01,-1.600000000000000000e+01,-9.000000000000000000e+00,-6.000000000000000000e+00,-3.000000000000000000e+00,-4.000000000000000000e+00,-2.000000000000000000e+00,1.000000000000000000e+00,4.409179687500000000e-01,1.990966796875000000e-01,-8.579711914062500000e-01,1.729125976562500000e-01
4.000000000000000000e+00,-8.000000000000000000e+00,9.000000000000000000e+00,-1.000000000000000000e+00,-4.000000000000000000e+00,-7.000000000000000000e+00,-5.000000000000000000e+00,-2.000000000000000000e+00,4.409179687500000000e-01,1.990966796875000000e-01,-8.579711914062500000e-01,1.729125976562500000e-01
-8.000000000000000000e+00,8.000000000000000000e+00,-5.000000000000000000e+00,2.000000000000000000e+00,6.000000000000000000e+00,0.000000000000000000e+00,0.000000000000000000e+00,2.000000000000000000e+00,4.408569335937500000e-01,1.992187500000000000e-01,-8.579101562500000000e-01,1.730346679687500000e-01
-1.000000000000000000e+00,-2.000000000000000000e+00,5.000000000000000000e+00,-2.000000000000000000e+00,-3.000000000000000000e+00,1.000000000000000000e+00,0.000000000000000000e+00,-1.000000000000000000e+00,4.408569335937500000e-01,1.992187500000000000e-01,-8.579101562500000000e-01,1.730346679687500000e-01
0.000000000000000000e+00,6.000000000000000000e+00,5.000000000000000000e+00,2.000000000000000000e+00,1.000000000000000000e+00,3.000000000000000000e+00,0.000000000000000000e+00,-1.000000000000000000e+00,4.408569335937500000e-01,1.992187500000000000e-01,-8.579101562500000000e-01,1.730346679687500000e-01
6.000000000000000000e+00,3.000000000000000000e+00,-1.000000000000000000e+00,0.000000000000000000e+00,-1.000000000000000000e+00,0.000000000000000000e+00,0.000000000000000000e+00,0.000000000000000000e+00,4.408569335937500000e-01,1.992187500000000000e-01,-8.579101562500000000e-01,1.730346679687500000e-01
-1.000000000000000000e+01,-1.000000000000000000e+01,5.000000000000000000e+00,-3.000000000000000000e+00,-4.000000000000000000e+00,-2.000000000000000000e+00,2.000000000000000000e+00,-1.000000000000000000e+00,4.408569335937500000e-01,1.989746093750000000e-01,-8.579711914062500000e-01,1.729125976562500000e-01
-1.000000000000000000e+00,1.100000000000000000e+01,-2.000000000000000000e+00,0.000000000000000000e+00,-2.000000000000000000e+00,-6.000000000000000000e+00,1.000000000000000000e+00,1.000000000000000000e+00,4.408569335937500000e-01,1.989746093750000000e-01,-8.579711914062500000e-01,1.729125976562500000e-01
-1.100000000000000000e+01,-1.400000000000000000e+01,-2.000000000000000000e+00,-7.000000000000000000e+00,-6.000000000000000000e+00,-3.000000000000000000e+00,-1.000000000000000000e+00,-1.000000000000000000e+00,4.408569335937500000e-01,1.989746093750000000e-01,-8.579711914062500000e-01,1.729125976562500000e-01
-1.000000000000000000e+01,-8.000000000000000000e+00,-1.000000000000000000e+01,0.000000000000000000e+00,4.000000000000000000e+00,2.000000000000000000e+00,-1.000000000000000000e+00,-2.000000000000000000e+00,4.408569335937500000e-01,1.989746093750000000e-01,-8.579711914062500000e-01,1.729125976562500000e-01
2.000000000000000000e+00,3.000000000000000000e+00,0.000000000000000000e+00,3.000000000000000000e+00,3.000000000000000000e+00,0.000000000000000000e+00,-1.000000000000000000e+00,-2.000000000000000000e+00,4.407958984375000000e-01,1.989746093750000000e-01,-8.580322265625000000e-01,1.729125976562500000e-01
-1.000000000000000000e+00,-1.200000000000000000e+01,-4.000000000000000000e+00,-2.000000000000000000e+00,2.000000000000000000e+00,1.000000000000000000e+00,-1.000000000000000000e+00,-4.000000000000000000e+00,4.407958984375000000e-01,1.989746093750000000e-01,-8.580322265625000000e-01,1.729125976562500000e-01
6.000000000000000000e+00,1.500000000000000000e+01,4.000000000000000000e+00,1.000000000000000000e+00,-6.000000000000000000e+00,-3.000000000000000000e+00,0.000000000000000000e+00,-2.000000000000000000e+00,4.407958984375000000e-01,1.989746093750000000e-01,-8.580322265625000000e-01,1.729125976562500000e-01
1.000000000000000000e+00,3.000000000000000000e+00,5.000000000000000000e+00,-3.000000000000000000e+00,-4.000000000000000000e+00,-3.000000000000000000e+00,-2.000000000000000000e+00,0.000000000000000000e+00,4.407958984375000000e-01,1.989746093750000000e-01,-8.580322265625000000e-01,1.729125976562500000e-01
-7.000000000000000000e+00,-4.000000000000000000e+00,-9.000000000000000000e+00,3.000000000000000000e+00,-6.000000000000000000e+00,-1.000000000000000000e+00,-8.000000000000000000e+00,-7.000000000000000000e+00,4.404907226562500000e-01,1.990966796875000000e-01,-8.580932617187500000e-01,1.732177734375000000e-01
-7.000000000000000000e+00,8.000000000000000000e+00,8.000000000000000000e+00,1.000000000000000000e+00,8.000000000000000000e+00,3.000000000000000000e+00,2.000000000000000000e+00,2.000000000000000000e+00,4.404907226562500000e-01,1.990966796875000000e-01,-8.580932617187500000e-01,1.732177734375000000e-01
5.000000000000000000e+00,-1.300000000000000000e+01,2.000000000000000000e+00,-4.000000000000000000e+00,0.000000000000000000e+00,-1.000000000000000000e+00,0.000000000000000000e+00,-3.000000000000000000e+00,4.404907226562500000e-01,1.990966796875000000e-01,-8.580932617187500000e-01,1.732177734375000000e-01
-5.000000000000000000e+00,2.000000000000000000e+00,0.000000000000000000e+00,1.000000000000000000e+00,-1.000000000000000000e+00,0.000000000000000000e+00,-2.000000000000000000e+00,-4.000000000000000000e+00,4.404907226562500000e-01,1.990966796875000000e-01,-8.580932617187500000e-01,1.732177734375000000e-01
1.000000000000000000e+01,-6.000000000000000000e+00,-2.000000000000000000e+00,-2.000000000000000000e+00,0.000000000000000000e+00,-2.000000000000000000e+00,0.000000000000000000e+00,2.000000000000000000e+00,4.401245117187500000e-01,1.994018554687500000e-01,-8.580932617187500000e-01,1.736450195312500000e-01
-9.000000000000000000e+00,-1.000000000000000000e+00,-3.000000000000000000e+00,-3.000000000000000000e+00,-5.000000000000000000e+00,-1.000000000000000000e+00,-1.000000000000000000e+00,-3.000000000000000000e+00,4.401245117187500000e-01,1.994018554687500000e-01,-8.580932617187500000e-01,1.736450195312500000e-01
-3.000000000000000000e+00,0.000000000000000000e+00,-4.000000000000000000e+00,0.000000000000000000e+00,-2.000000000000000000e+00,-1.000000000000000000e+00,-3.000000000000000000e+00,0.000000000000000000e+00,4.401245117187500000e-01,1.994018554687500000e-01,-8.580932617187500000e-01,1.736450195312500000e-01
-5.000000000000000000e+00,5.000000000000000000e+00,-2.000000000000000000e+00,-2.000000000000000000e+00,-2.000000000000000000e+00,-2.000000000000000000e+00,-1.000000000000000000e+00,0.000000000000000000e+00,4.401245117187500000e-01,1.994018554687500000e-01,-8.580932617187500000e-01,1.736450195312500000e-01
-1.000000000000000000e+00,-5.000000000000000000e+00,5.000000000000000000e+00,2.000000000000000000e+00,-1.000000000000000000e+00,-1.000000000000000000e+00,-4.000000000000000000e+00,-3.000000000000000000e+00,4.400024414062500000e-01,1.994628906250000000e-01,-8.581542968750000000e-01,1.737670898437500000e-01
-3.000000000000000000e+00,-1.500000000000000000e+01,-1.000000000000000000e+00,-5.000000000000000000e+00,-1.000000000000000000e+00,1.000000000000000000e+00,1.000000000000000000e+00,0.000000000000000000e+00,4.400024414062500000e-01,1.994628906250000000e-01,-8.581542968750000000e-01,1.737670898437500000e-01
3.000000000000000000e+00,2.000000000000000000e+00,8.000000000000000000e+00,1.000000000000000000e+00,1.000000000000000000e+00,-1.000000000000000000e+00,1.000000000000000000e+00,0.000000000000000000e+00,4.400024414062500000e-01,1.994628906250000000e-01,-8.581542968750000000e-01,1.737670898437500000e-01
5.000000000000000000e+00,-2.000000000000000000e+00,-1.100000000000000000e+01,-2.000000000000000000e+00,-1.000000000000000000e+00,2.000000000000000000e+00,3.000000000000000000e+00,1.000000000000000000e+00,4.400024414062500000e-01,1.994628906250000000e-01,-8.581542968750000000e-01,1.737670898437500000e-01
3.000000000000000000e+00,7.000000000000000000e+00,-8.000000000000000000e+00,-6.000000000000000000e+00,-4.000000000000000000e+00,-2.000000000000000000e+00,0.000000000000000000e+00,0.000000000000000000e+00,4.397583007812500000e-01,1.993408203125000000e-01,-8.582763671875000000e-01,1.738891601562500000e-01
-1.000000000000000000e+00,-1.000000000000000000e+00,-4.000000000000000000e+00,-4.000000000000000000e+00,-6.000000000000000000e+00,-4.000000000000000000e+00,-3.000000000000000000e+00,-1.000000000000000000e+00,4.397583007812500000e-01,1.993408203125000000e-01,-8.582763671875000000e-01,1.738891601562500000e-01
-3.000000000000000000e+00,1.200000000000000000e+01,2.000000000000000000e+00,4.000000000000000000e+00,2.000000000000000000e+00,-1.000000000000000000e+00,-4.000000000000000000e+00,-3.000000000000000000e+00,4.397583007812500000e-01,1.993408203125000000e-01,-8.582763671875000000e-01,1.738891601562500000e-01
1.500000000000000000e+01,-6.000000000000000000e+00,7.000000000000000000e+00,4.000000000000000000e+00,3.000000000000000000e+00,2.000000000000000000e+00,3.000000000000000000e+00,2.000000000000000000e+00,4.397583007812500000e-01,1.993408203125000000e-01,-8.582763671875000000e-01,1.738891601562500000e-01
-3.000000000000000000e+01,-2.000000000000000000e+00,8.000000000000000000e+00,-1.000000000000000000e+00,5.000000000000000000e+00,3.000000000000000000e+00,1.000000000000000000e+00,1.000000000000000000e+00,4.397583007812500000e-01,1.993408203125000000e-01,-8.582763671875000000e-01,1.738891601562500000e-01
1.800000000000000000e+01,0.000000000000000000e+00,-8.000000000000000000e+00,-3.000000000000000000e+00,-4.000000000000000000e+00,-1.000000000000000000e+00,-2.000000000000000000e+00,-2.000000000000000000e+00,4.397583007812500000e-01,1.993408203125000000e-01,-8.582763671875000000e-01,1.738891601562500000e-01
-1.000000000000000000e+01,-1.400000000000000000e+01,-7.000000000000000000e+00,-1.100000000000000000e+01,-5.000000000000000000e+00,-4.000000000000000000e+00,-3.000000000000000000e+00,-1.000000000000000000e+00,4.397583007812500000e-01,1.993408203125000000e-01,-8.582763671875000000e-01,1.738891601562500000e-01
-4.000000000000000000e+00,9.000000000000000000e+00,0.000000000000000000e+00,-4.000000000000000000e+00,-2.000000000000000000e+00,-2.000000000000000000e+00,-5.000000000000000000e+00,-3.000000000000000000e+00,4.397583007812500000e-01,1.993408203125000000e-01,-8.582763671875000000e-01,1.738891601562500000e-01
9.000000000000000000e+00,-8.000000000000000000e+00,-9.000000000000000000e+00,-2.000000000000000000e+00,-2.000000000000000000e+00,-2.000000000000000000e+00,5.000000000000000000e+00,2.000000000000000000e+00,4.395141601562500000e-01,1.995849609375000000e-01,-8.583374023437500000e-01,1.740722656250000000e-01
-6.000000000000000000e+00,-5.000000000000000000e+00,3.000000000000000000e+00,1.000000000000000000e+00,-3.000000000000000000e+00,-2.000000000000000000e+00,-2.000000000000000000e+00,-3.000000000000000000e+00,4.395141601562500000e-01,1.995849609375000000e-01,-8.583374023437500000e-01,1.740722656250000000e-01
5.000000000000000000e+00,1.300000000000000000e+01,0.000000000000000000e+00,7.000000000000000000e+00,5.000000000000000000e+00,3.000000000000000000e+00,4.000000000000000000e+00,0.000000000000000000e+00,4.395141601562500000e-01,1.995849609375000000e-01,-8.583374023437500000e-01,1.740722656250000000e-01
-5.000000000000000000e+00,0.000000000000000000e+00,-4.000000000000000000e+00,2.000000000000000000e+00,2.000000000000000000e+00,-1.000000000000000000e+00,0.000000000000000000e+00,-1.000000000000000000e+00,4.395141601562500000e-01,1.995849609375000000e-01,-8.583374023437500000e-01,1.740722656250000000e-01
2.000000000000000000e+00,5.000000000000000000e+00,1.100000000000000000e+01,-3.000000000000000000e+00,0.000000000000000000e+00,1.000000000000000000e+00,-3.000000000000000000e+00,-2.000000000000000000e+00,4.395141601562500000e-01,1.995849609375000000e-01,-8.583374023437500000e-01,1.740722656250000000e-01
0.000000000000000000e+00,-7.000000000000000000e+00,-4.000000000000000000e+00,0.000000000000000000e+00,0.000000000000000000e+00,1.000000000000000000e+00,-1.000000000000000000e+00,0.000000000000000000e+00,4.395141601562500000e-01,1.995849609375000000e-01,-8.583374023437500000e-01,1.740722656250000000e-01
2.000000000000000000e+00,-1.500000000000000000e+01,-1.000000000000000000e+01,-6.000000000000000000e+00,-1.200000000000000000e+01,-4.000000000000000000e+00,-3.000000000000000000e+00,-1.000000000000000000e+00,4.395141601562500000e-01,1.995849609375000000e-01,-8.583374023437500000e-01,1.740722656250000000e-01
-1.400000000000000000e+01,3.000000000000000000e+00,-7.000000000000000000e+00,1.000000000000000000e+00,2.000000000000000000e+00,0.000000000000000000e+00,0.000000000000000000e+00,0.000000000000000000e+00,4.395141601562500000e-01,1.995849609375000000e-01,-8.583374023437500000e-01,1.740722656250000000e-01
3.000000000000000000e+00,4.000000000000000000e+00,-1.000000000000000000e+00,1.000000000000000000e+00,1.000000000000000000e+00,-2.000000000000000000e+00,0.000000000000000000e+00,1.000000000000000000e+00,4.394531250000000000e-01,1.995849609375000000e-01,-8.583374023437500000e-01,1.740112304687500000e-01
-3.000000000000000000e+00,0.000000000000000000e+00,3.000000000000000000e+00,0.000000000000000000e+00,-3.000000000000000000e+00,-3.000000000000000000e+00,-2.000000000000000000e+00,3.000000000000000000e+00,4.394531250000000000e-01,1.995849609375000000e-01,-8.583374023437500000e-01,1.740112304687500000e-01
4.000000000000000000e+00,5.000000000000000000e+00,-6.000000000000000000e+00,-1.000000000000000000e+00,4.000000000000000000e+00,3.000000000000000000e+00,4.000000000000000000e+00,0.000000000000000000e+00,4.394531250000000000e-01,1.995849609375000000e-01,-8.583374023437500000e-01,1.740112304687500000e-01
-1.000000000000000000e+00,1.000000000000000000e+00,4.000000000000000000e+00,0.000000000000000000e+00,0.000000000000000000e+00,1.000000000000000000e+00,-4.000000000000000000e+00,-3.000000000000000000e+00,4.394531250000000000e-01,1.995849609375000000e-01,-8.583374023437500000e-01,1.740112304687500000e-01
5.000000000000000000e+00,6.000000000000000000e+00,7.000000000000000000e+00,2.000000000000000000e+00,-1.000000000000000000e+00,-2.000000000000000000e+00,0.000000000000000000e+00,1.000000000000000000e+00,4.394531250000000000e-01,1.995849609375000000e-01,-8.583374023437500000e-01,1.740112304687500000e-01
-1.400000000000000000e+01,-1.000000000000000000e+01,-1.100000000000000000e+01,3.000000000000000000e+00,4.000000000000000000e+00,3.000000000000000000e+00,1.000000000000000000e+00,-2.000000000000000000e+00,4.394531250000000000e-01,1.995849609375000000e-01,-8.583374023437500000e-01,1.740112304687500000e-01
0.000000000000000000e+00,-7.000000000000000000e+00,-4.000000000000000000e+00,1.000000000000000000e+00,-3.000000000000000000e+00,-2.000000000000000000e+00,-2.000000000000000000e+00,-2.000000000000000000e+00,4.394531250000000000e-01,1.995849609375000000e-01,-8.583374023437500000e-01,1.740112304687500000e-01
-1.000000000000000000e+00,-3.000000000000000000e+00,1.000000000000000000e+01,-1.000000000000000000e+00,-2.000000000000000000e+00,-2.000000000000000000e+00,-2.000000000000000000e+00,-2.000000000000000000e+00,4.394531250000000000e-01,1.995849609375000000e-01,-8.583374023437500000e-01,1.740112304687500000e-01
0.000000000000000000e+00,-4.000000000000000000e+00,-8.000000000000000000e+00,-6.000000000000000000e+00,-3.000000000000000000e+00,-3.000000000000000000e+00,-3.000000000000000000e+00,-3.000000000000000000e+00,4.392700195312500000e-01,1.997680664062500000e-01,-8.583984375000000000e-01,1.741943359375000000e-01
4.000000000000000000e+00,1.100000000000000000e+01,2.000000000000000000e+00,4.000000000000000000e+00,3.000000000000000000e+00,1.000000000000000000e+00,-3.000000000000000000e+00,2.000000000000000000e+00,4.392700195312500000e-01,1.997680664062500000e-01,-8.583984375000000000e-01,1.741943359375000000e-01
-5.000000000000000000e+00,-3.000000000000000000e+00,-4.000000000000000000e+00,0.000000000000000000e+00,-1.000000000000000000e+00,0.000000000000000000e+00,-1.000000000000000000e+00,-1.000000000000000000e+00,4.392700195312500000e-01,1.997680664062500000e-01,-8.583984375000000000e-01,1.741943359375000000e-01
-1.000000000000000000e+00,-2.000000000000000000e+00,-1.000000000000000000e+00,-1.000000000000000000e+00,0.000000000000000000e+00,-3.000000000000000000e+00,-2.000000000000000000e+00,-1.000000000000000000e+00,4.392700195312500000e-01,1.997680664062500000e-01,-8.583984375000000000e-01,1.741943359375000000e-01
2.600000000000000000e+01,1.500000000000000000e+01,-5.000000000000000000e+00,3.000000000000000000e+00,1.000000000000000000e+00,-2.000000000000000000e+00,1.000000000000000000e+00,-2.000000000000000000e+00,4.392089843750000000e-01,1.998291015625000000e-01,-8.583984375000000000e-01,1.741943359375000000e-01
-3.900000000000000000e+01,-1.200000000000000000e+01,5.000000000000000000e+00,4.000000000000000000e+00,-3.000000000000000000e+00,2.000000000000000000e+00,0.000000000000000000e+00,-1.000000000000000000e+00,4.392089843750000000e-01,1.998291015625000000e-01,-8.583984375000000000e-01,1.741943359375000000e-01
3.000000000000000000e+00,-1.100000000000000000e+01,-6.000000000000000000e+00,-1.200000000000000000e+01,3.000000000000000000e+00,-2.000000000000000000e+00,-3.000000000000000000e+00,-3.000000000000000000e+00,4.392089843750000000e-01,1.998291015625000000e-01,-8.583984375000000000e-01,1.741943359375000000e-01
-1.000000000000000000e+00,5.000000000000000000e+00,-2.000000000000000000e+01,-5.000000000000000000e+00,-4.000000000000000000e+00,-5.000000000000000000e+00,-1.000000000000000000e+00,2.000000000000000000e+00,4.392089843750000000e-01,1.998291015625000000e-01,-8.583984375000000000e-01,1.741943359375000000e-01
5.000000000000000000e+00,-1.100000000000000000e+01,-3.000000000000000000e+00,-3.000000000000000000e+00,-1.000000000000000000e+00,-1.000000000000000000e+00,-2.000000000000000000e+00,1.000000000000000000e+00,4.392700195312500000e-01,1.995239257812500000e-01,-8.585205078125000000e-01,1.738281250000000000e-01
-7.000000000000000000e+00,1.100000000000000000e+01,-1.000000000000000000e+00,-2.000000000000000000e+00,-2.000000000000000000e+00,-2.000000000000000000e+00,0.000000000000000000e+00,-5.000000000000000000e+00,4.392700195312500000e-01,1.995239257812500000e-01,-8.585205078125000000e-01,1.738281250000000000e-01
0.000000000000000000e+00,4.000000000000000000e+00,4.000000000000000000e+00,4.000000000000000000e+00,0.000000000000000000e+00,-1.000000000000000000e+00,1.000000000000000000e+00,1.000000000000000000e+00,4.392700195312500000e-01,1.995239257812500000e-01,-8.585205078125000000e-01,1.738281250000000000e-01
-6.000000000000000000e+00,-4.000000000000000000e+00,5.000000000000000000e+00,3.000000000000000000e+00,-1.000000000000000000e+00,-2.000000000000000000e+00,2.000000000000000000e+00,2.000000000000000000e+00,4.392700195312500000e-01,1.995239257812500000e-01,-8.585205078125000000e-01,1.738281250000000000e-01
-7.000000000000000000e+00,0.000000000000000000e+00,-2.000000000000000000e+00,-4.000000000000000000e+00,-4.000000000000000000e+00,0.000000000000000000e+00,-4.000000000000000000e+00,-2.000000000000000000e+00,4.393310546875000000e-01,1.992797851562500000e-01,-8.585815429687500000e-01,1.737060546875000000e-01
1.100000000000000000e+01,0.000000000000000000e+00,2.000000000000000000e+00,1.000000000000000000e+00,3.000000000000000000e+00,-1.000000000000000000e+00,1.000000000000000000e+00,2.000000000000000000e+00,4.393310546875000000e-01,1.992797851562500000e-01,-8.585815429687500000e-01,1.737060546875000000e-01
1.200000000000000000e+01,1.500000000000000000e+01,-4.000000000000000000e+00,2.000000000000000000e+00,0.000000000000000000e+00,0.000000000000000000e+00,0.000000000000000000e+00,1.000000000000000000e+00,4.393310546875000000e-01,1.992797851562500000e-01,-8.585815429687500000e-01,1.737060546875000000e-01
-1.400000000000000000e+01,-5.000000000000000000e+00,9.000000000000000000e+00,1.000000000000000000e+00,6.000000000000000000e+00,4.000000000000000000e+00,3.000000000000000000e+00,1.000000000000000000e+00,4.393310546875000000e-01,1.992797851562500000e-01,-8.585815429687500000e-01,1.737060546875000000e-01
-3.500000000000000000e+01,-1.500000000000000000e+01,-5.000000000000000000e+00,-7.000000000000000000e+00,-1.000000000000000000e+01,-7.000000000000000000e+00,-2.000000000000000000e+00,-5.000000000000000000e+00,4.390258789062500000e-01,1.994018554687500000e-01,-8.586425781250000000e-01,1.738891601562500000e-01
1.300000000000000000e+01,0.000000000000000000e+00,-9.000000000000000000e+00,-6.000000000000000000e+00,-2.000000000000000000e+00,-3.000000000000000000e+00,-4.000000000000000000e+00,-2.000000000000000000e+00,4.390258789062500000e-01,1.994018554687500000e-01,-8.586425781250000000e-01,1.738891601562500000e-01
-5.000000000000000000e+00,-1.300000000000000000e+01,7.000000000000000000e+00,-2.000000000000000000e+00,-4.000000000000000000e+00,-4.000000000000000000e+00,-2.000000000000000000e+00,-4.000000000000000000e+00,4.390258789062500000e-01,1.994018554687500000e-01,-8.586425781250000000e-01,1.738891601562500000e-01
1.300000000000000000e+01,1.900000000000000000e+01,-5.000000000000000000e+00,0.000000000000000000e+00,-5.000000000000000000e+00,-1.000000000000000000e+00,-5.000000000000000000e+00,-2.000000000000000000e+00,4.390258789062500000e-01,1.994018554687500000e-01,-8.586425781250000000e-01,1.738891601562500000e-01
-2.000000000000000000e+00,-8.000000000000000000e+00,3.000000000000000000e+00,4.000000000000000000e+00,1.000000000000000000e+00,4.000000000000000000e+00,4.000000000000000000e+00,1.000000000000000000e+00,4.387207031250000000e-01,1.997680664062500000e-01,-8.587036132812500000e-01,1.740112304687500000e-01
-2.000000000000000000e+00,2.000000000000000000e+00,1.000000000000000000e+01,-7.000000000000000000e+00,6.000000000000000000e+00,0.000000000000000000e+00,0.000000000000000000e+00,0.000000000000000000e+00,4.387207031250000000e-01,1.997680664062500000e-01,-8.587036132812500000e-01,1.740112304687500000e-01
1.000000000000000000e+01,2.000000000000000000e+00,-3.500000000000000000e+01,2.000000000000000000e+00,2.000000000000000000e+00,1.000000000000000000e+00,0.000000000000000000e+00,1.000000000000000000e+00,4.387207031250000000e-01,1.997680664062500000e-01,-8.587036132812500000e-01,1.740112304687500000e-01
-2.200000000000000000e+01,-1.200000000000000000e+01,1.900000000000000000e+01,-1.000000000000000000e+00,0.000000000000000000e+00,-3.000000000000000000e+00,-1.000000000000000000e+00,-3.000000000000000000e+00,4.387207031250000000e-01,1.997680664062500000e-01,-8.587036132812500000e-01,1.740112304687500000e-01
0.000000000000000000e+00,-3.000000000000000000e+00,-3.000000000000000000e+00,0.000000000000000000e+00,2.000000000000000000e+00,2.000000000000000000e+00,-1.000000000000000000e+00,0.000000000000000000e+00,4.384155273437500000e-01,1.997070312500000000e-01,-8.588867187500000000e-01,1.739501953125000000e-01
6.000000000000000000e+00,-2.000000000000000000e+00,7.000000000000000000e+00,-2.000000000000000000e+00,-4.000000000000000000e+00,-1.000000000000000000e+00,-2.000000000000000000e+00,-2.000000000000000000e+00,4.384155273437500000e-01,1.997070312500000000e-01,-8.588867187500000000e-01,1.739501953125000000e-01
3.000000000000000000e+00,0.000000000000000000e+00,-1.000000000000000000e+00,-2.000000000000000000e+00,-3.000000000000000000e+00,-3.000000000000000000e+00,-2.000000000000000000e+00,-2.000000000000000000e+00,4.384155273437500000e-01,1.997070312500000000e-01,-8.588867187500000000e-01,1.739501953125000000e-01
1.000000000000000000e+00,4.000000000000000000e+00,-1.000000000000000000e+00,-2.000000000000000000e+00,-1.000000000000000000e+00,0.000000000000000000e+00,-1.000000000000000000e+00,-1.000000000000000000e+00,4.384155273437500000e-01,1.997070312500000000e-01,-8.588867187500000000e-01,1.739501953125000000e-01
1.000000000000000000e+00,-2.000000000000000000e+00,0.000000000000000000e+00,2.000000000000000000e+00,2.000000000000000000e+00,-2.000000000000000000e+00,0.000000000000000000e+00,-1.000000000000000000e+00,4.384155273437500000e-01,1.997070312500000000e-01,-8.588867187500000000e-01,1.739501953125000000e-01
-2.000000000000000000e+00,-5.000000000000000000e+00,-1.000000000000000000e+01,-2.000000000000000000e+00,-7.000000000000000000e+00,-6.000000000000000000e+00,-4.000000000000000000e+00,-3.000000000000000000e+00,4.384155273437500000e-01,1.997070312500000000e-01,-8.588867187500000000e-01,1.739501953125000000e-01
-1.200000000000000000e+01,4.000000000000000000e+00,7.000000000000000000e+00,-2.000000000000000000e+00,-3.000000000000000000e+00,-3.000000000000000000e+00,-6.000000000000000000e+00,-3.000000000000000000e+00,4.384155273437500000e-01,1.997070312500000000e-01,-8.588867187500000000e-01,1.739501953125000000e-01
4.000000000000000000e+00,4.000000000000000000e+00,-9.000000000000000000e+00,1.000000000000000000e+00,0.000000000000000000e+00,2.000000000000000000e+00,-1.000000000000000000e+00,1.000000000000000000e+00,4.384155273437500000e-01,1.997070312500000000e-01,-8.588867187500000000e-01,1.739501953125000000e-01
-2.000000000000000000e+00,-7.000000000000000000e+00,5.000000000000000000e+00,2.000000000000000000e+00,3.000000000000000000e+00,-1.000000000000000000e+00,-2.000000000000000000e+00,1.000000000000000000e+00,4.382934570312500000e-01,1.995239257812500000e-01,-8.589477539062500000e-01,1.739501953125000000e-01
1.600000000000000000e+01,-7.000000000000000000e+00,2.400000000000000000e+01,0.000000000000000000e+00,5.000000000000000000e+00,3.000000000000000000e+00,1.000000000000000000e+00,-3.000000000000000000e+00,4.382934570312500000e-01,1.995239257812500000e-01,-8.589477539062500000e-01,1.739501953125000000e-01
-3.500000000000000000e+01,-1.500000000000000000e+01,-1.300000000000000000e+01,1.000000000000000000e+00,0.000000000000000000e+00,0.000000000000000000e+00,3.000000000000000000e+00,-2.000000000000000000e+00,4.382934570312500000e-01,1.995239257812500000e-01,-8.589477539062500000e-01,1.739501953125000000e-01
8.000000000000000000e+00,3.000000000000000000e+00,-5.000000000000000000e+00,-4.000000000000000000e+00,-4.000000000000000000e+00,-4.000000000000000000e+00,-4.000000000000000000e+00,-2.000000000000000000e+00,4.382934570312500000e-01,1.995239257812500000e-01,-8.589477539062500000e-01,1.739501953125000000e-01
1.300000000000000000e+01,0.000000000000000000e+00,-2.000000000000000000e+00,0.000000000000000000e+00,-3.000000000000000000e+00,-3.000000000000000000e+00,-4.000000000000000000e+00,-1.000000000000000000e+00,4.378662109375000000e-01,1.997070312500000000e-01,-8.590698242187500000e-01,1.743164062500000000e-01
-7.000000000000000000e+00,0.000000000000000000e+00,-9.000000000000000000e+00,-2.000000000000000000e+00,-7.000000000000000000e+00,-2.000000000000000000e+00,-2.000000000000000000e+00,1.000000000000000000e+00,4.378662109375000000e-01,1.997070312500000000e-01,-8.590698242187500000e-01,1.743164062500000000e-01
-1.000000000000000000e+00,2.000000000000000000e+00,9.000000000000000000e+00,3.000000000000000000e+00,0.000000000000000000e+00,0.000000000000000000e+00,-2.000000000000000000e+00,-1.000000000000000000e+00,4.378662109375000000e-01,1.997070312500000000e-01,-8.590698242187500000e-01,1.743164062500000000e-01
3.000000000000000000e+00,-1.000000000000000000e+01,0.000000000000000000e+00,-1.000000000000000000e+00,-1.000000000000000000e+00,1.000000000000000000e+00,1.000000000000000000e+00,-1.000000000000000000e+00,4.378662109375000000e-01,1.997070312500000000e-01,-8.590698242187500000e-01,1.743164062500000000e-01
-4.000000000000000000e+00,7.000000000000000000e+00,-3.000000000000000000e+00,3.000000000000000000e+00,0.000000000000000000e+00,-1.000000000000000000e+00,-2.000000000000000000e+00,-2.000000000000000000e+00,4.378662109375000000e-01,1.997070312500000000e-01,-8.590698242187500000e-01,1.743164062500000000e-01
2.000000000000000000e+00,1.500000000000000000e+01,-2.000000000000000000e+00,-1.000000000000000000e+00,7.000000000000000000e+00,0.000000000000000000e+00,3.000000000000000000e+00,2.000000000000000000e+00,4.378662109375000000e-01,1.997070312500000000e-01,-8.590698242187500000e-01,1.743164062500000000e-01
1.900000000000000000e+01,-1.500000000000000000e+01,1.100000000000000000e+01,-1.000000000000000000e+00,-4.000000000000000000e+00,-3.000000000000000000e+00,0.000000000000000000e+00,0.000000000000000000e+00,4.378662109375000000e-01,1.997070312500000000e-01,-8.590698242187500000e-01,1.743164062500000000e-01
-3.000000000000000000e+00,-1.000000000000000000e+01,-2.100000000000000000e+01,-3.000000000000000000e+00,-1.000000000000000000e+00,1.000000000000000000e+00,0.000000000000000000e+00,-3.000000000000000000e+00,4.378662109375000000e-01,1.997070312500000000e-01,-8.590698242187500000e-01,1.743164062500000000e-01
-8.000000000000000000e+00,5.000000000000000000e+00,-4.000000000000000000e+00,-8.000000000000000000e+00,-5.000000000000000000e+00,-4.000000000000000000e+00,-3.000000000000000000e+00,-2.000000000000000000e+00,4.376220703125000000e-01,1.996459960937500000e-01,-8.591918945312500000e-01,1.743164062500000000e-01
-5.000000000000000000e+00,-1.000000000000000000e+01,-4.000000000000000000e+00,-6.000000000000000000e+00,-4.000000000000000000e+00,-5.000000000000000000e+00,-6.000000000000000000e+00,-3.000000000000000000e+00,4.376220703125000000e-01,1.996459960937500000e-01,-8.591918945312500000e-01,1.743164062500000000e-01
3.000000000000000000e+00,1.600000000000000000e+01,7.000000000000000000e+00,6.000000000000000000e+00,1.000000000000000000e+00,-1.000000000000000000e+00,-4.000000000000000000e+00,-1.000000000000000000e+00,4.376220703125000000e-01,1.996459960937500000e-01,-8.591918945312500000e-01,1.743164062500000000e-01
7.000000000000000000e+00,-5.000000000000000000e+00,3.000000000000000000e+00,-5.000000000000000000e+00,-6.000000000000000000e+00,-2.000000000000000000e+00,1.000000000000000000e+00,0.000000000000000000e+00,4.376220703125000000e-01,1.996459960937500000e-01,-8.591918945312500000e-01,1.743164062500000000e-01
-4.000000000000000000e+00,-9.000000000000000000e+00,-2.000000000000000000e+00,-1.000000000000000000e+00,-3.000000000000000000e+00,-1.000000000000000000e+00,1.000000000000000000e+00,-1.000000000000000000e+00,4.376220703125000000e-01,1.997070312500000000e-01,-8.591918945312500000e-01,1.743164062500000000e-01
0.000000000000000000e+00,2.000000000000000000e+00,-9.000000000000000000e+00,-2.000000000000000000e+00,-7.000000000000000000e+00,-1.000000000000000000e+00,0.000000000000000000e+00,0.000000000000000000e+00,4.376220703125000000e-01,1.997070312500000000e-01,-8.591918945312500000e-01,1.743164062500000000e-01
-1.000000000000000000e+00,1.200000000000000000e+01,0.000000000000000000e+00,-3.000000000000000000e+00,2.000000000000000000e+00,0.000000000000000000e+00,0.000000000000000000e+00,-1.000000000000000000e+00,4.376220703125000000e-01,1.997070312500000000e-01,-8.591918945312500000e-01,1.743164062500000000e-01
9.000000000000000000e+00,-4.000000000000000000e+00,4.000000000000000000e+00,0.000000000000000000e+00,-1.000000000000000000e+00,-3.000000000000000000e+00,-1.000000000000000000e+00,0.000000000000000000e+00,4.376220703125000000e-01,1.997070312500000000e-01,-8.591918945312500000e-01,1.743164062500000000e-01
-1.500000000000000000e+01,-3.000000000000000000e+00,-1.900000000000000000e+01,-1.000000000000000000e+01,-1.000000000000000000e+00,1.000000000000000000e+00,-1.000000000000000000e+00,-2.000000000000000000e+00,4.375610351562500000e-01,1.997070312500000000e-01,-8.591918945312500000e-01,1.743164062500000000e-01
-2.000000000000000000e+01,-2.800000000000000000e+01,1.000000000000000000e+00,-1.000000000000000000e+00,-4.000000000000000000e+00,1.000000000000000000e+00,-2.000000000000000000e+00,-1.000000000000000000e+00,4.375610351562500000e-01,1.997070312500000000e-01,-8.591918945312500000e-01,1.743164062500000000e-01
3.000000000000000000e+00,-4.000000000000000000e+00,-1.100000000000000000e+01,-3.000000000000000000e+00,2.000000000000000000e+00,0.000000000000000000e+00,0.000000000000000000e+00,-1.000000000000000000e+00,4.375610351562500000e-01,1.997070312500000000e-01,-8.591918945312500000e-01,1.743164062500000000e-01
-5.000000000000000000e+00,-1.000000000000000000e+00,0.000000000000000000e+00,1.000000000000000000e+00,0.000000000000000000e+00,0.000000000000000000e+00,-4.000000000000000000e+00,-3.000000000000000000e+00,4.375610351562500000e-01,1.997070312500000000e-01,-8.591918945312500000e-01,1.743164062500000000e-01
4.000000000000000000e+00,1.300000000000000000e+01,1.100000000000000000e+01,1.000000000000000000e+00,-2.000000000000000000e+00,0.000000000000000000e+00,-1.000000000000000000e+00,0.000000000000000000e+00,4.373168945312500000e-01,1.998291015625000000e-01,-8.593139648437500000e-01,1.742553710937500000e-01
1.100000000000000000e+01,0.000000000000000000e+00,-3.000000000000000000e+00,0.000000000000000000e+00,-1.000000000000000000e+00,-3.000000000000000000e+00,1.000000000000000000e+00,2.000000000000000000e+00,4.373168945312500000e-01,1.998291015625000000e-01,-8.593139648437500000e-01,1.742553710937500000e-01
-6.000000000000000000e+00,-1.000000000000000000e+00,-4.000000000000000000e+00,0.000000000000000000e+00,-1.000000000000000000e+00,2.000000000000000000e+00,-2.000000000000000000e+00,-4.000000000000000000e+00,4.373168945312500000e-01,1.998291015625000000e-01,-8.593139648437500000e-01,1.742553710937500000e-01
2.000000000000000000e+00,-9.000000000000000000e+00,1.200000000000000000e+01,0.000000000000000000e+00,-5.000000000000000000e+00,0.000000000000000000e+00,1.000000000000000000e+00,0.000000000000000000e+00,4.373168945312500000e-01,1.998291015625000000e-01,-8.593139648437500000e-01,1.742553710937500000e-01
-9.000000000000000000e+00,1.000000000000000000e+00,4.000000000000000000e+00,-8.000000000000000000e+00,-2.000000000000000000e+00,-4.000000000000000000e+00,1.000000000000000000e+00,-3.000000000000000000e+00,4.371337890625000000e-01,1.999511718750000000e-01,-8.593750000000000000e-01,1.744384765625000000e-01
7.000000000000000000e+00,9.000000000000000000e+00,-6.000000000000000000e+00,0.000000000000000000e+00,1.000000000000000000e+00,-2.000000000000000000e+00,-1.000000000000000000e+00,-1.000000000000000000e+00,4.371337890625000000e-01,1.999511718750000000e-01,-8.593750000000000000e-01,1.744384765625000000e-01
-8.000000000000000000e+00,1.000000000000000000e+00,6.000000000000000000e+00,-3.000000000000000000e+00,-2.000000000000000000e+00,0.000000000000000000e+00,4.000000000000000000e+00,4.000000000000000000e+00,4.371337890625000000e-01,1.999511718750000000e-01,-8.593750000000000000e-01,1.744384765625000000e-01
4.000000000000000000e+00,-6.000000000000000000e+00,-4.000000000000000000e+00,4.000000000000000000e+00,1.000000000000000000e+00,2.000000000000000000e+00,0.000000000000000000e+00,-3.000000000000000000e+00,4.371337890625000000e-01,1.999511718750000000e-01,-8.593750000000000000e-01,1.744384765625000000e-01
8.000000000000000000e+00,-1.000000000000000000e+00,1.000000000000000000e+00,2.000000000000000000e+00,-3.000000000000000000e+00,0.000000000000000000e+00,-1.000000000000000000e+00,0.000000000000000000e+00,4.368286132812500000e-01,2.001953125000000000e-01,-8.594360351562500000e-01,1.746826171875000000e-01
-2.600000000000000000e+01,-4.000000000000000000e+00,-7.000000000000000000e+00,-1.000000000000000000e+00,0.000000000000000000e+00,-1.000000000000000000e+00,-2.000000000000000000e+00,-3.000000000000000000e+00,4.368286132812500000e-01,2.001953125000000000e-01,-8.594360351562500000e-01,1.746826171875000000e-01
3.000000000000000000e+00,9.000000000000000000e+00,7.000000000000000000e+00,6.000000000000000000e+00,4.000000000000000000e+00,1.000000000000000000e+00,0.000000000000000000e+00,0.000000000000000000e+00,4.368286132812500000e-01,2.001953125000000000e-01,-8.594360351562500000e-01,1.746826171875000000e-01
-6.000000000000000000e+00,1.000000000000000000e+00,-8.000000000000000000e+00,-5.000000000000000000e+00,1.000000000000000000e+00,-1.000000000000000000e+00,0.000000000000000000e+00,0.000000000000000000e+00,4.368286132812500000e-01,2.001953125000000000e-01,-8.594360351562500000e-01,1.746826171875000000e-01
-2.000000000000000000e+00,0.000000000000000000e+00,1.300000000000000000e+01,3.000000000000000000e+00,1.000000000000000000e+00,0.000000000000000000e+00,0.000000000000000000e+00,2.000000000000000000e+00,4.366455078125000000e-01,2.006225585937500000e-01,-8.593750000000000000e-01,1.748046875000000000e-01
2.400000000000000000e+01,-3.000000000000000000e+00,-1.200000000000000000e+01,-1.000000000000000000e+00,-1.000000000000000000e+00,0.000000000000000000e+00,8.000000000000000000e+00,1.000000000000000000e+00,4.366455078125000000e-01,2.006225585937500000e-01,-8.593750000000000000e-01,1.748046875000000000e-01
-3.000000000000000000e+00,7.000000000000000000e+00,0.000000000000000000e+00,0.000000000000000000e+00,-4.000000000000000000e+00,-3.000000000000000000e+00,-4.000000000000000000e+00,-1.000000000000000000e+00,4.366455078125000000e-01,2.006225585937500000e-01,-8.593750000000000000e-01,1.748046875000000000e-01
-6.000000000000000000e+00,-4.000000000000000000e+00,1.500000000000000000e+01,0.000000000000000000e+00,-1.000000000000000000e+00,-2.000000000000000000e+00,0.000000000000000000e+00,0.000000000000000000e+00,4.366455078125000000e-01,2.006225585937500000e-01,-8.593750000000000000e-01,1.748046875000000000e-01
9.000000000000000000e+00,-5.000000000000000000e+00,1.000000000000000000e+00,-1.000000000000000000e+00,4.000000000000000000e+00,5.000000000000000000e+00,-1.000000000000000000e+00,1.000000000000000000e+00,4.368286132812500000e-01,2.005615234375000000e-01,-8.593750000000000000e-01,1.745605468750000000e-01
6.000000000000000000e+00,0.000000000000000000e+00,2.000000000000000000e+00,4.000000000000000000e+00,-1.000000000000000000e+00,0.000000000000000000e+00,-1.000000000000000000e+00,-2.000000000000000000e+00,4.368286132812500000e-01,2.005615234375000000e-01,-8.593750000000000000e-01,1.745605468750000000e-01
-1.600000000000000000e+01,-1.200000000000000000e+01,-7.000000000000000000e+00,-6.000000000000000000e+00,-6.000000000000000000e+00,-4.000000000000000000e+00,-2.000000000000000000e+00,-4.000000000000000000e+00,4.368286132812500000e-01,2.005615234375000000e-01,-8.593750000000000000e-01,1.745605468750000000e-01
6.000000000000000000e+00,2.000000000000000000e+01,1.000000000000000000e+01,-4.000000000000000000e+00,-5.000000000000000000e+00,-3.000000000000000000e+00,-4.000000000000000000e+00,-4.000000000000000000e+00,4.368286132812500000e-01,2.005615234375000000e-01,-8.593750000000000000e-01,1.745605468750000000e-01
8.000000000000000000e+00,-5.000000000000000000e+00,-7.000000000000000000e+00,-2.000000000000000000e+00,1.000000000000000000e+00,-1.000000000000000000e+00,-3.000000000000000000e+00,1.000000000000000000e+00,4.369506835937500000e-01,2.003173828125000000e-01,-8.593750000000000000e-01,1.744384765625000000e-01
1.700000000000000000e+01,7.000000000000000000e+00,6.000000000000000000e+00,1.000000000000000000e+00,0.000000000000000000e+00,0.000000000000000000e+00,-2.000000000000000000e+00,0.000000000000000000e+00,4.369506835937500000e-01,2.003173828125000000e-01,-8.593750000000000000e-01,1.744384765625000000e-01
-3.200000000000000000e+01,-1.100000000000000000e+01,-3.000000000000000000e+00,-2.000000000000000000e+00,-1.000000000000000000e+00,0.000000000000000000e+00,0.000000000000000000e+00,-2.000000000000000000e+00,4.369506835937500000e-01,2.003173828125000000e-01,-8.593750000000000000e-01,1.744384765625000000e-01
-6.000000000000000000e+00,-1.000000000000000000e+00,-4.000000000000000000e+00,-2.000000000000000000e+00,1.000000000000000000e+00,-3.000000000000000000e+00,-2.000000000000000000e+00,-2.000000000000000000e+00,4.369506835937500000e-01,2.003173828125000000e-01,-8.593750000000000000e-01,1.744384765625000000e-01
-7.000000000000000000e+00,1.000000000000000000e+00,-7.000000000000000000e+00,2.000000000000000000e+00,1.000000000000000000e+00,-3.000000000000000000e+00,2.000000000000000000e+00,-1.000000000000000000e+00,4.368896484375000000e-01,2.003173828125000000e-01,-8.593750000000000000e-01,1.744384765625000000e-01
-3.000000000000000000e+00,4.000000000000000000e+00,4.000000000000000000e+00,-6.000000000000000000e+00,-5.000000000000000000e+00,-2.000000000000000000e+00,-3.000000000000000000e+00,-4.000000000000000000e+00,4.368896484375000000e-01,2.003173828125000000e-01,-8.593750000000000000e-01,1.744384765625000000e-01
5.000000000000000000e+00,0.000000000000000000e+00,-8.000000000000000000e+00,-1.000000000000000000e+00,2.000000000000000000e+00,1.000000000000000000e+00,-3.000000000000000000e+00,0.000000000000000000e+00,4.368896484375000000e-01,2.003173828125000000e-01,-8.593750000000000000e-01,1.744384765625000000e-01
-3.000000000000000000e+00,-3.000000000000000000e+00,0.000000000000000000e+00,0.000000000000000000e+00,-1.000000000000000000e+00,-4.000000000000000000e+00,0.000000000000000000e+00,0.000000000000000000e+00,4.368896484375000000e-01,2.003173828125000000e-01,-8.593750000000000000e-01,1.744384765625000000e-01
2.000000000000000000e+00,4.000000000000000000e+00,7.000000000000000000e+00,7.000000000000000000e+00,0.000000000000000000e+00,2.000000000000000000e+00,1.000000000000000000e+00,-2.000000000000000000e+00,4.370727539062500000e-01,2.005004882812500000e-01,-8.592529296875000000e-01,1.746215820312500000e-01
-1.000000000000000000e+01,-3.000000000000000000e+00,-1.000000000000000000e+01,-8.000000000000000000e+00,3.000000000000000000e+00,-1.000000000000000000e+00,0.000000000000000000e+00,-1.000000000000000000e+00,4.370727539062500000e-01,2.005004882812500000e-01,-8.592529296875000000e-01,1.746215820312500000e-01
1.300000000000000000e+01,1.000000000000000000e+00,8.000000000000000000e+00,6.000000000000000000e+00,0.000000000000000000e+00,0.000000000000000000e+00,-1.000000000000000000e+00,0.000000000000000000e+00,4.370727539062500000e-01,2.005004882812500000e-01,-8.592529296875000000e-01,1.746215820312500000e-01
2.000000000000000000e+00,-1.000000000000000000e+01,-1.400000000000000000e+01,-2.000000000000000000e+00,-2.000000000000000000e+00,2.000000000000000000e+00,1.000000000000000000e+00,-1.000000000000000000e+00,4.370727539062500000e-01,2.005004882812500000e-01,-8.592529296875000000e-01,1.746215820312500000e-01
-1.000000000000000000e+01,-6.000000000000000000e+00,1.200000000000000000e+01,-1.000000000000000000e+00,-5.000000000000000000e+00,-3.000000000000000000e+00,0.000000000000000000e+00,-3.000000000000000000e+00,4.370727539062500000e-01,2.005004882812500000e-01,-8.592529296875000000e-01,1.746215820312500000e-01
-8.000000000000000000e+00,3.000000000000000000e+00,0.000000000000000000e+00,-2.000000000000000000e+00,-2.000000000000000000e+00,-1.000000000000000000e+00,-1.000000000000000000e+00,0.000000000000000000e+00,4.370727539062500000e-01,2.005004882812500000e-01,-8.592529296875000000e-01,1.746215820312500000e-01
3.000000000000000000e+00,4.000000000000000000e+00,2.000000000000000000e+00,-5.000000000000000000e+00,-2.000000000000000000e+00,-3.000000000000000000e+00,0.000000000000000000e+00,0.000000000000000000e+00,4.370727539062500000e-01,2.005004882812500000e-01,-8.592529296875000000e-01,1.746215820312500000e-01
7.000000000000000000e+00,1.000000000000000000e+01,-5.000000000000000000e+00,0.000000000000000000e+00,-1.000000000000000000e+00,0.000000000000000000e+00,2.000000000000000000e+00,-1.000000000000000000e+00,4.370727539062500000e-01,2.005004882812500000e-01,-8.592529296875000000e-01,1.746215820312500000e-01
-9.000000000000000000e+00,-5.000000000000000000e+00,-9.000000000000000000e+00,-6.000000000000000000e+00,-2.000000000000000000e+00,3.000000000000000000e+00,-1.000000000000000000e+00,-2.000000000000000000e+00,4.370117187500000000e-01,2.005004882812500000e-01,-8.592529296875000000e-01,1.746215820312500000e-01
-2.000000000000000000e+00,-1.100000000000000000e+01,2.000000000000000000e+00,5.000000000000000000e+00,6.000000000000000000e+00,3.000000000000000000e+00,0.000000000000000000e+00,-2.000000000000000000e+00,4.370117187500000000e-01,2.005004882812500000e-01,-8.592529296875000000e-01,1.746215820312500000e-01
-1.100000000000000000e+01,-1.600000000000000000e+01,-2.000000000000000000e+00,0.000000000000000000e+00,-4.000000000000000000e+00,-4.000000000000000000e+00,-3.000000000000000000e+00,-3.000000000000000000e+00,4.370117187500000000e-01,2.005004882812500000e-01,-8.592529296875000000e-01,1.746215820312500000e-01
1.300000000000000000e+01,1.000000000000000000e+01,-1.500000000000000000e+01,-3.000000000000000000e+00,-3.000000000000000000e+00,-4.000000000000000000e+00,-2.000000000000000000e+00,2.000000000000000000e+00,4.370117187500000000e-01,2.005004882812500000e-01,-8.592529296875000000e-01,1.746215820312500000e-01
3.000000000000000000e+00,-4.000000000000000000e+00,-4.000000000000000000e+00,-4.000000000000000000e+00,-3.000000000000000000e+00,-3.000000000000000000e+00,-3.000000000000000000e+00,0.000000000000000000e+00,4.370117187500000000e-01,2.005004882812500000e-01,-8.592529296875000000e-01,1.746215820312500000e-01
1.200000000000000000e+01,6.000000000000000000e+00,-5.000000000000000000e+00,0.000000000000000000e+00,-1.000000000000000000e+00,-4.000000000000000000e+00,-4.000000000000000000e+00,-1.000000000000000000e+00,4.370117187500000000e-01,2.005004882812500000e-01,-8.592529296875000000e-01,1.746215820312500000e-01
-1.200000000000000000e+01,-6.000000000000000000e+00,1.000000000000000000e+00,-2.000000000000000000e+00,0.000000000000000000e+00,0.000000000000000000e+00,-2.000000000000000000e+00,-5.000000000000000000e+00,4.370117187500000000e-01,2.005004882812500000e-01,-8.592529296875000000e-01,1.746215820312500000e-01
-1.000000000000000000e+00,-5.000000000000000000e+00,5.000000000000000000e+00,2.000000000000000000e+00,3.000000000000000000e+00,0.000000000000000000e+00,0.000000000000000000e+00,2.000000000000000000e+00,4.370117187500000000e-01,2.005004882812500000e-01,-8.592529296875000000e-01,1.746215820312500000e-01
1.000000000000000000e+00,5.000000000000000000e+00,-3.000000000000000000e+00,-1.000000000000000000e+00,-2.000000000000000000e+00,-2.000000000000000000e+00,-3.000000000000000000e+00,-1.000000000000000000e+00,4.369506835937500000e-01,2.005004882812500000e-01,-8.592529296875000000e-01,1.746215820312500000e-01
2.000000000000000000e+00,-3.000000000000000000e+00,4.000000000000000000e+00,0.000000000000000000e+00,-3.000000000000000000e+00,0.000000000000000000e+00,1.000000000000000000e+00,0.000000000000000000e+00,4.369506835937500000e-01,2.005004882812500000e-01,-8.592529296875000000e-01,1.746215820312500000e-01
2.000000000000000000e+00,0.000000000000000000e+00,4.000000000000000000e+00,-3.000000000000000000e+00,-2.000000000000000000e+00,-3.000000000000000000e+00,2.000000000000000000e+00,-1.000000000000000000e+00,4.369506835937500000e-01,2.005004882812500000e-01,-8.592529296875000000e-01,1.746215820312500000e-01
-2.000000000000000000e+00,-4.000000000000000000e+00,2.000000000000000000e+00,-3.000000000000000000e+00,-3.000000000000000000e+00,-1.000000000000000000e+00,-3.000000000000000000e+00,-3.000000000000000000e+00,4.369506835937500000e-01,2.005004882812500000e-01,-8.592529296875000000e-01,1.746215820312500000e-01
-5.000000000000000000e+00,-3.000000000000000000e+00,-9.000000000000000000e+00,-2.000000000000000000e+00,0.000000000000000000e+00,-3.000000000000000000e+00,-2.000000000000000000e+00,-1.000000000000000000e+00,4.369506835937500000e-01,2.005004882812500000e-01,-8.593139648437500000e-01,1.746215820312500000e-01
-9.000000000000000000e+00,-3.000000000000000000e+00,0.000000000000000000e+00,-1.000000000000000000e+00,-7.000000000000000000e+00,-4.000000000000000000e+00,-4.000000000000000000e+00,-4.000000000000000000e+00,4.369506835937500000e-01,2.005004882812500000e-01,-8.593139648437500000e-01,1.746215820312500000e-01
7.000000000000000000e+00,5.000000000000000000e+00,-2.000000000000000000e+00,2.000000000000000000e+00,-2.000000000000000000e+00,1.000000000000000000e+00,1.000000000000000000e+00,1.000000000000000000e+00,4.369506835937500000e-01,2.005004882812500000e-01,-8.593139648437500000e-01,1.746215820312500000e-01
-1.100000000000000000e+01,-2.000000000000000000e+00,1.500000000000000000e+01,6.000000000000000000e+00,5.000000000000000000e+00,3.000000000000000000e+00,-1.000000000000000000e+00,-2.000000000000000000e+00,4.369506835937500000e-01,2.005004882812500000e-01,-8.593139648437500000e-01,1.746215820312500000e-01
5.000000000000000000e+00,1.000000000000000000e+00,-3.000000000000000000e+00,-5.000000000000000000e+00,1.000000000000000000e+00,0.000000000000000000e+00,2.000000000000000000e+00,-1.000000000000000000e+00,4.367675781250000000e-01,2.005615234375000000e-01,-8.593750000000000000e-01,1.747436523437500000e-01
-1.000000000000000000e+00,9.000000000000000000e+00,-5.000000000000000000e+00,0.000000000000000000e+00,-3.000000000000000000e+00,-1.000000000000000000e+00,-3.000000000000000000e+00,-1.000000000000000000e+00,4.367675781250000000e-01,2.005615234375000000e-01,-8.593750000000000000e-01,1.747436523437500000e-01
-1.000000000000000000e+00,2.000000000000000000e+00,0.000000000000000000e+00,0.000000000000000000e+00,2.000000000000000000e+00,-1.000000000000000000e+00,2.000000000000000000e+00,2.000000000000000000e+00,4.367675781250000000e-01,2.005615234375000000e-01,-8.593750000000000000e-01,1.747436523437500000e-01
4.000000000000000000e+00,-2.300000000000000000e+01,-2.000000000000000000e+00,-3.000000000000000000e+00,-3.000000000000000000e+00,2.000000000000000000e+00,3.000000000000000000e+00,0.000000000000000000e+00,4.367675781250000000e-01,2.005615234375000000e-01,-8.593750000000000000e-01,1.747436523437500000e-01
-1.000000000000000000e+00,4.000000000000000000e+00,0.000000000000000000e+00,3.000000000000000000e+00,0.000000000000000000e+00,-4.000000000000000000e+00,-5.000000000000000000e+00,-2.000000000000000000e+00,4.364624023437500000e-01,2.004394531250000000e-01,-8.595581054687500000e-01,1.746215820312500000e-01
-9.000000000000000000e+00,-1.400000000000000000e+01,-6.000000000000000000e+00,-6.000000000000000000e+00,-5.000000000000000000e+00,-3.000000000000000000e+00,1.000000000000000000e+00,0.000000000000000000e+00,4.364624023437500000e-01,2.004394531250000000e-01,-8.595581054687500000e-01,1.746215820312500000e-01
1.100000000000000000e+01,1.000000000000000000e+01,2.000000000000000000e+00,-1.000000000000000000e+00,0.000000000000000000e+00,3.000000000000000000e+00,-1.000000000000000000e+00,0.000000000000000000e+00,4.364624023437500000e-01,2.004394531250000000e-01,-8.595581054687500000e-01,1.746215820312500000e-01
-5.000000000000000000e+00,1.900000000000000000e+01,4.000000000000000000e+00,1.000000000000000000e+00,-5.000000000000000000e+00,-1.000000000000000000e+00,-1.000000000000000000e+00,2.000000000000000000e+00,4.364624023437500000e-01,2.004394531250000000e-01,-8.595581054687500000e-01,1.746215820312500000e-01
-1.000000000000000000e+00,-9.000000000000000000e+00,-8.000000000000000000e+00,-3.000000000000000000e+00,0.000000000000000000e+00,-2.000000000000000000e+00,-2.000000000000000000e+00,-2.000000000000000000e+00,4.361572265625000000e-01,2.003784179687500000e-01,-8.597412109375000000e-01,1.743774414062500000e-01
5.000000000000000000e+00,-5.000000000000000000e+00,9.000000000000000000e+00,-1.000000000000000000e+00,0.000000000000000000e+00,3.000000000000000000e+00,1.000000000000000000e+00,-2.000000000000000000e+00,4.361572265625000000e-01,2.003784179687500000e-01,-8.597412109375000000e-01,1.743774414062500000e-01
-1.000000000000000000e+01,0.000000000000000000e+00,-3.400000000000000000e+01,-1.000000000000000000e+01,-5.000000000000000000e+00,-2.000000000000000000e+00,-2.000000000000000000e+00,-4.000000000000000000e+00,4.361572265625000000e-01,2.003784179687500000e-01,-8.597412109375000000e-01,1.743774414062500000e-01
-1.000000000000000000e+00,-1.000000000000000000e+00,-1.100000000000000000e+01,-3.000000000000000000e+00,-1.000000000000000000e+00,-3.000000000000000000e+00,0.000000000000000000e+00,-4.000000000000000000e+00,4.361572265625000000e-01,2.003784179687500000e-01,-8.597412109375000000e-01,1.743774414062500000e-01
1.000000000000000000e+00,-2.000000000000000000e+00,1.000000000000000000e+00,4.000000000000000000e+00,2.000000000000000000e+00,1.000000000000000000e+00,-3.000000000000000000e+00,-2.000000000000000000e+00,4.358520507812500000e-01,2.003173828125000000e-01,-8.599853515625000000e-01,1.743164062500000000e-01
-5.000000000000000000e+00,1.000000000000000000e+00,-7.000000000000000000e+00,-1.100000000000000000e+01,-2.000000000000000000e+00,-1.000000000000000000e+00,-2.000000000000000000e+00,0.000000000000000000e+00,4.358520507812500000e-01,2.003173828125000000e-01,-8.599853515625000000e-01,1.743164062500000000e-01
5.000000000000000000e+00,-1.400000000000000000e+01,8.000000000000000000e+00,0.000000000000000000e+00,-4.000000000000000000e+00,-4.000000000000000000e+00,-4.000000000000000000e+00,1.000000000000000000e+00,4.358520507812500000e-01,2.003173828125000000e-01,-8.599853515625000000e-01,1.743164062500000000e-01
-5.000000000000000000e+00,9.000000000000000000e+00,2.000000000000000000e+00,-5.000000000000000000e+00,1.000000000000000000e+00,0.000000000000000000e+00,2.000000000000000000e+00,-1.000000000000000000e+00,4.358520507812500000e-01,2.003173828125000000e-01,-8.599853515625000000e-01,1.743164062500000000e-01
-1.000000000000000000e+00,-6.000000000000000000e+00,2.000000000000000000e+00,0.000000000000000000e+00,0.000000000000000000e+00,1.000000000000000000e+00,-1.000000000000000000e+00,-2.000000000000000000e+00,4.354858398437500000e-01,2.003784179687500000e-01,-8.601074218750000000e-01,1.743774414062500000e-01
2.000000000000000000e+00,1.000000000000000000e+00,4.000000000000000000e+00,4.000000000000000000e+00,1.000000000000000000e+00,0.000000000000000000e+00,-2.000000000000000000e+00,1.000000000000000000e+00,4.354858398437500000e-01,2.003784179687500000e-01,-8.601074218750000000e-01,1.743774414062500000e-01
3.300000000000000000e+01,1.600000000000000000e+01,4.000000000000000000e+00,-2.000000000000000000e+00,-3.000000000000000000e+00,0.000000000000000000e+00,-1.000000000000000000e+00,4.000000000000000000e+00,4.354858398437500000e-01,2.003784179687500000e-01,-8.601074218750000000e-01,1.743774414062500000e-01
-6.600000000000000000e+01,-3.200000000000000000e+01,-9.000000000000000000e+00,-1.000000000000000000e+00,3.000000000000000000e+00,-4.000000000000000000e+00,-5.000000000000000000e+00,-7.000000000000000000e+00,4.354858398437500000e-01,2.003784179687500000e-01,-8.601074218750000000e-01,1.743774414062500000e-01
9.000000000000000000e+00,2.000000000000000000e+00,9.000000000000000000e+00,1.000000000000000000e+00,-4.000000000000000000e+00,0.000000000000000000e+00,1.000000000000000000e+00,-2.000000000000000000e+00,4.351196289062500000e-01,2.005615234375000000e-01,-8.602294921875000000e-01,1.745605468750000000e-01
-6.000000000000000000e+00,-3.000000000000000000e+00,-4.000000000000000000e+00,5.000000000000000000e+00,2.000000000000000000e+00,-1.000000000000000000e+00,0.000000000000000000e+00,-1.000000000000000000e+00,4.351196289062500000e-01,2.005615234375000000e-01,-8.602294921875000000e-01,1.745605468750000000e-01
5.000000000000000000e+00,3.000000000000000000e+00,5.000000000000000000e+00,-1.000000000000000000e+00,2.000000000000000000e+00,0.000000000000000000e+00,-3.000000000000000000e+00,-2.000000000000000000e+00,4.351196289062500000e-01,2.005615234375000000e-01,-8.602294921875000000e-01,1.745605468750000000e-01
1.200000000000000000e+01,8.000000000000000000e+00,-4.000000000000000000e+00,-9.000000000000000000e+00,-8.000000000000000000e+00,-4.000000000000000000e+00,2.000000000000000000e+00,1.000000000000000000e+00,4.351196289062500000e-01,2.005615234375000000e-01,-8.602294921875000000e-01,1.745605468750000000e-01
