1.000000000000000000e+00,4.000000000000000000e+00,2.300000000000000000e+01,-5.000000000000000000e+00,-4.000000000000000000e+00,3.000000000000000000e+00,-9.000000000000000000e+00,1.000000000000000000e+00,-5.020751953125000000e-01,8.532714843750000000e-02,7.443237304687500000e-01,4.319458007812500000e-01
-3.000000000000000000e+00,-2.000000000000000000e+00,-2.200000000000000000e+01,-1.800000000000000000e+01,-8.000000000000000000e+00,-1.000000000000000000e+01,-5.000000000000000000e+00,-4.000000000000000000e+00,-5.020751953125000000e-01,8.532714843750000000e-02,7.443237304687500000e-01,4.319458007812500000e-01
0.000000000000000000e+00,2.000000000000000000e+00,1.800000000000000000e+01,-1.000000000000000000e+00,-7.000000000000000000e+00,5.000000000000000000e+00,5.000000000000000000e+00,0.000000000000000000e+00,-5.036621093750000000e-01,8.215332031250000000e-02,7.438964843750000000e-01,4.313964843750000000e-01
1.000000000000000000e+00,-3.000000000000000000e+00,-2.000000000000000000e+00,5.100000000000000000e+01,3.200000000000000000e+01,1.700000000000000000e+01,1.600000000000000000e+01,5.000000000000000000e+00,-5.036621093750000000e-01,8.215332031250000000e-02,7.438964843750000000e-01,4.313964843750000000e-01
0.000000000000000000e+00,1.000000000000000000e+00,-9.000000000000000000e+00,-3.800000000000000000e+01,-2.000000000000000000e+00,2.000000000000000000e+00,6.000000000000000000e+00,3.000000000000000000e+00,-5.036621093750000000e-01,8.215332031250000000e-02,7.438964843750000000e-01,4.313964843750000000e-01
-2.000000000000000000e+00,-7.000000000000000000e+00,1.200000000000000000e+01,8.000000000000000000e+00,-5.000000000000000000e+00,-6.000000000000000000e+00,-5.000000000000000000e+00,-2.000000000000000000e+00,-5.036621093750000000e-01,8.215332031250000000e-02,7.438964843750000000e-01,4.313964843750000000e-01
-2.000000000000000000e+00,-4.000000000000000000e+00,-1.600000000000000000e+01,-1.800000000000000000e+01,-1.000000000000000000e+01,-8.000000000000000000e+00,-1.000000000000000000e+00,-2.000000000000000000e+00,-5.047607421875000000e-01,7.897949218750000000e-02,7.434692382812500000e-01,4.315795898437500000e-01
1.000000000000000000e+00,6.000000000000000000e+00,6.000000000000000000e+00,6.000000000000000000e+00,-8.000000000000000000e+00,-1.000000000000000000e+01,-1.400000000000000000e+01,1.000000000000000000e+00,-5.047607421875000000e-01,7.897949218750000000e-02,7.434692382812500000e-01,4.315795898437500000e-01
-1.000000000000000000e+00,-3.000000000000000000e+00,8.000000000000000000e+00,-8.000000000000000000e+00,8.000000000000000000e+00,4.000000000000000000e+00,6.000000000000000000e+00,-1.000000000000000000e+00,-5.047607421875000000e-01,7.897949218750000000e-02,7.434692382812500000e-01,4.315795898437500000e-01
-1.000000000000000000e+00,-1.000000000000000000e+00,-2.100000000000000000e+01,1.400000000000000000e+01,3.000000000000000000e+00,1.000000000000000000e+00,-4.000000000000000000e+00,0.000000000000000000e+00,-5.047607421875000000e-01,7.897949218750000000e-02,7.434692382812500000e-01,4.315795898437500000e-01
-2.000000000000000000e+00,-5.000000000000000000e+00,6.000000000000000000e+00,-3.000000000000000000e+00,-1.000000000000000000e+01,-1.100000000000000000e+01,-1.000000000000000000e+01,-5.000000000000000000e+00,-5.057373046875000000e-01,7.592773437500000000e-02,7.426757812500000000e-01,4.323120117187500000e-01
-1.000000000000000000e+00,-4.000000000000000000e+00,5.000000000000000000e+00,1.000000000000000000e+00,6.000000000000000000e+00,3.000000000000000000e+00,-2.000000000000000000e+00,-2.000000000000000000e+00,-5.057373046875000000e-01,7.592773437500000000e-02,7.426757812500000000e-01,4.323120117187500000e-01
-3.000000000000000000e+00,-1.000000000000000000e+00,-9.000000000000000000e+00,-1.600000000000000000e+01,-7.000000000000000000e+00,-1.000000000000000000e+00,-1.000000000000000000e+00,-2.000000000000000000e+00,-5.057373046875000000e-01,7.592773437500000000e-02,7.426757812500000000e-01,4.323120117187500000e-01
-1.000000000000000000e+00,2.000000000000000000e+00,1.600000000000000000e+01,1.000000000000000000e+00,-1.200000000000000000e+01,-9.000000000000000000e+00,-4.000000000000000000e+00,-2.000000000000000000e+00,-5.057373046875000000e-01,7.592773437500000000e-02,7.426757812500000000e-01,4.323120117187500000e-01
0.000000000000000000e+00,-3.000000000000000000e+00,-5.000000000000000000e+00,-4.000000000000000000e+00,1.500000000000000000e+01,5.000000000000000000e+00,0.000000000000000000e+00,-1.000000000000000000e+00,-5.062866210937500000e-01,7.336425781250000000e-02,7.420043945312500000e-01,4.332275390625000000e-01
-1.000000000000000000e+00,-1.000000000000000000e+00,-1.500000000000000000e+01,4.000000000000000000e+00,-7.000000000000000000e+00,0.000000000000000000e+00,-1.000000000000000000e+00,0.000000000000000000e+00,-5.062866210937500000e-01,7.336425781250000000e-02,7.420043945312500000e-01,4.332275390625000000e-01
0.000000000000000000e+00,-6.000000000000000000e+00,4.000000000000000000e+00,-2.200000000000000000e+01,-1.600000000000000000e+01,-1.000000000000000000e+01,-5.000000000000000000e+00,-1.000000000000000000e+00,-5.062866210937500000e-01,7.336425781250000000e-02,7.420043945312500000e-01,4.332275390625000000e-01
0.000000000000000000e+00,3.000000000000000000e+00,1.400000000000000000e+01,2.500000000000000000e+01,5.000000000000000000e+00,2.000000000000000000e+00,8.000000000000000000e+00,-3.000000000000000000e+00,-5.062866210937500000e-01,7.336425781250000000e-02,7.420043945312500000e-01,4.332275390625000000e-01
1.000000000000000000e+00,2.000000000000000000e+00,1.800000000000000000e+01,-1.200000000000000000e+01,0.000000000000000000e+00,6.000000000000000000e+00,8.000000000000000000e+00,0.000000000000000000e+00,-5.069580078125000000e-01,7.067871093750000000e-02,7.415771484375000000e-01,4.335937500000000000e-01
-3.000000000000000000e+00,-5.000000000000000000e+00,-2.000000000000000000e+01,-1.400000000000000000e+01,-6.000000000000000000e+00,2.000000000000000000e+00,-3.000000000000000000e+00,-2.000000000000000000e+00,-5.069580078125000000e-01,7.067871093750000000e-02,7.415771484375000000e-01,4.335937500000000000e-01
0.000000000000000000e+00,0.000000000000000000e+00,-1.300000000000000000e+01,1.900000000000000000e+01,5.000000000000000000e+00,-2.000000000000000000e+00,-1.400000000000000000e+01,-1.000000000000000000e+00,-5.069580078125000000e-01,7.067871093750000000e-02,7.415771484375000000e-01,4.335937500000000000e-01
2.000000000000000000e+00,0.000000000000000000e+00,4.000000000000000000e+00,-5.000000000000000000e+00,1.000000000000000000e+00,3.000000000000000000e+00,1.300000000000000000e+01,5.000000000000000000e+00,-5.069580078125000000e-01,7.067871093750000000e-02,7.415771484375000000e-01,4.335937500000000000e-01
1.000000000000000000e+00,2.000000000000000000e+00,-1.600000000000000000e+01,-2.000000000000000000e+00,0.000000000000000000e+00,-4.000000000000000000e+00,-5.000000000000000000e+00,-2.000000000000000000e+00,-5.075073242187500000e-01,6.811523437500000000e-02,7.415771484375000000e-01,4.332885742187500000e-01
-2.000000000000000000e+00,-4.000000000000000000e+00,1.700000000000000000e+01,-7.000000000000000000e+00,-3.000000000000000000e+00,-7.000000000000000000e+00,-5.000000000000000000e+00,-3.000000000000000000e+00,-5.075073242187500000e-01,6.811523437500000000e-02,7.415771484375000000e-01,4.332885742187500000e-01
-1.000000000000000000e+00,-1.000000000000000000e+00,-1.300000000000000000e+01,-3.000000000000000000e+00,-2.000000000000000000e+00,-2.000000000000000000e+00,3.000000000000000000e+00,-2.000000000000000000e+00,-5.075073242187500000e-01,6.811523437500000000e-02,7.415771484375000000e-01,4.332885742187500000e-01
-3.000000000000000000e+00,-5.000000000000000000e+00,-4.000000000000000000e+00,5.000000000000000000e+00,-5.000000000000000000e+00,2.000000000000000000e+00,-1.000000000000000000e+00,-2.000000000000000000e+00,-5.075073242187500000e-01,6.811523437500000000e-02,7.415771484375000000e-01,4.332885742187500000e-01
0.000000000000000000e+00,4.000000000000000000e+00,1.200000000000000000e+01,-1.600000000000000000e+01,-1.100000000000000000e+01,-6.000000000000000000e+00,-5.000000000000000000e+00,-2.000000000000000000e+00,-5.081176757812500000e-01,6.555175781250000000e-02,7.415771484375000000e-01,4.330444335937500000e-01
2.000000000000000000e+00,0.000000000000000000e+00,7.000000000000000000e+00,6.000000000000000000e+00,1.600000000000000000e+01,0.000000000000000000e+00,-2.000000000000000000e+00,1.000000000000000000e+00,-5.081176757812500000e-01,6.555175781250000000e-02,7.415771484375000000e-01,4.330444335937500000e-01
0.000000000000000000e+00,-3.000000000000000000e+00,-7.000000000000000000e+00,2.300000000000000000e+01,1.500000000000000000e+01,3.000000000000000000e+00,6.000000000000000000e+00,0.000000000000000000e+00,-5.081176757812500000e-01,6.555175781250000000e-02,7.415771484375000000e-01,4.330444335937500000e-01
1.000000000000000000e+00,-1.000000000000000000e+00,5.000000000000000000e+00,-1.100000000000000000e+01,-3.000000000000000000e+00,-2.000000000000000000e+00,-1.100000000000000000e+01,-3.000000000000000000e+00,-5.081176757812500000e-01,6.555175781250000000e-02,7.415771484375000000e-01,4.330444335937500000e-01
-2.000000000000000000e+00,-5.000000000000000000e+00,1.100000000000000000e+01,4.000000000000000000e+00,-6.000000000000000000e+00,-2.000000000000000000e+00,-1.000000000000000000e+00,-2.000000000000000000e+00,-5.084838867187500000e-01,6.433105468750000000e-02,7.412109375000000000e-01,4.334716796875000000e-01
0.000000000000000000e+00,1.000000000000000000e+00,-1.300000000000000000e+01,-1.700000000000000000e+01,-1.500000000000000000e+01,2.000000000000000000e+00,5.000000000000000000e+00,-2.000000000000000000e+00,-5.084838867187500000e-01,6.433105468750000000e-02,7.412109375000000000e-01,4.334716796875000000e-01
-1.000000000000000000e+00,-1.000000000000000000e+00,-1.200000000000000000e+01,0.000000000000000000e+00,-1.000000000000000000e+01,-3.000000000000000000e+00,-2.000000000000000000e+00,-1.000000000000000000e+00,-5.084838867187500000e-01,6.433105468750000000e-02,7.412109375000000000e-01,4.334716796875000000e-01
-2.000000000000000000e+00,-1.000000000000000000e+00,-2.000000000000000000e+00,1.000000000000000000e+01,4.000000000000000000e+00,-6.000000000000000000e+00,-4.000000000000000000e+00,-2.000000000000000000e+00,-5.084838867187500000e-01,6.433105468750000000e-02,7.412109375000000000e-01,4.334716796875000000e-01
1.000000000000000000e+00,1.100000000000000000e+01,3.000000000000000000e+01,-3.100000000000000000e+01,-7.000000000000000000e+00,-3.000000000000000000e+00,-1.000000000000000000e+01,2.000000000000000000e+00,-5.087890625000000000e-01,6.402587890625000000e-02,7.406005859375000000e-01,4.341430664062500000e-01
-6.000000000000000000e+00,-1.900000000000000000e+01,-5.400000000000000000e+01,-1.500000000000000000e+01,-7.000000000000000000e+00,2.000000000000000000e+00,1.100000000000000000e+01,-1.000000000000000000e+00,-5.087890625000000000e-01,6.402587890625000000e-02,7.406005859375000000e-01,4.341430664062500000e-01
1.000000000000000000e+00,-2.000000000000000000e+00,-1.700000000000000000e+01,-1.000000000000000000e+01,-5.000000000000000000e+00,1.000000000000000000e+00,2.000000000000000000e+00,-1.000000000000000000e+00,-5.087890625000000000e-01,6.402587890625000000e-02,7.406005859375000000e-01,4.341430664062500000e-01
-1.000000000000000000e+00,-4.000000000000000000e+00,-6.000000000000000000e+00,1.000000000000000000e+00,1.000000000000000000e+00,-2.000000000000000000e+00,0.000000000000000000e+00,0.000000000000000000e+00,-5.087890625000000000e-01,6.402587890625000000e-02,7.406005859375000000e-01,4.341430664062500000e-01
0.000000000000000000e+00,0.000000000000000000e+00,2.000000000000000000e+00,1.900000000000000000e+01,7.000000000000000000e+00,-4.000000000000000000e+00,7.000000000000000000e+00,-3.000000000000000000e+00,-5.095214843750000000e-01,6.414794921875000000e-02,7.401733398437500000e-01,4.340820312500000000e-01
-3.000000000000000000e+00,4.000000000000000000e+00,2.100000000000000000e+01,-6.000000000000000000e+00,-2.000000000000000000e+00,-7.000000000000000000e+00,-3.500000000000000000e+01,-6.000000000000000000e+00,-5.095214843750000000e-01,6.414794921875000000e-02,7.401733398437500000e-01,4.340820312500000000e-01
2.000000000000000000e+00,4.000000000000000000e+00,1.000000000000000000e+00,1.100000000000000000e+01,5.000000000000000000e+00,1.400000000000000000e+01,1.900000000000000000e+01,4.000000000000000000e+00,-5.095214843750000000e-01,6.414794921875000000e-02,7.401733398437500000e-01,4.340820312500000000e-01
0.000000000000000000e+00,-4.000000000000000000e+00,3.000000000000000000e+00,-6.000000000000000000e+00,0.000000000000000000e+00,-2.000000000000000000e+00,-2.000000000000000000e+00,-2.000000000000000000e+00,-5.095214843750000000e-01,6.414794921875000000e-02,7.401733398437500000e-01,4.340820312500000000e-01
0.000000000000000000e+00,-5.000000000000000000e+00,-2.600000000000000000e+01,-3.000000000000000000e+00,0.000000000000000000e+00,1.000000000000000000e+00,-3.000000000000000000e+00,-3.000000000000000000e+00,-5.097656250000000000e-01,6.481933593750000000e-02,7.399291992187500000e-01,4.340209960937500000e-01
0.000000000000000000e+00,1.000000000000000000e+00,1.300000000000000000e+01,3.000000000000000000e+00,-2.000000000000000000e+00,-8.000000000000000000e+00,1.000000000000000000e+00,0.000000000000000000e+00,-5.097656250000000000e-01,6.481933593750000000e-02,7.399291992187500000e-01,4.340209960937500000e-01
-4.000000000000000000e+00,-5.000000000000000000e+00,-1.500000000000000000e+01,5.000000000000000000e+00,-7.000000000000000000e+00,-5.000000000000000000e+00,-5.000000000000000000e+00,-3.000000000000000000e+00,-5.097656250000000000e-01,6.481933593750000000e-02,7.399291992187500000e-01,4.340209960937500000e-01
0.000000000000000000e+00,3.000000000000000000e+00,1.200000000000000000e+01,0.000000000000000000e+00,5.000000000000000000e+00,7.000000000000000000e+00,-6.000000000000000000e+00,-1.000000000000000000e+00,-5.097656250000000000e-01,6.481933593750000000e-02,7.399291992187500000e-01,4.340209960937500000e-01
0.000000000000000000e+00,0.000000000000000000e+00,-1.000000000000000000e+00,7.000000000000000000e+00,8.000000000000000000e+00,1.000000000000000000e+00,2.000000000000000000e+00,1.000000000000000000e+00,-5.098876953125000000e-01,6.549072265625000000e-02,7.398071289062500000e-01,4.339599609375000000e-01
1.000000000000000000e+00,4.000000000000000000e+00,5.000000000000000000e+00,-5.000000000000000000e+00,-3.000000000000000000e+01,-5.000000000000000000e+00,0.000000000000000000e+00,0.000000000000000000e+00,-5.098876953125000000e-01,6.549072265625000000e-02,7.398071289062500000e-01,4.339599609375000000e-01
-1.000000000000000000e+00,-3.000000000000000000e+00,1.800000000000000000e+01,6.300000000000000000e+01,4.700000000000000000e+01,1.100000000000000000e+01,-6.000000000000000000e+00,-2.000000000000000000e+00,-5.098876953125000000e-01,6.549072265625000000e-02,7.398071289062500000e-01,4.339599609375000000e-01
0.000000000000000000e+00,3.000000000000000000e+00,1.000000000000000000e+00,-5.500000000000000000e+01,-8.000000000000000000e+00,-7.000000000000000000e+00,4.000000000000000000e+00,-1.000000000000000000e+00,-5.098876953125000000e-01,6.549072265625000000e-02,7.398071289062500000e-01,4.339599609375000000e-01
0.000000000000000000e+00,-2.000000000000000000e+00,-1.800000000000000000e+01,1.000000000000000000e+00,1.000000000000000000e+00,3.000000000000000000e+00,1.000000000000000000e+00,-1.000000000000000000e+00,-5.097045898437500000e-01,6.701660156250000000e-02,7.398681640625000000e-01,4.338989257812500000e-01
-2.000000000000000000e+00,-5.000000000000000000e+00,-1.500000000000000000e+01,-1.100000000000000000e+01,-9.000000000000000000e+00,-7.000000000000000000e+00,-7.000000000000000000e+00,-1.000000000000000000e+00,-5.097045898437500000e-01,6.701660156250000000e-02,7.398681640625000000e-01,4.338989257812500000e-01
-2.000000000000000000e+00,1.000000000000000000e+00,3.000000000000000000e+00,-2.600000000000000000e+01,-1.900000000000000000e+01,-6.000000000000000000e+00,1.000000000000000000e+00,-1.000000000000000000e+00,-5.097045898437500000e-01,6.701660156250000000e-02,7.398681640625000000e-01,4.338989257812500000e-01
-1.000000000000000000e+00,-3.000000000000000000e+00,7.000000000000000000e+00,2.300000000000000000e+01,3.000000000000000000e+00,-7.000000000000000000e+00,-1.700000000000000000e+01,0.000000000000000000e+00,-5.097045898437500000e-01,6.701660156250000000e-02,7.398681640625000000e-01,4.338989257812500000e-01
0.000000000000000000e+00,-2.000000000000000000e+00,4.000000000000000000e+00,1.900000000000000000e+01,5.000000000000000000e+00,8.000000000000000000e+00,1.800000000000000000e+01,1.000000000000000000e+00,-5.100097656250000000e-01,6.842041015625000000e-02,7.398071289062500000e-01,4.334106445312500000e-01
-2.000000000000000000e+00,5.000000000000000000e+00,4.000000000000000000e+01,1.100000000000000000e+01,3.000000000000000000e+00,4.000000000000000000e+00,-3.000000000000000000e+00,-3.000000000000000000e+00,-5.100097656250000000e-01,6.842041015625000000e-02,7.398071289062500000e-01,4.334106445312500000e-01
-2.000000000000000000e+00,-5.000000000000000000e+00,-6.800000000000000000e+01,-4.200000000000000000e+01,-5.000000000000000000e+00,2.000000000000000000e+00,-1.000000000000000000e+00,1.000000000000000000e+00,-5.100097656250000000e-01,6.842041015625000000e-02,7.398071289062500000e-01,4.334106445312500000e-01
-1.000000000000000000e+00,-8.000000000000000000e+00,-1.100000000000000000e+01,6.000000000000000000e+00,-5.000000000000000000e+00,-5.000000000000000000e+00,-6.000000000000000000e+00,-3.000000000000000000e+00,-5.100097656250000000e-01,6.842041015625000000e-02,7.398071289062500000e-01,4.334106445312500000e-01
0.000000000000000000e+00,0.000000000000000000e+00,1.000000000000000000e+01,-3.000000000000000000e+00,-2.000000000000000000e+00,-1.000000000000000000e+00,-6.000000000000000000e+00,-2.000000000000000000e+00,-5.100708007812500000e-01,6.970214843750000000e-02,7.401123046875000000e-01,4.326171875000000000e-01
-1.000000000000000000e+00,-2.000000000000000000e+00,-3.000000000000000000e+00,1.800000000000000000e+01,1.000000000000000000e+01,0.000000000000000000e+00,-1.000000000000000000e+00,0.000000000000000000e+00,-5.100708007812500000e-01,6.970214843750000000e-02,7.401123046875000000e-01,4.326171875000000000e-01
3.000000000000000000e+00,9.000000000000000000e+00,3.300000000000000000e+01,-6.000000000000000000e+00,-6.000000000000000000e+00,-1.300000000000000000e+01,-1.300000000000000000e+01,-2.000000000000000000e+00,-5.100708007812500000e-01,6.970214843750000000e-02,7.401123046875000000e-01,4.326171875000000000e-01
-1.000000000000000000e+00,-2.000000000000000000e+00,-6.000000000000000000e+00,9.000000000000000000e+00,-2.000000000000000000e+00,1.200000000000000000e+01,2.100000000000000000e+01,0.000000000000000000e+00,-5.100708007812500000e-01,6.970214843750000000e-02,7.401123046875000000e-01,4.326171875000000000e-01
-2.000000000000000000e+00,-5.000000000000000000e+00,-1.300000000000000000e+01,-1.100000000000000000e+01,-8.000000000000000000e+00,-4.000000000000000000e+00,-1.100000000000000000e+01,-2.000000000000000000e+00,-5.103149414062500000e-01,7.025146484375000000e-02,7.403564453125000000e-01,4.318237304687500000e-01
2.000000000000000000e+00,5.000000000000000000e+00,1.200000000000000000e+01,1.400000000000000000e+01,6.000000000000000000e+00,4.000000000000000000e+00,1.000000000000000000e+01,2.000000000000000000e+00,-5.103149414062500000e-01,7.025146484375000000e-02,7.403564453125000000e-01,4.318237304687500000e-01
-1.000000000000000000e+00,3.000000000000000000e+00,1.900000000000000000e+01,-1.200000000000000000e+01,-2.000000000000000000e+01,-8.000000000000000000e+00,-1.200000000000000000e+01,-2.000000000000000000e+00,-5.103149414062500000e-01,7.025146484375000000e-02,7.403564453125000000e-01,4.318237304687500000e-01
-2.000000000000000000e+00,-5.000000000000000000e+00,-1.600000000000000000e+01,-1.600000000000000000e+01,2.400000000000000000e+01,6.000000000000000000e+00,8.000000000000000000e+00,0.000000000000000000e+00,-5.103149414062500000e-01,7.025146484375000000e-02,7.403564453125000000e-01,4.318237304687500000e-01
-1.000000000000000000e+00,-2.000000000000000000e+00,1.000000000000000000e+01,2.900000000000000000e+01,1.300000000000000000e+01,4.000000000000000000e+00,0.000000000000000000e+00,-2.000000000000000000e+00,-5.102539062500000000e-01,7.092285156250000000e-02,7.406616210937500000e-01,4.312133789062500000e-01
2.000000000000000000e+00,8.000000000000000000e+00,-2.000000000000000000e+00,4.000000000000000000e+00,3.000000000000000000e+00,-8.000000000000000000e+00,-2.000000000000000000e+00,0.000000000000000000e+00,-5.102539062500000000e-01,7.092285156250000000e-02,7.406616210937500000e-01,4.312133789062500000e-01
-4.000000000000000000e+00,-4.000000000000000000e+00,-1.300000000000000000e+01,-2.000000000000000000e+01,-1.100000000000000000e+01,-5.000000000000000000e+00,-1.000000000000000000e+00,-1.000000000000000000e+00,-5.102539062500000000e-01,7.092285156250000000e-02,7.406616210937500000e-01,4.312133789062500000e-01
1.000000000000000000e+00,3.000000000000000000e+00,1.000000000000000000e+01,-5.000000000000000000e+00,-2.400000000000000000e+01,-8.000000000000000000e+00,-5.000000000000000000e+00,0.000000000000000000e+00,-5.102539062500000000e-01,7.092285156250000000e-02,7.406616210937500000e-01,4.312133789062500000e-01
-5.000000000000000000e+00,-5.000000000000000000e+00,6.000000000000000000e+00,-7.000000000000000000e+00,7.000000000000000000e+00,4.000000000000000000e+00,0.000000000000000000e+00,1.000000000000000000e+00,-5.105590820312500000e-01,7.104492187500000000e-02,7.407226562500000000e-01,4.307861328125000000e-01
0.000000000000000000e+00,-4.000000000000000000e+00,-1.000000000000000000e+01,0.000000000000000000e+00,9.000000000000000000e+00,1.000000000000000000e+01,2.000000000000000000e+00,-1.000000000000000000e+00,-5.105590820312500000e-01,7.104492187500000000e-02,7.407226562500000000e-01,4.307861328125000000e-01
-3.000000000000000000e+00,-3.000000000000000000e+00,-1.000000000000000000e+00,1.000000000000000000e+00,-2.000000000000000000e+00,-1.000000000000000000e+00,-4.000000000000000000e+00,-3.000000000000000000e+00,-5.105590820312500000e-01,7.104492187500000000e-02,7.407226562500000000e-01,4.307861328125000000e-01
2.000000000000000000e+00,0.000000000000000000e+00,5.000000000000000000e+00,8.000000000000000000e+00,-7.000000000000000000e+00,-1.000000000000000000e+00,1.300000000000000000e+01,2.000000000000000000e+00,-5.105590820312500000e-01,7.104492187500000000e-02,7.407226562500000000e-01,4.307861328125000000e-01
-1.000000000000000000e+00,-2.000000000000000000e+00,8.000000000000000000e+00,2.300000000000000000e+01,4.000000000000000000e+00,-2.000000000000000000e+00,-4.000000000000000000e+00,-1.000000000000000000e+00,-5.108642578125000000e-01,7.110595703125000000e-02,7.405395507812500000e-01,4.306640625000000000e-01
2.000000000000000000e+00,-1.000000000000000000e+00,-2.900000000000000000e+01,-3.700000000000000000e+01,-9.000000000000000000e+00,-8.000000000000000000e+00,-3.000000000000000000e+00,0.000000000000000000e+00,-5.108642578125000000e-01,7.110595703125000000e-02,7.405395507812500000e-01,4.306640625000000000e-01
0.000000000000000000e+00,-4.000000000000000000e+00,1.000000000000000000e+01,-6.000000000000000000e+00,-2.000000000000000000e+00,0.000000000000000000e+00,-1.400000000000000000e+01,-4.000000000000000000e+00,-5.108642578125000000e-01,7.110595703125000000e-02,7.405395507812500000e-01,4.306640625000000000e-01
-5.000000000000000000e+00,-4.000000000000000000e+00,-1.100000000000000000e+01,-4.000000000000000000e+00,6.000000000000000000e+00,4.000000000000000000e+00,1.400000000000000000e+01,0.000000000000000000e+00,-5.108642578125000000e-01,7.110595703125000000e-02,7.405395507812500000e-01,4.306640625000000000e-01
0.000000000000000000e+00,6.000000000000000000e+00,-3.000000000000000000e+00,1.000000000000000000e+00,-1.800000000000000000e+01,-9.000000000000000000e+00,-1.000000000000000000e+01,-2.000000000000000000e+00,-5.109252929687500000e-01,7.141113281250000000e-02,7.402954101562500000e-01,4.310302734375000000e-01
-2.000000000000000000e+00,-4.000000000000000000e+00,1.000000000000000000e+00,-6.000000000000000000e+00,1.000000000000000000e+00,1.000000000000000000e+00,3.000000000000000000e+00,-2.000000000000000000e+00,-5.109252929687500000e-01,7.141113281250000000e-02,7.402954101562500000e-01,4.310302734375000000e-01
-1.000000000000000000e+00,-1.000000000000000000e+00,1.700000000000000000e+01,1.800000000000000000e+01,2.200000000000000000e+01,8.000000000000000000e+00,1.200000000000000000e+01,1.000000000000000000e+00,-5.109252929687500000e-01,7.141113281250000000e-02,7.402954101562500000e-01,4.310302734375000000e-01
1.000000000000000000e+00,-1.000000000000000000e+00,-3.000000000000000000e+01,-3.000000000000000000e+00,-4.000000000000000000e+00,-9.000000000000000000e+00,-2.500000000000000000e+01,-5.000000000000000000e+00,-5.109252929687500000e-01,7.141113281250000000e-02,7.402954101562500000e-01,4.310302734375000000e-01
2.000000000000000000e+00,1.000000000000000000e+00,7.000000000000000000e+00,-1.000000000000000000e+01,-1.800000000000000000e+01,2.000000000000000000e+00,4.000000000000000000e+00,-1.000000000000000000e+00,-5.111083984375000000e-01,7.153320312500000000e-02,7.399902343750000000e-01,4.313354492187500000e-01
-1.000000000000000000e+00,-5.000000000000000000e+00,-1.700000000000000000e+01,8.000000000000000000e+00,2.200000000000000000e+01,1.000000000000000000e+00,0.000000000000000000e+00,0.000000000000000000e+00,-5.111083984375000000e-01,7.153320312500000000e-02,7.399902343750000000e-01,4.313354492187500000e-01
1.000000000000000000e+00,2.000000000000000000e+00,1.000000000000000000e+00,3.700000000000000000e+01,3.000000000000000000e+00,-1.000000000000000000e+00,6.000000000000000000e+00,0.000000000000000000e+00,-5.111083984375000000e-01,7.153320312500000000e-02,7.399902343750000000e-01,4.313354492187500000e-01
-1.000000000000000000e+00,4.000000000000000000e+00,3.500000000000000000e+01,-3.000000000000000000e+01,-7.000000000000000000e+00,-4.000000000000000000e+00,-5.000000000000000000e+00,-1.000000000000000000e+00,-5.111083984375000000e-01,7.153320312500000000e-02,7.399902343750000000e-01,4.313354492187500000e-01
-1.000000000000000000e+00,-4.000000000000000000e+00,-2.400000000000000000e+01,-2.100000000000000000e+01,-2.000000000000000000e+00,-2.000000000000000000e+00,-1.000000000000000000e+00,-1.000000000000000000e+00,-5.117187500000000000e-01,7.122802734375000000e-02,7.395629882812500000e-01,4.313354492187500000e-01
-3.000000000000000000e+00,-7.000000000000000000e+00,-1.000000000000000000e+01,-3.000000000000000000e+00,-1.400000000000000000e+01,-1.000000000000000000e+00,-1.000000000000000000e+01,-2.000000000000000000e+00,-5.117187500000000000e-01,7.122802734375000000e-02,7.395629882812500000e-01,4.313354492187500000e-01
1.000000000000000000e+00,2.000000000000000000e+00,1.000000000000000000e+01,-1.200000000000000000e+01,-2.000000000000000000e+00,1.000000000000000000e+00,1.700000000000000000e+01,1.000000000000000000e+00,-5.117187500000000000e-01,7.122802734375000000e-02,7.395629882812500000e-01,4.313354492187500000e-01
0.000000000000000000e+00,-1.000000000000000000e+00,8.000000000000000000e+00,1.700000000000000000e+01,-2.000000000000000000e+00,-3.000000000000000000e+00,-6.000000000000000000e+00,1.000000000000000000e+00,-5.117187500000000000e-01,7.122802734375000000e-02,7.395629882812500000e-01,4.313354492187500000e-01
0.000000000000000000e+00,0.000000000000000000e+00,8.000000000000000000e+00,0.000000000000000000e+00,2.000000000000000000e+00,-4.000000000000000000e+00,-5.000000000000000000e+00,-1.000000000000000000e+00,-5.125732421875000000e-01,7.055664062500000000e-02,7.391357421875000000e-01,4.311523437500000000e-01
-1.000000000000000000e+00,2.000000000000000000e+00,5.000000000000000000e+00,1.400000000000000000e+01,0.000000000000000000e+00,2.000000000000000000e+00,1.000000000000000000e+01,0.000000000000000000e+00,-5.125732421875000000e-01,7.055664062500000000e-02,7.391357421875000000e-01,4.311523437500000000e-01
-4.000000000000000000e+00,-8.000000000000000000e+00,-6.000000000000000000e+00,-2.200000000000000000e+01,-8.000000000000000000e+00,-3.000000000000000000e+00,-3.000000000000000000e+00,-1.000000000000000000e+00,-5.125732421875000000e-01,7.055664062500000000e-02,7.391357421875000000e-01,4.311523437500000000e-01
-2.000000000000000000e+00,2.000000000000000000e+00,-9.000000000000000000e+00,1.400000000000000000e+01,5.000000000000000000e+00,1.000000000000000000e+00,-7.000000000000000000e+00,-1.000000000000000000e+00,-5.125732421875000000e-01,7.055664062500000000e-02,7.391357421875000000e-01,4.311523437500000000e-01
-2.000000000000000000e+00,-3.000000000000000000e+00,4.000000000000000000e+00,-3.000000000000000000e+00,-4.000000000000000000e+00,-7.000000000000000000e+00,-4.000000000000000000e+00,-3.000000000000000000e+00,-5.133056640625000000e-01,7.019042968750000000e-02,7.387084960937500000e-01,4.310913085937500000e-01
1.000000000000000000e+00,0.000000000000000000e+00,-7.000000000000000000e+00,4.000000000000000000e+01,1.500000000000000000e+01,-1.000000000000000000e+00,-2.000000000000000000e+00,0.000000000000000000e+00,-5.133056640625000000e-01,7.019042968750000000e-02,7.387084960937500000e-01,4.310913085937500000e-01
-1.000000000000000000e+00,1.000000000000000000e+00,4.000000000000000000e+00,-3.300000000000000000e+01,-6.000000000000000000e+00,-1.000000000000000000e+00,2.000000000000000000e+00,0.000000000000000000e+00,-5.133056640625000000e-01,7.019042968750000000e-02,7.387084960937500000e-01,4.310913085937500000e-01
-2.000000000000000000e+00,-6.000000000000000000e+00,-1.300000000000000000e+01,-4.000000000000000000e+01,-1.900000000000000000e+01,-2.000000000000000000e+00,0.000000000000000000e+00,-2.000000000000000000e+00,-5.133056640625000000e-01,7.019042968750000000e-02,7.387084960937500000e-01,4.310913085937500000e-01
1.000000000000000000e+00,4.000000000000000000e+00,2.000000000000000000e+00,3.600000000000000000e+01,1.500000000000000000e+01,3.000000000000000000e+00,3.000000000000000000e+00,0.000000000000000000e+00,-5.136108398437500000e-01,7.073974609375000000e-02,7.384033203125000000e-01,4.311523437500000000e-01
-2.000000000000000000e+00,-4.000000000000000000e+00,1.100000000000000000e+01,4.000000000000000000e+00,-1.000000000000000000e+00,-3.000000000000000000e+00,-3.000000000000000000e+00,-1.000000000000000000e+00,-5.136108398437500000e-01,7.073974609375000000e-02,7.384033203125000000e-01,4.311523437500000000e-01
-1.000000000000000000e+00,0.000000000000000000e+00,1.100000000000000000e+01,-7.000000000000000000e+00,-4.000000000000000000e+00,-5.000000000000000000e+00,1.000000000000000000e+00,-1.000000000000000000e+00,-5.136108398437500000e-01,7.073974609375000000e-02,7.384033203125000000e-01,4.311523437500000000e-01
1.000000000000000000e+00,0.000000000000000000e+00,-8.000000000000000000e+00,2.100000000000000000e+01,6.000000000000000000e+00,3.000000000000000000e+00,1.000000000000000000e+00,-1.000000000000000000e+00,-5.136108398437500000e-01,7.073974609375000000e-02,7.384033203125000000e-01,4.311523437500000000e-01
-2.000000000000000000e+00,-1.000000000000000000e+00,5.000000000000000000e+00,-2.700000000000000000e+01,-8.000000000000000000e+00,-1.000000000000000000e+00,4.000000000000000000e+00,-1.000000000000000000e+00,-5.135498046875000000e-01,7.159423828125000000e-02,7.384033203125000000e-01,4.310913085937500000e-01
1.000000000000000000e+00,2.000000000000000000e+00,-5.000000000000000000e+00,1.000000000000000000e+01,0.000000000000000000e+00,-1.000000000000000000e+00,-2.000000000000000000e+00,-1.000000000000000000e+00,-5.135498046875000000e-01,7.159423828125000000e-02,7.384033203125000000e-01,4.310913085937500000e-01
-2.000000000000000000e+00,-1.000000000000000000e+00,9.000000000000000000e+00,1.000000000000000000e+01,-3.000000000000000000e+00,-3.000000000000000000e+00,-1.000000000000000000e+00,-1.000000000000000000e+00,-5.135498046875000000e-01,7.159423828125000000e-02,7.384033203125000000e-01,4.310913085937500000e-01
-4.000000000000000000e+00,-1.000000000000000000e+01,-4.400000000000000000e+01,-4.000000000000000000e+01,-1.300000000000000000e+01,-2.000000000000000000e+00,-3.000000000000000000e+00,-3.000000000000000000e+00,-5.135498046875000000e-01,7.159423828125000000e-02,7.384033203125000000e-01,4.310913085937500000e-01
-1.000000000000000000e+00,2.000000000000000000e+00,1.600000000000000000e+01,1.500000000000000000e+01,6.000000000000000000e+00,-1.100000000000000000e+01,-4.000000000000000000e+00,-1.000000000000000000e+00,-5.136108398437500000e-01,7.159423828125000000e-02,7.385864257812500000e-01,4.306640625000000000e-01
0.000000000000000000e+00,3.000000000000000000e+00,5.000000000000000000e+00,-9.000000000000000000e+00,-5.000000000000000000e+00,1.300000000000000000e+01,1.400000000000000000e+01,2.000000000000000000e+00,-5.136108398437500000e-01,7.159423828125000000e-02,7.385864257812500000e-01,4.306640625000000000e-01
-5.000000000000000000e+00,-8.000000000000000000e+00,-8.000000000000000000e+00,3.000000000000000000e+00,-2.000000000000000000e+00,-9.000000000000000000e+00,-1.600000000000000000e+01,-3.000000000000000000e+00,-5.136108398437500000e-01,7.159423828125000000e-02,7.385864257812500000e-01,4.306640625000000000e-01
-2.000000000000000000e+00,-2.000000000000000000e+00,1.100000000000000000e+01,2.000000000000000000e+00,6.000000000000000000e+00,8.000000000000000000e+00,3.000000000000000000e+00,0.000000000000000000e+00,-5.136108398437500000e-01,7.159423828125000000e-02,7.385864257812500000e-01,4.306640625000000000e-01
0.000000000000000000e+00,-2.000000000000000000e+00,-1.800000000000000000e+01,-1.100000000000000000e+01,-2.000000000000000000e+00,-4.000000000000000000e+00,2.000000000000000000e+00,-2.000000000000000000e+00,-5.134277343750000000e-01,7.171630859375000000e-02,7.390747070312500000e-01,4.300537109375000000e-01
2.000000000000000000e+00,-1.000000000000000000e+00,7.000000000000000000e+00,-1.200000000000000000e+01,-6.000000000000000000e+00,-3.000000000000000000e+00,3.000000000000000000e+00,2.000000000000000000e+00,-5.134277343750000000e-01,7.171630859375000000e-02,7.390747070312500000e-01,4.300537109375000000e-01
3.000000000000000000e+00,4.000000000000000000e+00,0.000000000000000000e+00,4.400000000000000000e+01,9.000000000000000000e+00,1.000000000000000000e+00,-3.000000000000000000e+00,1.000000000000000000e+00,-5.134277343750000000e-01,7.171630859375000000e-02,7.390747070312500000e-01,4.300537109375000000e-01
1.000000000000000000e+00,4.000000000000000000e+00,0.000000000000000000e+00,-2.900000000000000000e+01,-1.000000000000000000e+00,-4.000000000000000000e+00,1.000000000000000000e+00,-1.000000000000000000e+00,-5.134277343750000000e-01,7.171630859375000000e-02,7.390747070312500000e-01,4.300537109375000000e-01
-2.000000000000000000e+00,-3.000000000000000000e+00,-1.000000000000000000e+01,0.000000000000000000e+00,-2.000000000000000000e+01,-4.000000000000000000e+00,-7.000000000000000000e+00,0.000000000000000000e+00,-5.128173828125000000e-01,7.226562500000000000e-02,7.396850585937500000e-01,4.296875000000000000e-01
-2.000000000000000000e+00,-2.000000000000000000e+00,1.600000000000000000e+01,-1.100000000000000000e+01,9.000000000000000000e+00,-5.000000000000000000e+00,0.000000000000000000e+00,-3.000000000000000000e+00,-5.128173828125000000e-01,7.226562500000000000e-02,7.396850585937500000e-01,4.296875000000000000e-01
1.000000000000000000e+00,0.000000000000000000e+00,-4.000000000000000000e+00,1.200000000000000000e+01,4.000000000000000000e+00,2.000000000000000000e+00,3.000000000000000000e+00,-1.000000000000000000e+00,-5.128173828125000000e-01,7.226562500000000000e-02,7.396850585937500000e-01,4.296875000000000000e-01
0.000000000000000000e+00,5.000000000000000000e+00,1.500000000000000000e+01,3.500000000000000000e+01,6.000000000000000000e+00,-3.000000000000000000e+00,-6.000000000000000000e+00,1.000000000000000000e+00,-5.128173828125000000e-01,7.226562500000000000e-02,7.396850585937500000e-01,4.296875000000000000e-01
0.000000000000000000e+00,-1.000000000000000000e+00,1.400000000000000000e+01,8.000000000000000000e+00,2.600000000000000000e+01,1.000000000000000000e+01,5.000000000000000000e+00,1.000000000000000000e+00,-5.124511718750000000e-01,7.232666015625000000e-02,7.402954101562500000e-01,4.290161132812500000e-01
-3.000000000000000000e+00,-5.000000000000000000e+00,-2.200000000000000000e+01,-2.700000000000000000e+01,-8.000000000000000000e+00,-8.000000000000000000e+00,-4.000000000000000000e+00,-2.000000000000000000e+00,-5.124511718750000000e-01,7.232666015625000000e-02,7.402954101562500000e-01,4.290161132812500000e-01
0.000000000000000000e+00,-2.000000000000000000e+00,-7.000000000000000000e+00,-4.000000000000000000e+00,-4.000000000000000000e+00,2.000000000000000000e+00,1.000000000000000000e+00,0.000000000000000000e+00,-5.124511718750000000e-01,7.232666015625000000e-02,7.402954101562500000e-01,4.290161132812500000e-01
0.000000000000000000e+00,-1.000000000000000000e+00,-5.000000000000000000e+00,1.800000000000000000e+01,0.000000000000000000e+00,0.000000000000000000e+00,-3.000000000000000000e+00,-2.000000000000000000e+00,-5.124511718750000000e-01,7.232666015625000000e-02,7.402954101562500000e-01,4.290161132812500000e-01
-1.000000000000000000e+00,-4.000000000000000000e+00,-1.500000000000000000e+01,-2.600000000000000000e+01,-9.000000000000000000e+00,1.000000000000000000e+00,2.000000000000000000e+00,0.000000000000000000e+00,-5.120239257812500000e-01,7.226562500000000000e-02,7.410278320312500000e-01,4.283447265625000000e-01
0.000000000000000000e+00,2.000000000000000000e+00,0.000000000000000000e+00,3.000000000000000000e+00,-3.000000000000000000e+00,-7.000000000000000000e+00,-9.000000000000000000e+00,-1.000000000000000000e+00,-5.120239257812500000e-01,7.226562500000000000e-02,7.410278320312500000e-01,4.283447265625000000e-01
-2.000000000000000000e+00,-6.000000000000000000e+00,-1.300000000000000000e+01,-2.600000000000000000e+01,-6.000000000000000000e+00,1.000000000000000000e+01,9.000000000000000000e+00,-2.000000000000000000e+00,-5.120239257812500000e-01,7.226562500000000000e-02,7.410278320312500000e-01,4.283447265625000000e-01
0.000000000000000000e+00,1.000000000000000000e+00,1.000000000000000000e+01,6.000000000000000000e+00,-2.000000000000000000e+00,-3.000000000000000000e+00,1.000000000000000000e+00,-3.000000000000000000e+00,-5.120239257812500000e-01,7.226562500000000000e-02,7.410278320312500000e-01,4.283447265625000000e-01
-2.000000000000000000e+00,0.000000000000000000e+00,4.000000000000000000e+00,1.300000000000000000e+01,3.000000000000000000e+00,1.000000000000000000e+00,5.000000000000000000e+00,-1.000000000000000000e+00,-5.117187500000000000e-01,7.220458984375000000e-02,7.415771484375000000e-01,4.276733398437500000e-01
-2.000000000000000000e+00,-3.000000000000000000e+00,1.000000000000000000e+00,-4.000000000000000000e+00,1.000000000000000000e+00,3.000000000000000000e+00,-1.000000000000000000e+00,-1.000000000000000000e+00,-5.117187500000000000e-01,7.220458984375000000e-02,7.415771484375000000e-01,4.276733398437500000e-01
-1.000000000000000000e+00,2.000000000000000000e+00,-7.000000000000000000e+00,4.000000000000000000e+00,0.000000000000000000e+00,-6.000000000000000000e+00,-4.000000000000000000e+00,-2.000000000000000000e+00,-5.113525390625000000e-01,7.263183593750000000e-02,7.418823242187500000e-01,4.275512695312500000e-01
1.000000000000000000e+00,2.000000000000000000e+00,1.000000000000000000e+00,1.500000000000000000e+01,2.000000000000000000e+00,2.000000000000000000e+00,0.000000000000000000e+00,-1.000000000000000000e+00,-5.113525390625000000e-01,7.263183593750000000e-02,7.418823242187500000e-01,4.275512695312500000e-01
1.000000000000000000e+00,2.000000000000000000e+00,-3.000000000000000000e+00,-2.800000000000000000e+01,-2.000000000000000000e+00,-2.000000000000000000e+00,-2.000000000000000000e+00,1.000000000000000000e+00,-5.113525390625000000e-01,7.263183593750000000e-02,7.418823242187500000e-01,4.275512695312500000e-01
-1.000000000000000000e+00,1.000000000000000000e+00,-2.000000000000000000e+00,-1.000000000000000000e+00,-2.000000000000000000e+00,-7.000000000000000000e+00,-9.000000000000000000e+00,-3.000000000000000000e+00,-5.113525390625000000e-01,7.263183593750000000e-02,7.418823242187500000e-01,4.275512695312500000e-01
0.000000000000000000e+00,2.000000000000000000e+00,0.000000000000000000e+00,2.000000000000000000e+00,1.000000000000000000e+00,2.000000000000000000e+00,1.000000000000000000e+00,0.000000000000000000e+00,-5.107421875000000000e-01,7.366943359375000000e-02,7.418823242187500000e-01,4.281005859375000000e-01
-3.000000000000000000e+00,-7.000000000000000000e+00,3.000000000000000000e+00,-7.000000000000000000e+00,0.000000000000000000e+00,2.000000000000000000e+00,2.000000000000000000e+00,-1.000000000000000000e+00,-5.107421875000000000e-01,7.366943359375000000e-02,7.418823242187500000e-01,4.281005859375000000e-01
0.000000000000000000e+00,2.000000000000000000e+00,-1.400000000000000000e+01,-2.000000000000000000e+00,1.000000000000000000e+00,-1.000000000000000000e+01,-9.000000000000000000e+00,0.000000000000000000e+00,-5.107421875000000000e-01,7.366943359375000000e-02,7.418823242187500000e-01,4.281005859375000000e-01
-2.000000000000000000e+00,-1.000000000000000000e+00,1.000000000000000000e+00,-1.000000000000000000e+01,-9.000000000000000000e+00,4.000000000000000000e+00,-1.000000000000000000e+00,-1.000000000000000000e+00,-5.107421875000000000e-01,7.366943359375000000e-02,7.418823242187500000e-01,4.281005859375000000e-01
-2.000000000000000000e+00,0.000000000000000000e+00,8.000000000000000000e+00,9.000000000000000000e+00,9.000000000000000000e+00,0.000000000000000000e+00,-7.000000000000000000e+00,-2.000000000000000000e+00,-5.098266601562500000e-01,7.507324218750000000e-02,7.419433593750000000e-01,4.288330078125000000e-01
-1.000000000000000000e+00,-4.000000000000000000e+00,-7.000000000000000000e+00,1.000000000000000000e+01,1.100000000000000000e+01,-3.000000000000000000e+00,3.000000000000000000e+00,0.000000000000000000e+00,-5.098266601562500000e-01,7.507324218750000000e-02,7.419433593750000000e-01,4.288330078125000000e-01
-3.000000000000000000e+00,-6.000000000000000000e+00,-1.300000000000000000e+01,-1.000000000000000000e+01,-8.000000000000000000e+00,0.000000000000000000e+00,-1.000000000000000000e+00,-2.000000000000000000e+00,-5.098266601562500000e-01,7.507324218750000000e-02,7.419433593750000000e-01,4.288330078125000000e-01
-1.000000000000000000e+00,-3.000000000000000000e+00,-5.000000000000000000e+00,0.000000000000000000e+00,-2.000000000000000000e+00,-5.000000000000000000e+00,4.000000000000000000e+00,-2.000000000000000000e+00,-5.098266601562500000e-01,7.507324218750000000e-02,7.419433593750000000e-01,4.288330078125000000e-01
-1.000000000000000000e+00,4.000000000000000000e+00,4.000000000000000000e+00,-6.000000000000000000e+00,-2.100000000000000000e+01,-7.000000000000000000e+00,-1.600000000000000000e+01,-2.000000000000000000e+00,-5.090942382812500000e-01,7.537841796875000000e-02,7.420654296875000000e-01,4.293823242187500000e-01
3.000000000000000000e+00,1.000000000000000000e+00,-2.000000000000000000e+00,-1.100000000000000000e+01,9.000000000000000000e+00,7.000000000000000000e+00,3.000000000000000000e+00,0.000000000000000000e+00,-5.090942382812500000e-01,7.537841796875000000e-02,7.420654296875000000e-01,4.293823242187500000e-01
-1.000000000000000000e+00,-3.000000000000000000e+00,1.300000000000000000e+01,1.800000000000000000e+01,-6.000000000000000000e+00,0.000000000000000000e+00,2.000000000000000000e+00,-1.000000000000000000e+00,-5.090942382812500000e-01,7.537841796875000000e-02,7.420654296875000000e-01,4.293823242187500000e-01
-1.000000000000000000e+00,4.000000000000000000e+00,4.300000000000000000e+01,1.100000000000000000e+01,7.000000000000000000e+00,-7.000000000000000000e+00,-1.100000000000000000e+01,0.000000000000000000e+00,-5.090942382812500000e-01,7.537841796875000000e-02,7.420654296875000000e-01,4.293823242187500000e-01
-3.000000000000000000e+00,-1.200000000000000000e+01,-6.400000000000000000e+01,-3.000000000000000000e+01,-5.000000000000000000e+00,8.000000000000000000e+00,2.100000000000000000e+01,-1.000000000000000000e+00,-5.088500976562500000e-01,7.446289062500000000e-02,7.420654296875000000e-01,4.298706054687500000e-01
-2.000000000000000000e+00,3.000000000000000000e+00,1.800000000000000000e+01,-8.000000000000000000e+00,-1.000000000000000000e+01,-1.100000000000000000e+01,-1.800000000000000000e+01,-5.000000000000000000e+00,-5.088500976562500000e-01,7.446289062500000000e-02,7.420654296875000000e-01,4.298706054687500000e-01
2.000000000000000000e+00,4.000000000000000000e+00,1.000000000000000000e+00,1.200000000000000000e+01,1.000000000000000000e+00,1.800000000000000000e+01,1.800000000000000000e+01,4.000000000000000000e+00,-5.088500976562500000e-01,7.446289062500000000e-02,7.420654296875000000e-01,4.298706054687500000e-01
-1.000000000000000000e+00,-3.000000000000000000e+00,-2.700000000000000000e+01,5.000000000000000000e+00,-1.100000000000000000e+01,-2.000000000000000000e+00,-5.000000000000000000e+00,-1.000000000000000000e+00,-5.088500976562500000e-01,7.446289062500000000e-02,7.420654296875000000e-01,4.298706054687500000e-01
0.000000000000000000e+00,0.000000000000000000e+00,1.900000000000000000e+01,-2.200000000000000000e+01,-3.000000000000000000e+00,-6.000000000000000000e+00,-4.000000000000000000e+00,-1.000000000000000000e+00,-5.088500976562500000e-01,7.318115234375000000e-02,7.415771484375000000e-01,4.309082031250000000e-01
-1.000000000000000000e+00,2.000000000000000000e+00,2.000000000000000000e+00,3.000000000000000000e+00,3.000000000000000000e+00,-4.000000000000000000e+00,2.000000000000000000e+00,0.000000000000000000e+00,-5.088500976562500000e-01,7.318115234375000000e-02,7.415771484375000000e-01,4.309082031250000000e-01
-1.000000000000000000e+00,0.000000000000000000e+00,1.000000000000000000e+00,7.000000000000000000e+00,1.000000000000000000e+00,-4.000000000000000000e+00,-2.000000000000000000e+00,-2.000000000000000000e+00,-5.088500976562500000e-01,7.318115234375000000e-02,7.415771484375000000e-01,4.309082031250000000e-01
1.000000000000000000e+00,1.000000000000000000e+00,8.000000000000000000e+00,9.000000000000000000e+00,-6.000000000000000000e+00,0.000000000000000000e+00,1.000000000000000000e+00,0.000000000000000000e+00,-5.088500976562500000e-01,7.318115234375000000e-02,7.415771484375000000e-01,4.309082031250000000e-01
2.000000000000000000e+00,1.000000000000000000e+00,2.400000000000000000e+01,1.700000000000000000e+01,-3.000000000000000000e+00,-3.000000000000000000e+00,-1.000000000000000000e+00,0.000000000000000000e+00,-5.081787109375000000e-01,7.336425781250000000e-02,7.409057617187500000e-01,4.328002929687500000e-01
-1.000000000000000000e+00,-6.000000000000000000e+00,-1.600000000000000000e+01,-3.000000000000000000e+00,8.000000000000000000e+00,8.000000000000000000e+00,-1.000000000000000000e+00,-2.000000000000000000e+00,-5.081787109375000000e-01,7.336425781250000000e-02,7.409057617187500000e-01,4.328002929687500000e-01
0.000000000000000000e+00,-5.000000000000000000e+00,1.500000000000000000e+01,2.900000000000000000e+01,3.000000000000000000e+00,2.000000000000000000e+00,-4.000000000000000000e+00,-1.000000000000000000e+00,-5.081787109375000000e-01,7.336425781250000000e-02,7.409057617187500000e-01,4.328002929687500000e-01
0.000000000000000000e+00,8.000000000000000000e+00,-8.000000000000000000e+00,-4.100000000000000000e+01,-1.200000000000000000e+01,-1.000000000000000000e+01,-3.000000000000000000e+00,-2.000000000000000000e+00,-5.081787109375000000e-01,7.336425781250000000e-02,7.409057617187500000e-01,4.328002929687500000e-01
-2.000000000000000000e+00,-3.000000000000000000e+00,5.000000000000000000e+00,-2.700000000000000000e+01,-3.000000000000000000e+00,3.000000000000000000e+00,0.000000000000000000e+00,-2.000000000000000000e+00,-5.074462890625000000e-01,7.464599609375000000e-02,7.402954101562500000e-01,4.345703125000000000e-01
0.000000000000000000e+00,1.000000000000000000e+00,-1.000000000000000000e+00,3.400000000000000000e+01,2.000000000000000000e+00,-2.000000000000000000e+00,3.000000000000000000e+00,2.000000000000000000e+00,-5.074462890625000000e-01,7.464599609375000000e-02,7.402954101562500000e-01,4.345703125000000000e-01
1.000000000000000000e+00,2.000000000000000000e+00,-1.000000000000000000e+01,-1.400000000000000000e+01,-8.000000000000000000e+00,1.000000000000000000e+00,1.000000000000000000e+00,-1.000000000000000000e+00,-5.074462890625000000e-01,7.464599609375000000e-02,7.402954101562500000e-01,4.345703125000000000e-01
1.000000000000000000e+00,-3.000000000000000000e+00,8.000000000000000000e+00,7.000000000000000000e+00,1.800000000000000000e+01,3.000000000000000000e+00,3.000000000000000000e+00,0.000000000000000000e+00,-5.074462890625000000e-01,7.464599609375000000e-02,7.402954101562500000e-01,4.345703125000000000e-01
-1.000000000000000000e+00,-2.000000000000000000e+00,-1.800000000000000000e+01,-6.000000000000000000e+00,-5.000000000000000000e+00,-1.100000000000000000e+01,-3.000000000000000000e+00,0.000000000000000000e+00,-5.074462890625000000e-01,7.513427734375000000e-02,7.398681640625000000e-01,4.352416992187500000e-01
-2.000000000000000000e+00,1.000000000000000000e+00,1.300000000000000000e+01,1.500000000000000000e+01,-5.000000000000000000e+00,1.000000000000000000e+00,-7.000000000000000000e+00,-2.000000000000000000e+00,-5.074462890625000000e-01,7.513427734375000000e-02,7.398681640625000000e-01,4.352416992187500000e-01
-2.000000000000000000e+00,-4.000000000000000000e+00,-1.900000000000000000e+01,1.500000000000000000e+01,5.000000000000000000e+00,6.000000000000000000e+00,3.000000000000000000e+00,0.000000000000000000e+00,-5.074462890625000000e-01,7.513427734375000000e-02,7.398681640625000000e-01,4.352416992187500000e-01
0.000000000000000000e+00,4.000000000000000000e+00,1.900000000000000000e+01,-3.000000000000000000e+01,-1.000000000000000000e+01,-1.000000000000000000e+00,1.000000000000000000e+00,-1.000000000000000000e+00,-5.074462890625000000e-01,7.513427734375000000e-02,7.398681640625000000e-01,4.352416992187500000e-01
-2.000000000000000000e+00,-4.000000000000000000e+00,-1.700000000000000000e+01,0.000000000000000000e+00,4.000000000000000000e+00,-3.000000000000000000e+00,9.000000000000000000e+00,0.000000000000000000e+00,-5.083618164062500000e-01,7.415771484375000000e-02,7.396850585937500000e-01,4.346313476562500000e-01
0.000000000000000000e+00,-4.000000000000000000e+00,-7.000000000000000000e+00,-1.300000000000000000e+01,-7.000000000000000000e+00,-6.000000000000000000e+00,-2.200000000000000000e+01,-1.000000000000000000e+00,-5.083618164062500000e-01,7.415771484375000000e-02,7.396850585937500000e-01,4.346313476562500000e-01
-1.000000000000000000e+00,0.000000000000000000e+00,2.000000000000000000e+00,4.400000000000000000e+01,1.000000000000000000e+01,8.000000000000000000e+00,7.000000000000000000e+00,-1.000000000000000000e+00,-5.083618164062500000e-01,7.415771484375000000e-02,7.396850585937500000e-01,4.346313476562500000e-01
1.000000000000000000e+00,3.000000000000000000e+00,2.200000000000000000e+01,-3.300000000000000000e+01,-3.000000000000000000e+00,3.000000000000000000e+00,0.000000000000000000e+00,1.000000000000000000e+00,-5.083618164062500000e-01,7.415771484375000000e-02,7.396850585937500000e-01,4.346313476562500000e-01
-2.000000000000000000e+00,-6.000000000000000000e+00,-1.400000000000000000e+01,2.400000000000000000e+01,1.400000000000000000e+01,6.000000000000000000e+00,-2.000000000000000000e+00,-2.000000000000000000e+00,-5.098266601562500000e-01,7.281494140625000000e-02,7.393188476562500000e-01,4.337768554687500000e-01
-1.000000000000000000e+00,3.000000000000000000e+00,2.000000000000000000e+00,-2.800000000000000000e+01,-1.500000000000000000e+01,-9.000000000000000000e+00,3.000000000000000000e+00,2.000000000000000000e+00,-5.098266601562500000e-01,7.281494140625000000e-02,7.393188476562500000e-01,4.337768554687500000e-01
-3.000000000000000000e+00,-4.000000000000000000e+00,0.000000000000000000e+00,-1.500000000000000000e+01,-8.000000000000000000e+00,-7.000000000000000000e+00,-7.000000000000000000e+00,-5.000000000000000000e+00,-5.098266601562500000e-01,7.281494140625000000e-02,7.393188476562500000e-01,4.337768554687500000e-01
-3.000000000000000000e+00,-5.000000000000000000e+00,-9.000000000000000000e+00,2.800000000000000000e+01,5.000000000000000000e+00,0.000000000000000000e+00,-3.000000000000000000e+00,-2.000000000000000000e+00,-5.098266601562500000e-01,7.281494140625000000e-02,7.393188476562500000e-01,4.337768554687500000e-01
1.000000000000000000e+00,5.000000000000000000e+00,2.500000000000000000e+01,2.500000000000000000e+01,7.000000000000000000e+00,3.000000000000000000e+00,6.000000000000000000e+00,-2.000000000000000000e+00,-5.109252929687500000e-01,7.220458984375000000e-02,7.388916015625000000e-01,4.332275390625000000e-01
-2.000000000000000000e+00,-8.000000000000000000e+00,-4.100000000000000000e+01,-3.100000000000000000e+01,1.000000000000000000e+00,-4.000000000000000000e+00,0.000000000000000000e+00,-2.000000000000000000e+00,-5.109252929687500000e-01,7.220458984375000000e-02,7.388916015625000000e-01,4.332275390625000000e-01
1.000000000000000000e+00,6.000000000000000000e+00,1.200000000000000000e+01,-1.200000000000000000e+01,-3.000000000000000000e+00,-6.000000000000000000e+00,-1.600000000000000000e+01,-1.000000000000000000e+00,-5.109252929687500000e-01,7.220458984375000000e-02,7.388916015625000000e-01,4.332275390625000000e-01
-3.000000000000000000e+00,-3.000000000000000000e+00,-9.000000000000000000e+00,1.500000000000000000e+01,4.000000000000000000e+00,2.000000000000000000e+00,7.000000000000000000e+00,-3.000000000000000000e+00,-5.109252929687500000e-01,7.220458984375000000e-02,7.388916015625000000e-01,4.332275390625000000e-01
-1.000000000000000000e+00,2.000000000000000000e+00,-1.000000000000000000e+00,1.100000000000000000e+01,-8.000000000000000000e+00,-5.000000000000000000e+00,3.000000000000000000e+00,1.000000000000000000e+00,-5.114746093750000000e-01,7.263183593750000000e-02,7.386474609375000000e-01,4.329833984375000000e-01
1.000000000000000000e+00,0.000000000000000000e+00,5.000000000000000000e+00,-8.000000000000000000e+00,-2.000000000000000000e+00,5.000000000000000000e+00,0.000000000000000000e+00,0.000000000000000000e+00,-5.114746093750000000e-01,7.263183593750000000e-02,7.386474609375000000e-01,4.329833984375000000e-01
-3.000000000000000000e+00,-2.000000000000000000e+00,5.000000000000000000e+00,2.000000000000000000e+00,-3.000000000000000000e+00,-1.000000000000000000e+01,-1.000000000000000000e+00,-2.000000000000000000e+00,-5.114746093750000000e-01,7.263183593750000000e-02,7.386474609375000000e-01,4.329833984375000000e-01
-1.000000000000000000e+00,-5.000000000000000000e+00,-2.400000000000000000e+01,-3.000000000000000000e+00,2.000000000000000000e+00,1.000000000000000000e+00,-1.000000000000000000e+00,-1.000000000000000000e+00,-5.114746093750000000e-01,7.263183593750000000e-02,7.386474609375000000e-01,4.329833984375000000e-01
3.000000000000000000e+00,4.000000000000000000e+00,2.000000000000000000e+00,-5.000000000000000000e+00,6.000000000000000000e+00,5.000000000000000000e+00,-9.000000000000000000e+00,1.000000000000000000e+00,-5.118408203125000000e-01,7.348632812500000000e-02,7.386474609375000000e-01,4.324340820312500000e-01
1.000000000000000000e+00,3.000000000000000000e+00,2.500000000000000000e+01,-7.000000000000000000e+00,0.000000000000000000e+00,1.000000000000000000e+01,1.900000000000000000e+01,3.000000000000000000e+00,-5.118408203125000000e-01,7.348632812500000000e-02,7.386474609375000000e-01,4.324340820312500000e-01
-2.000000000000000000e+00,-3.000000000000000000e+00,-4.000000000000000000e+00,-2.200000000000000000e+01,-9.000000000000000000e+00,-8.000000000000000000e+00,-6.000000000000000000e+00,-1.000000000000000000e+00,-5.118408203125000000e-01,7.348632812500000000e-02,7.386474609375000000e-01,4.324340820312500000e-01
-2.000000000000000000e+00,-2.000000000000000000e+00,-1.600000000000000000e+01,2.000000000000000000e+01,-6.000000000000000000e+00,-3.000000000000000000e+00,-4.000000000000000000e+00,-1.000000000000000000e+00,-5.118408203125000000e-01,7.348632812500000000e-02,7.386474609375000000e-01,4.324340820312500000e-01
0.000000000000000000e+00,-1.000000000000000000e+00,6.000000000000000000e+00,-5.000000000000000000e+00,-1.000000000000000000e+01,-2.000000000000000000e+00,1.000000000000000000e+00,-1.000000000000000000e+00,-5.124511718750000000e-01,7.403564453125000000e-02,7.389526367187500000e-01,4.311523437500000000e-01
-2.000000000000000000e+00,-1.000000000000000000e+00,0.000000000000000000e+00,1.000000000000000000e+01,1.000000000000000000e+00,-4.000000000000000000e+00,-5.000000000000000000e+00,-3.000000000000000000e+00,-5.124511718750000000e-01,7.403564453125000000e-02,7.389526367187500000e-01,4.311523437500000000e-01
-1.000000000000000000e+00,2.000000000000000000e+00,2.500000000000000000e+01,1.500000000000000000e+01,4.000000000000000000e+00,0.000000000000000000e+00,-2.000000000000000000e+00,-1.000000000000000000e+00,-5.124511718750000000e-01,7.403564453125000000e-02,7.389526367187500000e-01,4.311523437500000000e-01
0.000000000000000000e+00,-5.000000000000000000e+00,-4.700000000000000000e+01,-3.500000000000000000e+01,-3.000000000000000000e+00,-2.000000000000000000e+00,0.000000000000000000e+00,-1.000000000000000000e+00,-5.124511718750000000e-01,7.403564453125000000e-02,7.389526367187500000e-01,4.311523437500000000e-01
-4.000000000000000000e+00,-1.000000000000000000e+00,2.000000000000000000e+01,1.000000000000000000e+00,1.000000000000000000e+00,2.000000000000000000e+00,1.000000000000000000e+00,-2.000000000000000000e+00,-5.125732421875000000e-01,7.434082031250000000e-02,7.395019531250000000e-01,4.299316406250000000e-01
-1.000000000000000000e+00,0.000000000000000000e+00,-1.300000000000000000e+01,-5.000000000000000000e+00,-6.000000000000000000e+00,-9.000000000000000000e+00,-6.000000000000000000e+00,-1.000000000000000000e+00,-5.125732421875000000e-01,7.434082031250000000e-02,7.395019531250000000e-01,4.299316406250000000e-01
-3.000000000000000000e+00,-4.000000000000000000e+00,0.000000000000000000e+00,2.000000000000000000e+00,-8.000000000000000000e+00,1.000000000000000000e+00,3.000000000000000000e+00,-3.000000000000000000e+00,-5.125732421875000000e-01,7.434082031250000000e-02,7.395019531250000000e-01,4.299316406250000000e-01
0.000000000000000000e+00,0.000000000000000000e+00,1.400000000000000000e+01,-1.100000000000000000e+01,1.000000000000000000e+00,4.000000000000000000e+00,-5.000000000000000000e+00,0.000000000000000000e+00,-5.125732421875000000e-01,7.434082031250000000e-02,7.395019531250000000e-01,4.299316406250000000e-01
0.000000000000000000e+00,-2.000000000000000000e+00,-7.000000000000000000e+00,-4.000000000000000000e+00,-4.000000000000000000e+00,-5.000000000000000000e+00,-6.000000000000000000e+00,-3.000000000000000000e+00,-5.123901367187500000e-01,7.495117187500000000e-02,7.401733398437500000e-01,4.288940429687500000e-01
-1.000000000000000000e+00,0.000000000000000000e+00,9.000000000000000000e+00,3.100000000000000000e+01,8.000000000000000000e+00,8.000000000000000000e+00,1.000000000000000000e+00,0.000000000000000000e+00,-5.123901367187500000e-01,7.495117187500000000e-02,7.401733398437500000e-01,4.288940429687500000e-01
-1.000000000000000000e+00,-1.000000000000000000e+00,-1.300000000000000000e+01,-3.900000000000000000e+01,-1.000000000000000000e+00,-7.000000000000000000e+00,1.200000000000000000e+01,2.000000000000000000e+00,-5.123901367187500000e-01,7.495117187500000000e-02,7.401733398437500000e-01,4.288940429687500000e-01
0.000000000000000000e+00,-3.000000000000000000e+00,1.100000000000000000e+01,1.100000000000000000e+01,-4.000000000000000000e+00,-4.000000000000000000e+00,-1.200000000000000000e+01,-4.000000000000000000e+00,-5.123901367187500000e-01,7.495117187500000000e-02,7.401733398437500000e-01,4.288940429687500000e-01
-1.000000000000000000e+00,-3.000000000000000000e+00,-2.400000000000000000e+01,-1.800000000000000000e+01,-2.000000000000000000e+00,1.200000000000000000e+01,6.000000000000000000e+00,0.000000000000000000e+00,-5.119018554687500000e-01,7.647705078125000000e-02,7.408447265625000000e-01,4.279785156250000000e-01
-3.000000000000000000e+00,-4.000000000000000000e+00,-6.000000000000000000e+00,1.800000000000000000e+01,-1.000000000000000000e+00,-6.000000000000000000e+00,3.000000000000000000e+00,-2.000000000000000000e+00,-5.119018554687500000e-01,7.647705078125000000e-02,7.408447265625000000e-01,4.279785156250000000e-01
2.000000000000000000e+00,1.000000000000000000e+00,-1.200000000000000000e+01,-7.000000000000000000e+00,1.000000000000000000e+00,7.000000000000000000e+00,-8.000000000000000000e+00,-1.000000000000000000e+00,-5.119018554687500000e-01,7.647705078125000000e-02,7.408447265625000000e-01,4.279785156250000000e-01
-1.000000000000000000e+00,-2.000000000000000000e+00,1.300000000000000000e+01,-8.000000000000000000e+00,-1.000000000000000000e+01,-1.100000000000000000e+01,-4.000000000000000000e+00,-3.000000000000000000e+00,-5.119018554687500000e-01,7.647705078125000000e-02,7.408447265625000000e-01,4.279785156250000000e-01
1.000000000000000000e+00,0.000000000000000000e+00,0.000000000000000000e+00,-1.300000000000000000e+01,-7.000000000000000000e+00,2.000000000000000000e+00,7.000000000000000000e+00,1.000000000000000000e+00,-5.112304687500000000e-01,7.794189453125000000e-02,7.416992187500000000e-01,4.271240234375000000e-01
0.000000000000000000e+00,-1.000000000000000000e+00,1.200000000000000000e+01,5.300000000000000000e+01,2.200000000000000000e+01,5.000000000000000000e+00,3.000000000000000000e+00,-1.000000000000000000e+00,-5.112304687500000000e-01,7.794189453125000000e-02,7.416992187500000000e-01,4.271240234375000000e-01
-2.000000000000000000e+00,1.000000000000000000e+00,-1.200000000000000000e+01,-1.800000000000000000e+01,-1.000000000000000000e+00,-3.000000000000000000e+00,-1.000000000000000000e+00,0.000000000000000000e+00,-5.112304687500000000e-01,7.794189453125000000e-02,7.416992187500000000e-01,4.271240234375000000e-01
-1.000000000000000000e+00,-2.000000000000000000e+00,1.000000000000000000e+00,-3.900000000000000000e+01,-5.000000000000000000e+00,-1.000000000000000000e+00,0.000000000000000000e+00,-1.000000000000000000e+00,-5.112304687500000000e-01,7.794189453125000000e-02,7.416992187500000000e-01,4.271240234375000000e-01
-3.000000000000000000e+00,-1.000000000000000000e+00,8.000000000000000000e+00,4.000000000000000000e+00,-1.000000000000000000e+01,-1.100000000000000000e+01,-1.600000000000000000e+01,-3.000000000000000000e+00,-5.104370117187500000e-01,7.940673828125000000e-02,7.423706054687500000e-01,4.265747070312500000e-01
-1.000000000000000000e+00,-1.000000000000000000e+00,0.000000000000000000e+00,-1.300000000000000000e+01,-5.000000000000000000e+00,2.000000000000000000e+00,4.000000000000000000e+00,0.000000000000000000e+00,-5.104370117187500000e-01,7.940673828125000000e-02,7.423706054687500000e-01,4.265747070312500000e-01
2.000000000000000000e+00,0.000000000000000000e+00,-1.000000000000000000e+00,1.100000000000000000e+01,6.000000000000000000e+00,0.000000000000000000e+00,-1.000000000000000000e+00,-1.000000000000000000e+00,-5.104370117187500000e-01,7.940673828125000000e-02,7.423706054687500000e-01,4.265747070312500000e-01
-3.000000000000000000e+00,-2.000000000000000000e+00,5.000000000000000000e+00,9.000000000000000000e+00,1.000000000000000000e+00,1.000000000000000000e+00,-4.000000000000000000e+00,-2.000000000000000000e+00,-5.104370117187500000e-01,7.940673828125000000e-02,7.423706054687500000e-01,4.265747070312500000e-01
-2.000000000000000000e+00,-3.000000000000000000e+00,6.000000000000000000e+00,-1.000000000000000000e+00,-9.000000000000000000e+00,-6.000000000000000000e+00,-1.000000000000000000e+00,0.000000000000000000e+00,-5.097656250000000000e-01,8.081054687500000000e-02,7.429809570312500000e-01,4.260864257812500000e-01
-1.000000000000000000e+00,5.000000000000000000e+00,4.000000000000000000e+00,3.000000000000000000e+00,8.000000000000000000e+00,1.000000000000000000e+00,0.000000000000000000e+00,0.000000000000000000e+00,-5.097656250000000000e-01,8.081054687500000000e-02,7.429809570312500000e-01,4.260864257812500000e-01
-2.000000000000000000e+00,-4.000000000000000000e+00,-6.000000000000000000e+00,-1.300000000000000000e+01,1.000000000000000000e+00,0.000000000000000000e+00,-2.000000000000000000e+00,0.000000000000000000e+00,-5.097656250000000000e-01,8.081054687500000000e-02,7.429809570312500000e-01,4.260864257812500000e-01
0.000000000000000000e+00,-3.000000000000000000e+00,-7.000000000000000000e+00,1.800000000000000000e+01,7.000000000000000000e+00,2.000000000000000000e+00,1.400000000000000000e+01,1.000000000000000000e+00,-5.097656250000000000e-01,8.081054687500000000e-02,7.429809570312500000e-01,4.260864257812500000e-01
-1.000000000000000000e+00,-1.000000000000000000e+00,-2.000000000000000000e+00,-7.000000000000000000e+00,2.000000000000000000e+00,4.000000000000000000e+00,2.000000000000000000e+00,0.000000000000000000e+00,-5.093383789062500000e-01,8.197021484375000000e-02,7.434082031250000000e-01,4.255981445312500000e-01
-2.000000000000000000e+00,0.000000000000000000e+00,1.100000000000000000e+01,-4.000000000000000000e+00,-1.300000000000000000e+01,-3.000000000000000000e+00,-3.000000000000000000e+00,-1.000000000000000000e+00,-5.093383789062500000e-01,8.197021484375000000e-02,7.434082031250000000e-01,4.255981445312500000e-01
-1.000000000000000000e+00,1.000000000000000000e+00,7.000000000000000000e+00,-6.000000000000000000e+00,-6.000000000000000000e+00,3.000000000000000000e+00,0.000000000000000000e+00,-2.000000000000000000e+00,-5.093383789062500000e-01,8.197021484375000000e-02,7.434082031250000000e-01,4.255981445312500000e-01
1.000000000000000000e+00,0.000000000000000000e+00,-1.000000000000000000e+00,1.900000000000000000e+01,-4.000000000000000000e+00,-7.000000000000000000e+00,-1.000000000000000000e+01,-3.000000000000000000e+00,-5.093383789062500000e-01,8.197021484375000000e-02,7.434082031250000000e-01,4.255981445312500000e-01
0.000000000000000000e+00,-3.000000000000000000e+00,0.000000000000000000e+00,2.000000000000000000e+01,3.400000000000000000e+01,8.000000000000000000e+00,1.100000000000000000e+01,3.000000000000000000e+00,-5.089111328125000000e-01,8.294677734375000000e-02,7.438964843750000000e-01,4.250488281250000000e-01
0.000000000000000000e+00,2.000000000000000000e+00,-1.000000000000000000e+01,-3.700000000000000000e+01,-1.000000000000000000e+01,-5.000000000000000000e+00,-1.500000000000000000e+01,-3.000000000000000000e+00,-5.089111328125000000e-01,8.294677734375000000e-02,7.438964843750000000e-01,4.250488281250000000e-01
-1.000000000000000000e+00,1.000000000000000000e+00,-4.000000000000000000e+00,-7.000000000000000000e+00,1.000000000000000000e+00,-1.000000000000000000e+00,-2.000000000000000000e+00,-2.000000000000000000e+00,-5.089111328125000000e-01,8.294677734375000000e-02,7.438964843750000000e-01,4.250488281250000000e-01
-3.000000000000000000e+00,-2.000000000000000000e+00,7.000000000000000000e+00,1.300000000000000000e+01,-8.000000000000000000e+00,-6.000000000000000000e+00,-4.000000000000000000e+00,-1.000000000000000000e+00,-5.089111328125000000e-01,8.294677734375000000e-02,7.438964843750000000e-01,4.250488281250000000e-01
-1.000000000000000000e+00,2.000000000000000000e+00,6.000000000000000000e+00,8.000000000000000000e+00,-4.000000000000000000e+00,-5.000000000000000000e+00,-4.000000000000000000e+00,-2.000000000000000000e+00,-5.090942382812500000e-01,8.343505859375000000e-02,7.440795898437500000e-01,4.244384765625000000e-01
-3.000000000000000000e+00,-6.000000000000000000e+00,-7.000000000000000000e+00,7.000000000000000000e+00,-2.000000000000000000e+00,-1.000000000000000000e+00,2.000000000000000000e+00,1.000000000000000000e+00,-5.090942382812500000e-01,8.343505859375000000e-02,7.440795898437500000e-01,4.244384765625000000e-01
-1.000000000000000000e+00,-4.000000000000000000e+00,-2.000000000000000000e+00,-7.000000000000000000e+00,1.000000000000000000e+00,1.000000000000000000e+01,9.000000000000000000e+00,-1.000000000000000000e+00,-5.090942382812500000e-01,8.343505859375000000e-02,7.440795898437500000e-01,4.244384765625000000e-01
1.000000000000000000e+00,7.000000000000000000e+00,1.300000000000000000e+01,5.000000000000000000e+00,8.000000000000000000e+00,5.000000000000000000e+00,-5.000000000000000000e+00,-2.000000000000000000e+00,-5.090942382812500000e-01,8.343505859375000000e-02,7.440795898437500000e-01,4.244384765625000000e-01
-3.000000000000000000e+00,-5.000000000000000000e+00,-1.300000000000000000e+01,-5.000000000000000000e+00,-2.000000000000000000e+00,-4.000000000000000000e+00,-1.000000000000000000e+00,-4.000000000000000000e+00,-5.092773437500000000e-01,8.374023437500000000e-02,7.441406250000000000e-01,4.240112304687500000e-01
3.000000000000000000e+00,1.000000000000000000e+00,-5.000000000000000000e+00,-7.000000000000000000e+00,-2.000000000000000000e+00,-3.000000000000000000e+00,6.000000000000000000e+00,0.000000000000000000e+00,-5.092773437500000000e-01,8.374023437500000000e-02,7.441406250000000000e-01,4.240112304687500000e-01
-4.000000000000000000e+00,-9.000000000000000000e+00,-5.000000000000000000e+00,1.400000000000000000e+01,-5.000000000000000000e+00,-6.000000000000000000e+00,0.000000000000000000e+00,-1.000000000000000000e+00,-5.092773437500000000e-01,8.374023437500000000e-02,7.441406250000000000e-01,4.240112304687500000e-01
1.000000000000000000e+00,-1.000000000000000000e+00,1.100000000000000000e+01,-3.700000000000000000e+01,-2.000000000000000000e+00,1.000000000000000000e+00,-1.000000000000000000e+00,2.000000000000000000e+00,-5.092773437500000000e-01,8.374023437500000000e-02,7.441406250000000000e-01,4.240112304687500000e-01
0.000000000000000000e+00,3.000000000000000000e+00,1.900000000000000000e+01,-1.000000000000000000e+00,3.000000000000000000e+00,-8.000000000000000000e+00,-1.100000000000000000e+01,-1.000000000000000000e+00,-5.093383789062500000e-01,8.447265625000000000e-02,7.439575195312500000e-01,4.241333007812500000e-01
-8.000000000000000000e+00,-3.000000000000000000e+00,-1.100000000000000000e+01,-1.900000000000000000e+01,-1.800000000000000000e+01,4.000000000000000000e+00,3.000000000000000000e+00,-3.000000000000000000e+00,-5.093383789062500000e-01,8.447265625000000000e-02,7.439575195312500000e-01,4.241333007812500000e-01
-5.000000000000000000e+00,0.000000000000000000e+00,-4.000000000000000000e+00,2.700000000000000000e+01,2.400000000000000000e+01,0.000000000000000000e+00,6.000000000000000000e+00,2.000000000000000000e+00,-5.093383789062500000e-01,8.447265625000000000e-02,7.439575195312500000e-01,4.241333007812500000e-01
-2.000000000000000000e+00,-4.000000000000000000e+00,-8.000000000000000000e+00,1.000000000000000000e+01,-1.000000000000000000e+00,4.000000000000000000e+00,-8.000000000000000000e+00,-1.000000000000000000e+00,-5.093383789062500000e-01,8.447265625000000000e-02,7.439575195312500000e-01,4.241333007812500000e-01
0.000000000000000000e+00,-1.000000000000000000e+00,6.000000000000000000e+00,-1.000000000000000000e+00,8.000000000000000000e+00,5.000000000000000000e+00,7.000000000000000000e+00,1.000000000000000000e+00,-5.090942382812500000e-01,8.551025390625000000e-02,7.438354492187500000e-01,4.244384765625000000e-01
3.000000000000000000e+00,-5.000000000000000000e+00,-8.000000000000000000e+00,-6.000000000000000000e+00,-4.000000000000000000e+00,-6.000000000000000000e+00,-7.000000000000000000e+00,-3.000000000000000000e+00,-5.090942382812500000e-01,8.551025390625000000e-02,7.438354492187500000e-01,4.244384765625000000e-01
3.000000000000000000e+00,0.000000000000000000e+00,-5.000000000000000000e+00,-1.200000000000000000e+01,-1.400000000000000000e+01,-1.000000000000000000e+00,4.000000000000000000e+00,0.000000000000000000e+00,-5.090942382812500000e-01,8.551025390625000000e-02,7.438354492187500000e-01,4.244384765625000000e-01
2.000000000000000000e+00,2.000000000000000000e+00,2.700000000000000000e+01,2.900000000000000000e+01,1.000000000000000000e+00,0.000000000000000000e+00,4.000000000000000000e+00,3.000000000000000000e+00,-5.090942382812500000e-01,8.551025390625000000e-02,7.438354492187500000e-01,4.244384765625000000e-01
-3.000000000000000000e+00,-6.000000000000000000e+00,-4.000000000000000000e+01,-3.300000000000000000e+01,-1.800000000000000000e+01,-8.000000000000000000e+00,-1.400000000000000000e+01,-6.000000000000000000e+00,-5.095825195312500000e-01,8.544921875000000000e-02,7.437744140625000000e-01,4.240112304687500000e-01
0.000000000000000000e+00,0.000000000000000000e+00,5.000000000000000000e+00,1.400000000000000000e+01,2.000000000000000000e+00,2.000000000000000000e+00,1.000000000000000000e+01,2.000000000000000000e+00,-5.095825195312500000e-01,8.544921875000000000e-02,7.437744140625000000e-01,4.240112304687500000e-01
1.000000000000000000e+00,1.000000000000000000e+00,-2.000000000000000000e+00,-4.000000000000000000e+00,4.000000000000000000e+00,-4.000000000000000000e+00,-9.000000000000000000e+00,0.000000000000000000e+00,-5.095825195312500000e-01,8.544921875000000000e-02,7.437744140625000000e-01,4.240112304687500000e-01
0.000000000000000000e+00,-1.000000000000000000e+00,2.200000000000000000e+01,2.000000000000000000e+01,6.000000000000000000e+00,4.000000000000000000e+00,5.000000000000000000e+00,0.000000000000000000e+00,-5.095825195312500000e-01,8.544921875000000000e-02,7.437744140625000000e-01,4.240112304687500000e-01
1.000000000000000000e+00,3.000000000000000000e+00,-2.700000000000000000e+01,-8.000000000000000000e+00,-8.000000000000000000e+00,0.000000000000000000e+00,0.000000000000000000e+00,-1.000000000000000000e+00,-5.101318359375000000e-01,8.514404296875000000e-02,7.435913085937500000e-01,4.237670898437500000e-01
-2.000000000000000000e+00,-7.000000000000000000e+00,-7.000000000000000000e+00,-1.600000000000000000e+01,-7.000000000000000000e+00,-1.000000000000000000e+00,-2.000000000000000000e+00,-3.000000000000000000e+00,-5.101318359375000000e-01,8.514404296875000000e-02,7.435913085937500000e-01,4.237670898437500000e-01
0.000000000000000000e+00,2.000000000000000000e+00,3.000000000000000000e+00,-1.700000000000000000e+01,5.000000000000000000e+00,-4.000000000000000000e+00,-1.100000000000000000e+01,-2.000000000000000000e+00,-5.101318359375000000e-01,8.514404296875000000e-02,7.435913085937500000e-01,4.237670898437500000e-01
-1.000000000000000000e+00,1.000000000000000000e+00,-8.000000000000000000e+00,1.400000000000000000e+01,-3.000000000000000000e+00,1.000000000000000000e+00,6.000000000000000000e+00,1.000000000000000000e+00,-5.101318359375000000e-01,8.514404296875000000e-02,7.435913085937500000e-01,4.237670898437500000e-01
-2.000000000000000000e+00,-1.000000000000000000e+00,1.500000000000000000e+01,-2.000000000000000000e+00,-6.000000000000000000e+00,-7.000000000000000000e+00,-7.000000000000000000e+00,0.000000000000000000e+00,-5.104980468750000000e-01,8.508300781250000000e-02,7.432861328125000000e-01,4.237670898437500000e-01
-1.000000000000000000e+00,-1.000000000000000000e+00,1.000000000000000000e+01,-1.000000000000000000e+00,-7.000000000000000000e+00,-9.000000000000000000e+00,-1.400000000000000000e+01,-2.000000000000000000e+00,-5.104980468750000000e-01,8.508300781250000000e-02,7.432861328125000000e-01,4.237670898437500000e-01
2.000000000000000000e+00,-1.000000000000000000e+00,7.000000000000000000e+00,5.000000000000000000e+00,2.000000000000000000e+00,1.100000000000000000e+01,1.100000000000000000e+01,1.000000000000000000e+00,-5.104980468750000000e-01,8.508300781250000000e-02,7.432861328125000000e-01,4.237670898437500000e-01
-2.000000000000000000e+00,-6.000000000000000000e+00,-1.600000000000000000e+01,-1.100000000000000000e+01,-4.000000000000000000e+00,1.000000000000000000e+00,2.000000000000000000e+00,-3.000000000000000000e+00,-5.104980468750000000e-01,8.508300781250000000e-02,7.432861328125000000e-01,4.237670898437500000e-01
0.000000000000000000e+00,2.000000000000000000e+00,9.000000000000000000e+00,1.900000000000000000e+01,1.000000000000000000e+01,4.000000000000000000e+00,8.000000000000000000e+00,0.000000000000000000e+00,-5.108032226562500000e-01,8.508300781250000000e-02,7.431030273437500000e-01,4.237670898437500000e-01
-1.000000000000000000e+00,-2.000000000000000000e+00,1.500000000000000000e+01,-1.000000000000000000e+00,2.000000000000000000e+00,-1.000000000000000000e+00,-2.000000000000000000e+00,-3.000000000000000000e+00,-5.108032226562500000e-01,8.508300781250000000e-02,7.431030273437500000e-01,4.237670898437500000e-01
