5.000000000000000000e+00,9.000000000000000000e+00,1.800000000000000000e+01,1.600000000000000000e+01,8.000000000000000000e+00,1.200000000000000000e+01,4.600000000000000000e+01,1.000000000000000000e+00,4.287719726562500000e-01,1.727905273437500000e-01,-8.865966796875000000e-01,-1.776123046875000000e-02
2.000000000000000000e+00,0.000000000000000000e+00,1.300000000000000000e+01,4.000000000000000000e+00,-6.000000000000000000e+00,-3.000000000000000000e+00,4.000000000000000000e+00,0.000000000000000000e+00,4.287719726562500000e-01,1.727905273437500000e-01,-8.865966796875000000e-01,-1.776123046875000000e-02
-5.000000000000000000e+00,-7.000000000000000000e+00,-7.000000000000000000e+01,-1.500000000000000000e+01,-3.000000000000000000e+00,-5.000000000000000000e+00,-8.000000000000000000e+00,-4.000000000000000000e+00,4.287719726562500000e-01,1.727905273437500000e-01,-8.865966796875000000e-01,-1.776123046875000000e-02
-3.000000000000000000e+00,-6.000000000000000000e+00,-6.000000000000000000e+00,-2.400000000000000000e+01,-1.200000000000000000e+01,-2.000000000000000000e+00,0.000000000000000000e+00,3.000000000000000000e+00,4.287719726562500000e-01,1.727905273437500000e-01,-8.865966796875000000e-01,-1.776123046875000000e-02
2.000000000000000000e+00,2.000000000000000000e+00,2.900000000000000000e+01,1.700000000000000000e+01,0.000000000000000000e+00,-3.000000000000000000e+00,-1.100000000000000000e+01,1.000000000000000000e+00,4.292602539062500000e-01,1.721191406250000000e-01,-8.864135742187500000e-01,-1.812744140625000000e-02
-4.000000000000000000e+00,-9.000000000000000000e+00,-2.100000000000000000e+01,-1.100000000000000000e+01,-3.000000000000000000e+00,-1.000000000000000000e+00,1.200000000000000000e+01,-4.000000000000000000e+00,4.292602539062500000e-01,1.721191406250000000e-01,-8.864135742187500000e-01,-1.812744140625000000e-02
6.000000000000000000e+00,1.600000000000000000e+01,-4.000000000000000000e+00,-1.000000000000000000e+01,9.000000000000000000e+00,7.000000000000000000e+00,-4.000000000000000000e+00,2.000000000000000000e+00,4.292602539062500000e-01,1.721191406250000000e-01,-8.864135742187500000e-01,-1.812744140625000000e-02
-9.000000000000000000e+00,-1.600000000000000000e+01,5.900000000000000000e+01,2.600000000000000000e+01,-1.400000000000000000e+01,-1.300000000000000000e+01,-4.000000000000000000e+00,-8.000000000000000000e+00,4.292602539062500000e-01,1.721191406250000000e-01,-8.864135742187500000e-01,-1.812744140625000000e-02
-4.000000000000000000e+00,-6.000000000000000000e+00,-7.300000000000000000e+01,-2.600000000000000000e+01,0.000000000000000000e+00,-3.000000000000000000e+00,-1.000000000000000000e+01,-2.000000000000000000e+00,4.296264648437500000e-01,1.725463867187500000e-01,-8.861694335937500000e-01,-1.782226562500000000e-02
1.000000000000000000e+00,4.000000000000000000e+00,9.000000000000000000e+00,3.000000000000000000e+00,3.000000000000000000e+00,0.000000000000000000e+00,5.000000000000000000e+00,1.000000000000000000e+00,4.296264648437500000e-01,1.725463867187500000e-01,-8.861694335937500000e-01,-1.782226562500000000e-02
-2.000000000000000000e+00,4.000000000000000000e+00,4.600000000000000000e+01,1.700000000000000000e+01,1.000000000000000000e+00,1.000000000000000000e+00,-1.000000000000000000e+01,0.000000000000000000e+00,4.296264648437500000e-01,1.725463867187500000e-01,-8.861694335937500000e-01,-1.782226562500000000e-02
5.000000000000000000e+00,8.000000000000000000e+00,-4.800000000000000000e+01,-1.800000000000000000e+01,-5.000000000000000000e+00,2.000000000000000000e+00,1.400000000000000000e+01,3.000000000000000000e+00,4.296264648437500000e-01,1.725463867187500000e-01,-8.861694335937500000e-01,-1.782226562500000000e-02
-2.000000000000000000e+00,-5.000000000000000000e+00,8.100000000000000000e+01,2.100000000000000000e+01,-3.000000000000000000e+00,-3.000000000000000000e+00,-5.000000000000000000e+00,-3.000000000000000000e+00,4.295043945312500000e-01,1.735229492187500000e-01,-8.860473632812500000e-01,-1.763916015625000000e-02
-1.000000000000000000e+01,-1.700000000000000000e+01,-7.600000000000000000e+01,-7.000000000000000000e+00,-1.000000000000000000e+00,-4.000000000000000000e+00,-1.400000000000000000e+01,-8.000000000000000000e+00,4.295043945312500000e-01,1.735229492187500000e-01,-8.860473632812500000e-01,-1.763916015625000000e-02
5.000000000000000000e+00,2.000000000000000000e+00,9.000000000000000000e+00,2.000000000000000000e+00,7.000000000000000000e+00,4.000000000000000000e+00,4.000000000000000000e+00,2.000000000000000000e+00,4.295043945312500000e-01,1.735229492187500000e-01,-8.860473632812500000e-01,-1.763916015625000000e-02
3.000000000000000000e+00,1.000000000000000000e+00,1.100000000000000000e+01,-4.000000000000000000e+00,3.000000000000000000e+00,3.000000000000000000e+00,-5.000000000000000000e+00,1.000000000000000000e+00,4.295043945312500000e-01,1.735229492187500000e-01,-8.860473632812500000e-01,-1.763916015625000000e-02
3.000000000000000000e+00,3.000000000000000000e+00,-8.000000000000000000e+00,3.000000000000000000e+00,-4.000000000000000000e+00,-4.000000000000000000e+00,3.000000000000000000e+00,3.000000000000000000e+00,4.292602539062500000e-01,1.737670898437500000e-01,-8.861083984375000000e-01,-1.818847656250000000e-02
2.000000000000000000e+00,1.000000000000000000e+00,1.500000000000000000e+01,9.000000000000000000e+00,8.000000000000000000e+00,3.000000000000000000e+00,-1.300000000000000000e+01,-1.000000000000000000e+00,4.292602539062500000e-01,1.737670898437500000e-01,-8.861083984375000000e-01,-1.818847656250000000e-02
-3.000000000000000000e+00,-9.000000000000000000e+00,2.500000000000000000e+01,3.000000000000000000e+00,-8.000000000000000000e+00,-1.300000000000000000e+01,-4.100000000000000000e+01,-5.000000000000000000e+00,4.292602539062500000e-01,1.737670898437500000e-01,-8.861083984375000000e-01,-1.818847656250000000e-02
-2.000000000000000000e+00,0.000000000000000000e+00,-4.000000000000000000e+00,-8.000000000000000000e+00,-2.000000000000000000e+00,-1.000000000000000000e+00,1.200000000000000000e+01,-4.000000000000000000e+00,4.292602539062500000e-01,1.737670898437500000e-01,-8.861083984375000000e-01,-1.818847656250000000e-02
-1.000000000000000000e+00,2.000000000000000000e+00,-1.000000000000000000e+00,3.000000000000000000e+00,-2.000000000000000000e+00,-4.000000000000000000e+00,-2.300000000000000000e+01,-1.000000000000000000e+00,4.288330078125000000e-01,1.735229492187500000e-01,-8.863525390625000000e-01,-1.861572265625000000e-02
4.000000000000000000e+00,2.000000000000000000e+00,1.800000000000000000e+01,-9.000000000000000000e+00,-2.000000000000000000e+00,7.000000000000000000e+00,1.700000000000000000e+01,-4.000000000000000000e+00,4.288330078125000000e-01,1.735229492187500000e-01,-8.863525390625000000e-01,-1.861572265625000000e-02
-1.000000000000000000e+00,-3.000000000000000000e+00,-5.000000000000000000e+00,8.000000000000000000e+00,0.000000000000000000e+00,-1.000000000000000000e+00,-8.000000000000000000e+00,2.000000000000000000e+00,4.288330078125000000e-01,1.735229492187500000e-01,-8.863525390625000000e-01,-1.861572265625000000e-02
-4.000000000000000000e+00,-9.000000000000000000e+00,-4.000000000000000000e+00,1.400000000000000000e+01,1.000000000000000000e+00,-7.000000000000000000e+00,3.000000000000000000e+00,2.000000000000000000e+00,4.288330078125000000e-01,1.735229492187500000e-01,-8.863525390625000000e-01,-1.861572265625000000e-02
-2.000000000000000000e+00,1.000000000000000000e+00,9.000000000000000000e+00,2.000000000000000000e+00,-1.000000000000000000e+00,-2.000000000000000000e+00,-1.900000000000000000e+01,-1.000000000000000000e+00,4.285278320312500000e-01,1.737060546875000000e-01,-8.864746093750000000e-01,-1.849365234375000000e-02
-7.000000000000000000e+00,-1.000000000000000000e+00,9.000000000000000000e+00,-3.000000000000000000e+00,-5.000000000000000000e+00,-7.000000000000000000e+00,-1.700000000000000000e+01,0.000000000000000000e+00,4.285278320312500000e-01,1.737060546875000000e-01,-8.864746093750000000e-01,-1.849365234375000000e-02
2.700000000000000000e+01,7.000000000000000000e+00,-4.000000000000000000e+00,1.000000000000000000e+00,-2.000000000000000000e+00,-1.000000000000000000e+00,1.400000000000000000e+01,-3.000000000000000000e+00,4.285278320312500000e-01,1.737060546875000000e-01,-8.864746093750000000e-01,-1.849365234375000000e-02
-3.600000000000000000e+01,5.000000000000000000e+00,-3.000000000000000000e+01,-1.700000000000000000e+01,5.000000000000000000e+00,5.000000000000000000e+00,7.000000000000000000e+00,-2.000000000000000000e+00,4.285278320312500000e-01,1.737060546875000000e-01,-8.864746093750000000e-01,-1.849365234375000000e-02
-6.000000000000000000e+00,-1.100000000000000000e+01,-4.500000000000000000e+01,-3.300000000000000000e+01,-4.000000000000000000e+00,-5.000000000000000000e+00,1.000000000000000000e+00,-4.000000000000000000e+00,4.282226562500000000e-01,1.740112304687500000e-01,-8.865966796875000000e-01,-1.818847656250000000e-02
-8.000000000000000000e+00,-5.000000000000000000e+00,4.200000000000000000e+01,1.400000000000000000e+01,-5.000000000000000000e+00,-1.000000000000000000e+00,-1.000000000000000000e+01,1.000000000000000000e+00,4.282226562500000000e-01,1.740112304687500000e-01,-8.865966796875000000e-01,-1.818847656250000000e-02
-2.000000000000000000e+00,-3.000000000000000000e+00,-2.900000000000000000e+01,-1.700000000000000000e+01,-1.000000000000000000e+00,0.000000000000000000e+00,3.000000000000000000e+00,0.000000000000000000e+00,4.282226562500000000e-01,1.740112304687500000e-01,-8.865966796875000000e-01,-1.818847656250000000e-02
1.000000000000000000e+01,1.000000000000000000e+00,1.700000000000000000e+01,-2.000000000000000000e+00,-2.000000000000000000e+00,0.000000000000000000e+00,0.000000000000000000e+00,2.000000000000000000e+00,4.282226562500000000e-01,1.740112304687500000e-01,-8.865966796875000000e-01,-1.818847656250000000e-02
5.000000000000000000e+00,8.000000000000000000e+00,2.800000000000000000e+01,1.200000000000000000e+01,1.000000000000000000e+00,3.000000000000000000e+00,1.000000000000000000e+00,2.000000000000000000e+00,4.279785156250000000e-01,1.743774414062500000e-01,-8.866577148437500000e-01,-1.818847656250000000e-02
-2.000000000000000000e+00,8.000000000000000000e+00,3.500000000000000000e+01,-8.000000000000000000e+00,0.000000000000000000e+00,-6.000000000000000000e+00,-6.000000000000000000e+00,-2.000000000000000000e+00,4.279785156250000000e-01,1.743774414062500000e-01,-8.866577148437500000e-01,-1.818847656250000000e-02
-1.400000000000000000e+01,-2.400000000000000000e+01,-2.100000000000000000e+01,-2.100000000000000000e+01,-1.000000000000000000e+01,-3.000000000000000000e+00,2.000000000000000000e+00,-4.000000000000000000e+00,4.279785156250000000e-01,1.743774414062500000e-01,-8.866577148437500000e-01,-1.818847656250000000e-02
7.000000000000000000e+00,0.000000000000000000e+00,1.500000000000000000e+01,7.000000000000000000e+00,2.000000000000000000e+00,0.000000000000000000e+00,-5.000000000000000000e+00,-1.000000000000000000e+00,4.279785156250000000e-01,1.743774414062500000e-01,-8.866577148437500000e-01,-1.818847656250000000e-02
-6.000000000000000000e+00,-6.000000000000000000e+00,-4.000000000000000000e+00,3.000000000000000000e+00,0.000000000000000000e+00,2.000000000000000000e+00,5.000000000000000000e+00,0.000000000000000000e+00,4.276123046875000000e-01,1.743164062500000000e-01,-8.868408203125000000e-01,-1.843261718750000000e-02
5.000000000000000000e+00,2.000000000000000000e+00,1.000000000000000000e+01,3.000000000000000000e+00,0.000000000000000000e+00,-2.000000000000000000e+00,0.000000000000000000e+00,0.000000000000000000e+00,4.276123046875000000e-01,1.743164062500000000e-01,-8.868408203125000000e-01,-1.843261718750000000e-02
-2.000000000000000000e+00,1.300000000000000000e+01,2.000000000000000000e+01,1.500000000000000000e+01,4.000000000000000000e+00,3.000000000000000000e+00,6.000000000000000000e+00,3.000000000000000000e+00,4.276123046875000000e-01,1.743164062500000000e-01,-8.868408203125000000e-01,-1.843261718750000000e-02
-1.000000000000000000e+00,-7.000000000000000000e+00,5.000000000000000000e+00,-1.300000000000000000e+01,-1.000000000000000000e+00,-3.000000000000000000e+00,-3.000000000000000000e+00,-4.000000000000000000e+00,4.276123046875000000e-01,1.743164062500000000e-01,-8.868408203125000000e-01,-1.843261718750000000e-02
3.000000000000000000e+00,1.000000000000000000e+00,3.800000000000000000e+01,1.700000000000000000e+01,1.000000000000000000e+00,-4.000000000000000000e+00,-4.000000000000000000e+00,0.000000000000000000e+00,4.271850585937500000e-01,1.740722656250000000e-01,-8.870849609375000000e-01,-1.849365234375000000e-02
-5.000000000000000000e+00,-1.500000000000000000e+01,-7.400000000000000000e+01,-1.400000000000000000e+01,-9.000000000000000000e+00,-2.000000000000000000e+00,-2.000000000000000000e+00,-3.000000000000000000e+00,4.271850585937500000e-01,1.740722656250000000e-01,-8.870849609375000000e-01,-1.849365234375000000e-02
-1.000000000000000000e+00,6.000000000000000000e+00,1.900000000000000000e+01,6.000000000000000000e+00,2.000000000000000000e+00,2.000000000000000000e+00,1.300000000000000000e+01,-1.000000000000000000e+00,4.271850585937500000e-01,1.740722656250000000e-01,-8.870849609375000000e-01,-1.849365234375000000e-02
2.000000000000000000e+00,-4.000000000000000000e+00,-7.900000000000000000e+01,-4.000000000000000000e+00,5.000000000000000000e+00,-2.000000000000000000e+00,-1.300000000000000000e+01,-3.000000000000000000e+00,4.271850585937500000e-01,1.740722656250000000e-01,-8.870849609375000000e-01,-1.849365234375000000e-02
-5.000000000000000000e+00,-4.000000000000000000e+00,-1.100000000000000000e+01,-3.000000000000000000e+00,-6.000000000000000000e+00,-3.000000000000000000e+00,5.000000000000000000e+00,-4.000000000000000000e+00,4.267578125000000000e-01,1.745605468750000000e-01,-8.872070312500000000e-01,-1.831054687500000000e-02
-1.000000000000000000e+00,4.000000000000000000e+00,3.400000000000000000e+01,1.700000000000000000e+01,6.000000000000000000e+00,5.000000000000000000e+00,1.400000000000000000e+01,1.000000000000000000e+00,4.267578125000000000e-01,1.745605468750000000e-01,-8.872070312500000000e-01,-1.831054687500000000e-02
-1.000000000000000000e+01,-6.000000000000000000e+00,2.000000000000000000e+00,-1.600000000000000000e+01,-6.000000000000000000e+00,-3.000000000000000000e+00,-1.500000000000000000e+01,-6.000000000000000000e+00,4.267578125000000000e-01,1.745605468750000000e-01,-8.872070312500000000e-01,-1.831054687500000000e-02
9.000000000000000000e+00,7.000000000000000000e+00,4.500000000000000000e+01,2.000000000000000000e+01,0.000000000000000000e+00,3.000000000000000000e+00,3.000000000000000000e+00,3.000000000000000000e+00,4.267578125000000000e-01,1.745605468750000000e-01,-8.872070312500000000e-01,-1.831054687500000000e-02
0.000000000000000000e+00,-4.000000000000000000e+00,3.000000000000000000e+00,-4.000000000000000000e+00,-3.000000000000000000e+00,-1.000000000000000000e+00,8.000000000000000000e+00,3.000000000000000000e+00,4.266967773437500000e-01,1.746215820312500000e-01,-8.872070312500000000e-01,-1.837158203125000000e-02
3.000000000000000000e+00,2.000000000000000000e+00,-4.200000000000000000e+01,-5.000000000000000000e+00,2.000000000000000000e+00,-3.000000000000000000e+00,-1.500000000000000000e+01,0.000000000000000000e+00,4.266967773437500000e-01,1.746215820312500000e-01,-8.872070312500000000e-01,-1.837158203125000000e-02
1.000000000000000000e+00,5.000000000000000000e+00,5.000000000000000000e+00,6.000000000000000000e+00,-1.000000000000000000e+00,3.000000000000000000e+00,4.000000000000000000e+00,0.000000000000000000e+00,4.266967773437500000e-01,1.746215820312500000e-01,-8.872070312500000000e-01,-1.837158203125000000e-02
-1.000000000000000000e+00,-3.000000000000000000e+00,1.600000000000000000e+01,-1.200000000000000000e+01,-1.000000000000000000e+00,0.000000000000000000e+00,-2.000000000000000000e+00,-2.000000000000000000e+00,4.266967773437500000e-01,1.746215820312500000e-01,-8.872070312500000000e-01,-1.837158203125000000e-02
0.000000000000000000e+00,-3.000000000000000000e+00,-7.100000000000000000e+01,-2.000000000000000000e+01,-5.000000000000000000e+00,-1.000000000000000000e+00,-4.000000000000000000e+00,-3.000000000000000000e+00,4.265747070312500000e-01,1.744384765625000000e-01,-8.872680664062500000e-01,-1.885986328125000000e-02
0.000000000000000000e+00,-3.000000000000000000e+00,-2.500000000000000000e+01,-1.000000000000000000e+01,-7.000000000000000000e+00,0.000000000000000000e+00,6.000000000000000000e+00,1.000000000000000000e+00,4.265747070312500000e-01,1.744384765625000000e-01,-8.872680664062500000e-01,-1.885986328125000000e-02
1.000000000000000000e+00,0.000000000000000000e+00,1.300000000000000000e+01,5.000000000000000000e+00,4.000000000000000000e+00,0.000000000000000000e+00,2.000000000000000000e+00,2.000000000000000000e+00,4.265747070312500000e-01,1.744384765625000000e-01,-8.872680664062500000e-01,-1.885986328125000000e-02
3.000000000000000000e+00,0.000000000000000000e+00,-9.000000000000000000e+00,3.200000000000000000e+01,2.000000000000000000e+00,1.000000000000000000e+00,1.000000000000000000e+01,2.000000000000000000e+00,4.265747070312500000e-01,1.744384765625000000e-01,-8.872680664062500000e-01,-1.885986328125000000e-02
-5.000000000000000000e+00,-1.000000000000000000e+00,3.300000000000000000e+01,1.900000000000000000e+01,2.000000000000000000e+00,1.000000000000000000e+00,0.000000000000000000e+00,-1.000000000000000000e+00,4.265136718750000000e-01,1.738891601562500000e-01,-8.873901367187500000e-01,-1.916503906250000000e-02
1.000000000000000000e+00,4.000000000000000000e+00,-3.000000000000000000e+01,-2.000000000000000000e+01,-2.000000000000000000e+00,-1.000000000000000000e+00,-8.000000000000000000e+00,1.000000000000000000e+00,4.265136718750000000e-01,1.738891601562500000e-01,-8.873901367187500000e-01,-1.916503906250000000e-02
-5.000000000000000000e+00,-7.000000000000000000e+00,2.000000000000000000e+00,8.000000000000000000e+00,-2.000000000000000000e+00,2.000000000000000000e+00,1.500000000000000000e+01,1.000000000000000000e+00,4.265136718750000000e-01,1.738891601562500000e-01,-8.873901367187500000e-01,-1.916503906250000000e-02
0.000000000000000000e+00,0.000000000000000000e+00,-6.000000000000000000e+00,-2.000000000000000000e+01,-4.000000000000000000e+00,1.000000000000000000e+00,-2.200000000000000000e+01,-2.000000000000000000e+00,4.265136718750000000e-01,1.738891601562500000e-01,-8.873901367187500000e-01,-1.916503906250000000e-02
2.000000000000000000e+00,3.000000000000000000e+00,8.000000000000000000e+01,1.800000000000000000e+01,-2.000000000000000000e+00,-8.000000000000000000e+00,-1.000000000000000000e+00,-7.000000000000000000e+00,4.263305664062500000e-01,1.741943359375000000e-01,-8.874511718750000000e-01,-1.910400390625000000e-02
2.000000000000000000e+00,2.000000000000000000e+00,-1.000000000000000000e+01,1.000000000000000000e+00,5.000000000000000000e+00,0.000000000000000000e+00,0.000000000000000000e+00,2.000000000000000000e+00,4.263305664062500000e-01,1.741943359375000000e-01,-8.874511718750000000e-01,-1.910400390625000000e-02
0.000000000000000000e+00,4.000000000000000000e+00,7.000000000000000000e+00,1.900000000000000000e+01,-1.000000000000000000e+00,-3.000000000000000000e+00,3.000000000000000000e+00,0.000000000000000000e+00,4.263305664062500000e-01,1.741943359375000000e-01,-8.874511718750000000e-01,-1.910400390625000000e-02
-6.000000000000000000e+00,-1.000000000000000000e+01,-6.000000000000000000e+01,-3.400000000000000000e+01,-9.000000000000000000e+00,-2.000000000000000000e+00,0.000000000000000000e+00,-2.000000000000000000e+00,4.263305664062500000e-01,1.741943359375000000e-01,-8.874511718750000000e-01,-1.910400390625000000e-02
-4.000000000000000000e+00,-8.000000000000000000e+00,-6.100000000000000000e+01,-9.000000000000000000e+00,-7.000000000000000000e+00,-6.000000000000000000e+00,-7.000000000000000000e+00,-4.000000000000000000e+00,4.262084960937500000e-01,1.746826171875000000e-01,-8.873901367187500000e-01,-1.910400390625000000e-02
-4.000000000000000000e+00,-2.000000000000000000e+00,2.700000000000000000e+01,0.000000000000000000e+00,-1.000000000000000000e+00,-2.000000000000000000e+00,4.000000000000000000e+00,-2.000000000000000000e+00,4.262084960937500000e-01,1.746826171875000000e-01,-8.873901367187500000e-01,-1.910400390625000000e-02
-1.000000000000000000e+00,9.000000000000000000e+00,2.000000000000000000e+01,2.000000000000000000e+00,1.000000000000000000e+00,1.000000000000000000e+00,-3.000000000000000000e+00,1.000000000000000000e+00,4.262084960937500000e-01,1.746826171875000000e-01,-8.873901367187500000e-01,-1.910400390625000000e-02
0.000000000000000000e+00,0.000000000000000000e+00,-2.300000000000000000e+01,-1.800000000000000000e+01,-3.000000000000000000e+00,-2.000000000000000000e+00,7.000000000000000000e+00,-1.000000000000000000e+00,4.262084960937500000e-01,1.746826171875000000e-01,-8.873901367187500000e-01,-1.910400390625000000e-02
3.000000000000000000e+00,1.000000000000000000e+00,2.900000000000000000e+01,2.000000000000000000e+00,1.000000000000000000e+00,3.000000000000000000e+00,2.000000000000000000e+00,2.000000000000000000e+00,4.259033203125000000e-01,1.748046875000000000e-01,-8.875122070312500000e-01,-1.928710937500000000e-02
0.000000000000000000e+00,-3.000000000000000000e+00,5.000000000000000000e+00,2.000000000000000000e+00,-1.000000000000000000e+00,-3.000000000000000000e+00,-2.000000000000000000e+00,-2.000000000000000000e+00,4.259033203125000000e-01,1.748046875000000000e-01,-8.875122070312500000e-01,-1.928710937500000000e-02
1.000000000000000000e+00,1.000000000000000000e+01,2.200000000000000000e+01,4.200000000000000000e+01,8.000000000000000000e+00,1.000000000000000000e+00,-2.000000000000000000e+00,1.000000000000000000e+00,4.259033203125000000e-01,1.748046875000000000e-01,-8.875122070312500000e-01,-1.928710937500000000e-02
-1.000000000000000000e+00,1.000000000000000000e+00,2.300000000000000000e+01,-1.100000000000000000e+01,-2.000000000000000000e+00,-4.000000000000000000e+00,-8.000000000000000000e+00,-4.000000000000000000e+00,4.259033203125000000e-01,1.748046875000000000e-01,-8.875122070312500000e-01,-1.928710937500000000e-02
-1.000000000000000000e+00,-1.000000000000000000e+00,-4.000000000000000000e+00,1.000000000000000000e+00,-1.000000000000000000e+00,4.000000000000000000e+00,1.300000000000000000e+01,2.000000000000000000e+00,4.257812500000000000e-01,1.746215820312500000e-01,-8.876342773437500000e-01,-1.959228515625000000e-02
0.000000000000000000e+00,5.000000000000000000e+00,-2.800000000000000000e+01,-1.700000000000000000e+01,2.000000000000000000e+00,4.000000000000000000e+00,0.000000000000000000e+00,4.000000000000000000e+00,4.257812500000000000e-01,1.746215820312500000e-01,-8.876342773437500000e-01,-1.959228515625000000e-02
-3.000000000000000000e+00,-1.900000000000000000e+01,-7.300000000000000000e+01,-4.100000000000000000e+01,-5.000000000000000000e+00,-3.000000000000000000e+00,-7.000000000000000000e+00,-2.000000000000000000e+00,4.257812500000000000e-01,1.746215820312500000e-01,-8.876342773437500000e-01,-1.959228515625000000e-02
-1.000000000000000000e+00,1.000000000000000000e+00,2.900000000000000000e+01,1.100000000000000000e+01,-1.000000000000000000e+00,3.000000000000000000e+00,9.000000000000000000e+00,-1.000000000000000000e+00,4.257812500000000000e-01,1.746215820312500000e-01,-8.876342773437500000e-01,-1.959228515625000000e-02
-2.000000000000000000e+00,4.000000000000000000e+00,7.000000000000000000e+00,-1.000000000000000000e+00,-4.000000000000000000e+00,-9.000000000000000000e+00,-1.200000000000000000e+01,-3.000000000000000000e+00,4.255371093750000000e-01,1.748046875000000000e-01,-8.876953125000000000e-01,-1.983642578125000000e-02
-1.000000000000000000e+00,-2.000000000000000000e+00,3.000000000000000000e+01,9.000000000000000000e+00,-2.000000000000000000e+00,-7.000000000000000000e+00,-1.500000000000000000e+01,-2.000000000000000000e+00,4.255371093750000000e-01,1.748046875000000000e-01,-8.876953125000000000e-01,-1.983642578125000000e-02
0.000000000000000000e+00,1.000000000000000000e+00,-4.600000000000000000e+01,-2.000000000000000000e+01,-3.000000000000000000e+00,-7.000000000000000000e+00,-3.500000000000000000e+01,0.000000000000000000e+00,4.255371093750000000e-01,1.748046875000000000e-01,-8.876953125000000000e-01,-1.983642578125000000e-02
0.000000000000000000e+00,2.000000000000000000e+00,7.300000000000000000e+01,3.400000000000000000e+01,0.000000000000000000e+00,4.000000000000000000e+00,1.500000000000000000e+01,2.000000000000000000e+00,4.255371093750000000e-01,1.748046875000000000e-01,-8.876953125000000000e-01,-1.983642578125000000e-02
2.000000000000000000e+00,-1.100000000000000000e+01,-7.900000000000000000e+01,-4.100000000000000000e+01,-7.000000000000000000e+00,-4.000000000000000000e+00,-1.200000000000000000e+01,-4.000000000000000000e+00,4.251098632812500000e-01,1.751708984375000000e-01,-8.878173828125000000e-01,-1.989746093750000000e-02
-9.000000000000000000e+00,-1.000000000000000000e+00,1.300000000000000000e+01,1.000000000000000000e+01,4.000000000000000000e+00,6.000000000000000000e+00,7.000000000000000000e+00,-4.000000000000000000e+00,4.251098632812500000e-01,1.751708984375000000e-01,-8.878173828125000000e-01,-1.989746093750000000e-02
-6.000000000000000000e+00,-6.000000000000000000e+00,-9.000000000000000000e+00,-9.000000000000000000e+00,-6.000000000000000000e+00,-3.000000000000000000e+00,7.000000000000000000e+00,-2.000000000000000000e+00,4.251098632812500000e-01,1.751708984375000000e-01,-8.878173828125000000e-01,-1.989746093750000000e-02
-3.000000000000000000e+00,0.000000000000000000e+00,8.000000000000000000e+00,2.000000000000000000e+00,3.000000000000000000e+00,-1.000000000000000000e+00,-8.000000000000000000e+00,-2.000000000000000000e+00,4.251098632812500000e-01,1.751708984375000000e-01,-8.878173828125000000e-01,-1.989746093750000000e-02
-4.000000000000000000e+00,7.000000000000000000e+00,1.200000000000000000e+01,1.100000000000000000e+01,8.000000000000000000e+00,7.000000000000000000e+00,6.000000000000000000e+00,4.000000000000000000e+00,4.246215820312500000e-01,1.758422851562500000e-01,-8.879394531250000000e-01,-2.001953125000000000e-02
0.000000000000000000e+00,-2.000000000000000000e+00,4.200000000000000000e+01,9.000000000000000000e+00,-8.000000000000000000e+00,-5.000000000000000000e+00,-1.000000000000000000e+00,-2.000000000000000000e+00,4.246215820312500000e-01,1.758422851562500000e-01,-8.879394531250000000e-01,-2.001953125000000000e-02
-3.000000000000000000e+00,-5.000000000000000000e+00,-2.400000000000000000e+01,-5.000000000000000000e+00,-2.000000000000000000e+00,-3.000000000000000000e+00,0.000000000000000000e+00,-3.000000000000000000e+00,4.246215820312500000e-01,1.758422851562500000e-01,-8.879394531250000000e-01,-2.001953125000000000e-02
1.000000000000000000e+00,7.000000000000000000e+00,8.000000000000000000e+00,4.000000000000000000e+00,3.000000000000000000e+00,1.000000000000000000e+00,4.000000000000000000e+00,3.000000000000000000e+00,4.246215820312500000e-01,1.758422851562500000e-01,-8.879394531250000000e-01,-2.001953125000000000e-02
2.000000000000000000e+00,-1.200000000000000000e+01,-6.900000000000000000e+01,-3.500000000000000000e+01,-4.000000000000000000e+00,1.000000000000000000e+00,1.300000000000000000e+01,0.000000000000000000e+00,4.246215820312500000e-01,1.754760742187500000e-01,-8.880004882812500000e-01,-2.038574218750000000e-02
-3.000000000000000000e+00,-2.000000000000000000e+00,1.800000000000000000e+01,-9.000000000000000000e+00,-6.000000000000000000e+00,-4.000000000000000000e+00,-1.100000000000000000e+01,-4.000000000000000000e+00,4.246215820312500000e-01,1.754760742187500000e-01,-8.880004882812500000e-01,-2.038574218750000000e-02
-2.000000000000000000e+00,-1.000000000000000000e+00,3.100000000000000000e+01,7.000000000000000000e+00,-4.000000000000000000e+00,-7.000000000000000000e+00,4.000000000000000000e+00,-2.000000000000000000e+00,4.246215820312500000e-01,1.754760742187500000e-01,-8.880004882812500000e-01,-2.038574218750000000e-02
4.000000000000000000e+00,5.000000000000000000e+00,-2.500000000000000000e+01,-1.000000000000000000e+01,-2.000000000000000000e+00,-2.000000000000000000e+00,-1.500000000000000000e+01,-4.000000000000000000e+00,4.246215820312500000e-01,1.754760742187500000e-01,-8.880004882812500000e-01,-2.038574218750000000e-02
3.000000000000000000e+00,6.000000000000000000e+00,5.000000000000000000e+01,1.600000000000000000e+01,-1.000000000000000000e+00,-1.000000000000000000e+00,-7.000000000000000000e+00,2.000000000000000000e+00,4.246826171875000000e-01,1.754760742187500000e-01,-8.879394531250000000e-01,-2.008056640625000000e-02
3.000000000000000000e+00,1.000000000000000000e+00,-2.700000000000000000e+01,1.600000000000000000e+01,5.000000000000000000e+00,7.000000000000000000e+00,1.000000000000000000e+00,0.000000000000000000e+00,4.246826171875000000e-01,1.754760742187500000e-01,-8.879394531250000000e-01,-2.008056640625000000e-02
-6.000000000000000000e+00,-4.000000000000000000e+00,-2.400000000000000000e+01,-2.200000000000000000e+01,-2.000000000000000000e+00,-1.000000000000000000e+00,1.100000000000000000e+01,-4.000000000000000000e+00,4.246826171875000000e-01,1.754760742187500000e-01,-8.879394531250000000e-01,-2.008056640625000000e-02
2.000000000000000000e+00,-4.000000000000000000e+00,-2.900000000000000000e+01,1.000000000000000000e+00,-4.000000000000000000e+00,1.000000000000000000e+00,-2.000000000000000000e+00,0.000000000000000000e+00,4.246826171875000000e-01,1.754760742187500000e-01,-8.879394531250000000e-01,-2.008056640625000000e-02
1.000000000000000000e+00,0.000000000000000000e+00,4.300000000000000000e+01,6.000000000000000000e+00,3.000000000000000000e+00,-1.000000000000000000e+00,-4.000000000000000000e+00,-1.000000000000000000e+00,4.244995117187500000e-01,1.755981445312500000e-01,-8.880615234375000000e-01,-1.971435546875000000e-02
-2.000000000000000000e+00,0.000000000000000000e+00,-3.000000000000000000e+00,2.000000000000000000e+00,-2.000000000000000000e+00,-6.000000000000000000e+00,-1.200000000000000000e+01,0.000000000000000000e+00,4.244995117187500000e-01,1.755981445312500000e-01,-8.880615234375000000e-01,-1.971435546875000000e-02
3.000000000000000000e+00,-3.000000000000000000e+00,1.900000000000000000e+01,-2.000000000000000000e+00,-2.000000000000000000e+00,5.000000000000000000e+00,6.500000000000000000e+01,3.000000000000000000e+00,4.244995117187500000e-01,1.755981445312500000e-01,-8.880615234375000000e-01,-1.971435546875000000e-02
-2.000000000000000000e+00,-4.000000000000000000e+00,-2.000000000000000000e+00,-3.000000000000000000e+00,-2.000000000000000000e+00,-8.000000000000000000e+00,-1.200000000000000000e+01,1.000000000000000000e+00,4.244995117187500000e-01,1.755981445312500000e-01,-8.880615234375000000e-01,-1.971435546875000000e-02
-3.000000000000000000e+00,5.000000000000000000e+00,0.000000000000000000e+00,3.000000000000000000e+00,2.000000000000000000e+00,9.000000000000000000e+00,2.100000000000000000e+01,2.000000000000000000e+00,4.240722656250000000e-01,1.755981445312500000e-01,-8.882446289062500000e-01,-1.959228515625000000e-02
6.000000000000000000e+00,0.000000000000000000e+00,-5.000000000000000000e+00,0.000000000000000000e+00,1.000000000000000000e+00,0.000000000000000000e+00,-2.000000000000000000e+00,4.000000000000000000e+00,4.240722656250000000e-01,1.755981445312500000e-01,-8.882446289062500000e-01,-1.959228515625000000e-02
3.000000000000000000e+00,2.000000000000000000e+00,-2.500000000000000000e+01,0.000000000000000000e+00,2.000000000000000000e+00,1.000000000000000000e+00,-1.800000000000000000e+01,3.000000000000000000e+00,4.240722656250000000e-01,1.755981445312500000e-01,-8.882446289062500000e-01,-1.959228515625000000e-02
1.600000000000000000e+01,-1.000000000000000000e+00,2.000000000000000000e+00,-3.000000000000000000e+00,4.000000000000000000e+00,6.000000000000000000e+00,1.800000000000000000e+01,3.000000000000000000e+00,4.240722656250000000e-01,1.755981445312500000e-01,-8.882446289062500000e-01,-1.959228515625000000e-02
-2.200000000000000000e+01,4.000000000000000000e+00,1.200000000000000000e+01,4.000000000000000000e+00,0.000000000000000000e+00,-8.000000000000000000e+00,-3.000000000000000000e+00,-4.000000000000000000e+00,4.240112304687500000e-01,1.755981445312500000e-01,-8.882446289062500000e-01,-1.965332031250000000e-02
-6.000000000000000000e+00,-7.000000000000000000e+00,2.700000000000000000e+01,6.000000000000000000e+00,2.000000000000000000e+00,2.000000000000000000e+00,1.000000000000000000e+00,0.000000000000000000e+00,4.240112304687500000e-01,1.755981445312500000e-01,-8.882446289062500000e-01,-1.965332031250000000e-02
-4.000000000000000000e+00,-3.000000000000000000e+00,4.300000000000000000e+01,1.500000000000000000e+01,-6.000000000000000000e+00,0.000000000000000000e+00,-4.000000000000000000e+00,-1.000000000000000000e+00,4.240112304687500000e-01,1.755981445312500000e-01,-8.882446289062500000e-01,-1.965332031250000000e-02
4.000000000000000000e+00,4.000000000000000000e+00,3.700000000000000000e+01,5.000000000000000000e+00,-4.000000000000000000e+00,-6.000000000000000000e+00,0.000000000000000000e+00,0.000000000000000000e+00,4.240112304687500000e-01,1.755981445312500000e-01,-8.882446289062500000e-01,-1.965332031250000000e-02
4.000000000000000000e+00,-7.000000000000000000e+00,1.600000000000000000e+01,3.100000000000000000e+01,-2.000000000000000000e+00,-2.000000000000000000e+00,-1.200000000000000000e+01,-2.000000000000000000e+00,4.239501953125000000e-01,1.755981445312500000e-01,-8.883056640625000000e-01,-1.953125000000000000e-02
0.000000000000000000e+00,5.000000000000000000e+00,-2.000000000000000000e+00,-6.000000000000000000e+00,-6.000000000000000000e+00,-2.000000000000000000e+00,1.400000000000000000e+01,-2.000000000000000000e+00,4.239501953125000000e-01,1.755981445312500000e-01,-8.883056640625000000e-01,-1.953125000000000000e-02
-1.000000000000000000e+00,-4.000000000000000000e+00,1.100000000000000000e+01,0.000000000000000000e+00,0.000000000000000000e+00,-2.000000000000000000e+00,-1.700000000000000000e+01,-5.000000000000000000e+00,4.239501953125000000e-01,1.755981445312500000e-01,-8.883056640625000000e-01,-1.953125000000000000e-02
-7.000000000000000000e+00,-1.000000000000000000e+00,-1.000000000000000000e+00,2.000000000000000000e+00,9.000000000000000000e+00,-1.000000000000000000e+00,0.000000000000000000e+00,0.000000000000000000e+00,4.239501953125000000e-01,1.755981445312500000e-01,-8.883056640625000000e-01,-1.953125000000000000e-02
6.000000000000000000e+00,1.000000000000000000e+01,-4.000000000000000000e+00,7.000000000000000000e+00,3.000000000000000000e+00,-2.000000000000000000e+00,-1.000000000000000000e+00,2.000000000000000000e+00,4.238891601562500000e-01,1.752319335937500000e-01,-8.884277343750000000e-01,-1.928710937500000000e-02
-1.000000000000000000e+01,-1.000000000000000000e+01,-1.300000000000000000e+01,-3.000000000000000000e+01,-9.000000000000000000e+00,-7.000000000000000000e+00,2.000000000000000000e+00,-2.000000000000000000e+00,4.238891601562500000e-01,1.752319335937500000e-01,-8.884277343750000000e-01,-1.928710937500000000e-02
-2.000000000000000000e+00,3.000000000000000000e+00,1.500000000000000000e+01,4.000000000000000000e+00,0.000000000000000000e+00,-1.000000000000000000e+00,-1.500000000000000000e+01,-4.000000000000000000e+00,4.238891601562500000e-01,1.752319335937500000e-01,-8.884277343750000000e-01,-1.928710937500000000e-02
0.000000000000000000e+00,-2.000000000000000000e+00,-2.900000000000000000e+01,-2.000000000000000000e+01,-9.000000000000000000e+00,0.000000000000000000e+00,9.000000000000000000e+00,1.000000000000000000e+00,4.238891601562500000e-01,1.752319335937500000e-01,-8.884277343750000000e-01,-1.928710937500000000e-02
0.000000000000000000e+00,-7.000000000000000000e+00,-5.000000000000000000e+00,6.000000000000000000e+00,-2.000000000000000000e+00,3.000000000000000000e+00,2.200000000000000000e+01,-1.000000000000000000e+00,4.238281250000000000e-01,1.751708984375000000e-01,-8.884277343750000000e-01,-1.928710937500000000e-02
7.000000000000000000e+00,4.000000000000000000e+00,-5.000000000000000000e+00,4.000000000000000000e+00,0.000000000000000000e+00,-4.000000000000000000e+00,-4.000000000000000000e+00,0.000000000000000000e+00,4.238281250000000000e-01,1.751708984375000000e-01,-8.884277343750000000e-01,-1.928710937500000000e-02
-3.000000000000000000e+00,-4.000000000000000000e+00,-5.000000000000000000e+00,-2.000000000000000000e+00,-5.000000000000000000e+00,-1.000000000000000000e+01,-1.100000000000000000e+01,-2.000000000000000000e+00,4.238281250000000000e-01,1.751708984375000000e-01,-8.884277343750000000e-01,-1.928710937500000000e-02
-1.200000000000000000e+01,-7.000000000000000000e+00,-2.800000000000000000e+01,-1.200000000000000000e+01,-8.000000000000000000e+00,-5.000000000000000000e+00,-7.000000000000000000e+00,-9.000000000000000000e+00,4.238281250000000000e-01,1.751708984375000000e-01,-8.884277343750000000e-01,-1.928710937500000000e-02
2.000000000000000000e+00,-2.000000000000000000e+00,3.000000000000000000e+01,1.200000000000000000e+01,5.000000000000000000e+00,0.000000000000000000e+00,1.000000000000000000e+00,1.000000000000000000e+00,4.235229492187500000e-01,1.753540039062500000e-01,-8.885498046875000000e-01,-1.904296875000000000e-02
3.000000000000000000e+00,-1.000000000000000000e+00,-4.000000000000000000e+01,-8.000000000000000000e+00,6.000000000000000000e+00,4.000000000000000000e+00,2.000000000000000000e+00,0.000000000000000000e+00,4.235229492187500000e-01,1.753540039062500000e-01,-8.885498046875000000e-01,-1.904296875000000000e-02
-1.000000000000000000e+00,0.000000000000000000e+00,-1.400000000000000000e+01,-1.400000000000000000e+01,-4.000000000000000000e+00,1.000000000000000000e+00,-8.000000000000000000e+00,-1.000000000000000000e+00,4.235229492187500000e-01,1.753540039062500000e-01,-8.885498046875000000e-01,-1.904296875000000000e-02
-6.000000000000000000e+00,-2.000000000000000000e+00,3.400000000000000000e+01,2.000000000000000000e+01,0.000000000000000000e+00,-3.000000000000000000e+00,-1.600000000000000000e+01,1.000000000000000000e+00,4.235229492187500000e-01,1.753540039062500000e-01,-8.885498046875000000e-01,-1.904296875000000000e-02
1.400000000000000000e+01,-2.000000000000000000e+00,1.000000000000000000e+00,3.000000000000000000e+00,1.000000000000000000e+00,2.000000000000000000e+00,5.000000000000000000e+01,8.000000000000000000e+00,4.233398437500000000e-01,1.756591796875000000e-01,-8.886108398437500000e-01,-1.910400390625000000e-02
-3.500000000000000000e+01,-1.000000000000000000e+00,9.000000000000000000e+00,4.000000000000000000e+00,-1.000000000000000000e+00,-1.000000000000000000e+00,2.000000000000000000e+00,-8.000000000000000000e+00,4.233398437500000000e-01,1.756591796875000000e-01,-8.886108398437500000e-01,-1.910400390625000000e-02
3.000000000000000000e+00,7.000000000000000000e+00,4.000000000000000000e+00,3.000000000000000000e+00,8.000000000000000000e+00,2.000000000000000000e+00,-6.000000000000000000e+00,-1.000000000000000000e+00,4.233398437500000000e-01,1.756591796875000000e-01,-8.886108398437500000e-01,-1.910400390625000000e-02
2.000000000000000000e+00,5.000000000000000000e+00,4.600000000000000000e+01,2.700000000000000000e+01,-3.000000000000000000e+00,-4.000000000000000000e+00,-7.000000000000000000e+00,5.000000000000000000e+00,4.233398437500000000e-01,1.756591796875000000e-01,-8.886108398437500000e-01,-1.910400390625000000e-02
0.000000000000000000e+00,-6.000000000000000000e+00,-8.200000000000000000e+01,-6.000000000000000000e+01,-6.000000000000000000e+00,-1.000000000000000000e+00,-3.100000000000000000e+01,0.000000000000000000e+00,4.231567382812500000e-01,1.757812500000000000e-01,-8.886718750000000000e-01,-1.928710937500000000e-02
0.000000000000000000e+00,-1.000000000000000000e+01,3.300000000000000000e+01,1.500000000000000000e+01,-8.000000000000000000e+00,-1.100000000000000000e+01,-7.000000000000000000e+00,-3.000000000000000000e+00,4.231567382812500000e-01,1.757812500000000000e-01,-8.886718750000000000e-01,-1.928710937500000000e-02
4.000000000000000000e+00,5.000000000000000000e+00,2.000000000000000000e+00,-5.000000000000000000e+00,2.000000000000000000e+00,2.000000000000000000e+00,8.000000000000000000e+00,2.000000000000000000e+00,4.231567382812500000e-01,1.757812500000000000e-01,-8.886718750000000000e-01,-1.928710937500000000e-02
-1.300000000000000000e+01,-2.200000000000000000e+01,-9.000000000000000000e+00,-9.000000000000000000e+00,-8.000000000000000000e+00,-8.000000000000000000e+00,-2.000000000000000000e+00,-4.000000000000000000e+00,4.231567382812500000e-01,1.757812500000000000e-01,-8.886718750000000000e-01,-1.928710937500000000e-02
-5.000000000000000000e+00,-1.000000000000000000e+00,-4.300000000000000000e+01,-3.000000000000000000e+00,1.000000000000000000e+00,1.000000000000000000e+00,-1.000000000000000000e+01,-4.000000000000000000e+00,4.232788085937500000e-01,1.755371093750000000e-01,-8.886108398437500000e-01,-1.928710937500000000e-02
7.000000000000000000e+00,2.000000000000000000e+00,-1.600000000000000000e+01,-9.000000000000000000e+00,-5.000000000000000000e+00,-4.000000000000000000e+00,2.000000000000000000e+00,-1.000000000000000000e+00,4.232788085937500000e-01,1.755371093750000000e-01,-8.886108398437500000e-01,-1.928710937500000000e-02
-3.000000000000000000e+00,-1.000000000000000000e+00,1.300000000000000000e+01,-5.000000000000000000e+00,-4.000000000000000000e+00,-2.000000000000000000e+00,-6.000000000000000000e+00,-5.000000000000000000e+00,4.232788085937500000e-01,1.755371093750000000e-01,-8.886108398437500000e-01,-1.928710937500000000e-02
-1.000000000000000000e+00,3.000000000000000000e+00,2.500000000000000000e+01,2.100000000000000000e+01,3.000000000000000000e+00,3.000000000000000000e+00,9.000000000000000000e+00,-3.000000000000000000e+00,4.232788085937500000e-01,1.755371093750000000e-01,-8.886108398437500000e-01,-1.928710937500000000e-02
-3.000000000000000000e+00,-3.000000000000000000e+00,-2.700000000000000000e+01,-2.200000000000000000e+01,-5.000000000000000000e+00,1.000000000000000000e+00,-2.200000000000000000e+01,-6.000000000000000000e+00,4.232788085937500000e-01,1.753540039062500000e-01,-8.886718750000000000e-01,-1.892089843750000000e-02
6.000000000000000000e+00,-3.000000000000000000e+00,2.000000000000000000e+00,-6.000000000000000000e+00,3.000000000000000000e+00,3.000000000000000000e+00,0.000000000000000000e+00,0.000000000000000000e+00,4.232788085937500000e-01,1.753540039062500000e-01,-8.886718750000000000e-01,-1.892089843750000000e-02
-6.000000000000000000e+00,-3.000000000000000000e+00,1.900000000000000000e+01,-6.000000000000000000e+00,-1.000000000000000000e+01,-6.000000000000000000e+00,2.000000000000000000e+00,-1.000000000000000000e+00,4.232788085937500000e-01,1.753540039062500000e-01,-8.886718750000000000e-01,-1.892089843750000000e-02
2.000000000000000000e+00,1.000000000000000000e+00,-1.400000000000000000e+01,-9.000000000000000000e+00,4.000000000000000000e+00,0.000000000000000000e+00,4.000000000000000000e+00,-1.000000000000000000e+00,4.232788085937500000e-01,1.753540039062500000e-01,-8.886718750000000000e-01,-1.892089843750000000e-02
-2.000000000000000000e+00,-2.000000000000000000e+00,6.000000000000000000e+00,5.000000000000000000e+00,-3.000000000000000000e+00,-1.000000000000000000e+00,-6.000000000000000000e+00,-6.000000000000000000e+00,4.233398437500000000e-01,1.755371093750000000e-01,-8.886108398437500000e-01,-1.879882812500000000e-02
3.000000000000000000e+00,0.000000000000000000e+00,2.000000000000000000e+01,7.000000000000000000e+00,4.000000000000000000e+00,-1.000000000000000000e+00,-6.000000000000000000e+00,1.000000000000000000e+00,4.233398437500000000e-01,1.755371093750000000e-01,-8.886108398437500000e-01,-1.879882812500000000e-02
2.000000000000000000e+00,1.000000000000000000e+00,-3.100000000000000000e+01,-2.000000000000000000e+00,7.000000000000000000e+00,6.000000000000000000e+00,-2.000000000000000000e+00,3.000000000000000000e+00,4.233398437500000000e-01,1.755371093750000000e-01,-8.886108398437500000e-01,-1.879882812500000000e-02
3.000000000000000000e+00,0.000000000000000000e+00,-3.500000000000000000e+01,-1.200000000000000000e+01,-2.000000000000000000e+00,-5.000000000000000000e+00,-1.000000000000000000e+00,-5.000000000000000000e+00,4.233398437500000000e-01,1.755371093750000000e-01,-8.886108398437500000e-01,-1.879882812500000000e-02
-2.000000000000000000e+00,-4.000000000000000000e+00,3.400000000000000000e+01,-5.000000000000000000e+00,-4.000000000000000000e+00,-1.000000000000000000e+00,2.300000000000000000e+01,3.000000000000000000e+00,4.234008789062500000e-01,1.755981445312500000e-01,-8.885498046875000000e-01,-1.879882812500000000e-02
0.000000000000000000e+00,-3.000000000000000000e+00,5.000000000000000000e+00,2.200000000000000000e+01,0.000000000000000000e+00,-1.000000000000000000e+00,-1.100000000000000000e+01,-1.000000000000000000e+00,4.234008789062500000e-01,1.755981445312500000e-01,-8.885498046875000000e-01,-1.879882812500000000e-02
-4.000000000000000000e+00,-7.000000000000000000e+00,-2.000000000000000000e+00,1.000000000000000000e+00,-2.000000000000000000e+00,-4.000000000000000000e+00,-5.000000000000000000e+00,-3.000000000000000000e+00,4.234008789062500000e-01,1.755981445312500000e-01,-8.885498046875000000e-01,-1.879882812500000000e-02
-4.000000000000000000e+00,0.000000000000000000e+00,-4.500000000000000000e+01,-1.800000000000000000e+01,5.000000000000000000e+00,6.000000000000000000e+00,3.800000000000000000e+01,0.000000000000000000e+00,4.234008789062500000e-01,1.755981445312500000e-01,-8.885498046875000000e-01,-1.879882812500000000e-02
1.000000000000000000e+00,8.000000000000000000e+00,2.900000000000000000e+01,1.100000000000000000e+01,-2.000000000000000000e+00,-6.000000000000000000e+00,-7.000000000000000000e+00,1.000000000000000000e+00,4.235229492187500000e-01,1.759033203125000000e-01,-8.884887695312500000e-01,-1.879882812500000000e-02
6.000000000000000000e+00,4.000000000000000000e+00,2.400000000000000000e+01,9.000000000000000000e+00,0.000000000000000000e+00,2.000000000000000000e+00,5.000000000000000000e+00,0.000000000000000000e+00,4.235229492187500000e-01,1.759033203125000000e-01,-8.884887695312500000e-01,-1.879882812500000000e-02
8.000000000000000000e+00,-3.000000000000000000e+00,-6.000000000000000000e+01,-1.600000000000000000e+01,2.000000000000000000e+00,1.100000000000000000e+01,-7.000000000000000000e+00,4.000000000000000000e+00,4.235229492187500000e-01,1.759033203125000000e-01,-8.884887695312500000e-01,-1.879882812500000000e-02
1.100000000000000000e+01,2.000000000000000000e+00,3.300000000000000000e+01,1.700000000000000000e+01,-6.000000000000000000e+00,-4.000000000000000000e+00,8.000000000000000000e+00,4.000000000000000000e+00,4.235229492187500000e-01,1.759033203125000000e-01,-8.884887695312500000e-01,-1.879882812500000000e-02
-9.000000000000000000e+00,2.000000000000000000e+00,6.900000000000000000e+01,0.000000000000000000e+00,-8.000000000000000000e+00,-1.200000000000000000e+01,-1.500000000000000000e+01,-6.000000000000000000e+00,4.232788085937500000e-01,1.763305664062500000e-01,-8.884887695312500000e-01,-1.867675781250000000e-02
-7.000000000000000000e+00,-1.200000000000000000e+01,-3.300000000000000000e+01,-1.500000000000000000e+01,-3.000000000000000000e+00,2.000000000000000000e+00,1.000000000000000000e+01,-2.000000000000000000e+00,4.232788085937500000e-01,1.763305664062500000e-01,-8.884887695312500000e-01,-1.867675781250000000e-02
-3.000000000000000000e+00,6.000000000000000000e+00,4.700000000000000000e+01,1.400000000000000000e+01,-1.000000000000000000e+00,-5.000000000000000000e+00,-1.100000000000000000e+01,-1.000000000000000000e+00,4.232788085937500000e-01,1.763305664062500000e-01,-8.884887695312500000e-01,-1.867675781250000000e-02
7.000000000000000000e+00,4.000000000000000000e+00,-2.300000000000000000e+01,-1.400000000000000000e+01,2.000000000000000000e+00,2.000000000000000000e+00,-9.000000000000000000e+00,-1.000000000000000000e+00,4.232788085937500000e-01,1.763305664062500000e-01,-8.884887695312500000e-01,-1.867675781250000000e-02
3.000000000000000000e+00,6.000000000000000000e+00,7.000000000000000000e+00,1.500000000000000000e+01,8.000000000000000000e+00,-2.000000000000000000e+00,-3.000000000000000000e+00,3.000000000000000000e+00,4.230346679687500000e-01,1.776733398437500000e-01,-8.883666992187500000e-01,-1.824951171875000000e-02
-2.000000000000000000e+00,-2.000000000000000000e+00,-1.300000000000000000e+01,-1.000000000000000000e+01,-7.000000000000000000e+00,-1.000000000000000000e+01,-1.400000000000000000e+01,0.000000000000000000e+00,4.230346679687500000e-01,1.776733398437500000e-01,-8.883666992187500000e-01,-1.824951171875000000e-02
2.000000000000000000e+00,0.000000000000000000e+00,8.000000000000000000e+00,-1.000000000000000000e+00,-6.000000000000000000e+00,-6.000000000000000000e+00,9.000000000000000000e+00,0.000000000000000000e+00,4.230346679687500000e-01,1.776733398437500000e-01,-8.883666992187500000e-01,-1.824951171875000000e-02
-5.000000000000000000e+00,2.000000000000000000e+00,6.000000000000000000e+00,2.000000000000000000e+00,4.000000000000000000e+00,6.000000000000000000e+00,-3.000000000000000000e+00,-1.000000000000000000e+00,4.230346679687500000e-01,1.776733398437500000e-01,-8.883666992187500000e-01,-1.824951171875000000e-02
-1.000000000000000000e+00,-3.000000000000000000e+00,-1.200000000000000000e+01,9.000000000000000000e+00,6.000000000000000000e+00,2.000000000000000000e+00,-4.000000000000000000e+00,-2.000000000000000000e+00,4.225463867187500000e-01,1.779174804687500000e-01,-8.885498046875000000e-01,-1.824951171875000000e-02
3.000000000000000000e+00,3.000000000000000000e+00,-1.000000000000000000e+01,-9.000000000000000000e+00,-2.000000000000000000e+00,9.000000000000000000e+00,1.100000000000000000e+01,0.000000000000000000e+00,4.225463867187500000e-01,1.779174804687500000e-01,-8.885498046875000000e-01,-1.824951171875000000e-02
7.000000000000000000e+00,1.900000000000000000e+01,2.600000000000000000e+01,2.100000000000000000e+01,1.600000000000000000e+01,1.000000000000000000e+01,1.100000000000000000e+01,5.000000000000000000e+00,4.225463867187500000e-01,1.779174804687500000e-01,-8.885498046875000000e-01,-1.824951171875000000e-02
-1.800000000000000000e+01,-2.300000000000000000e+01,1.400000000000000000e+01,-3.100000000000000000e+01,-2.800000000000000000e+01,-9.000000000000000000e+00,-2.000000000000000000e+00,-1.300000000000000000e+01,4.225463867187500000e-01,1.779174804687500000e-01,-8.885498046875000000e-01,-1.824951171875000000e-02
0.000000000000000000e+00,-2.000000000000000000e+00,-2.900000000000000000e+01,-2.200000000000000000e+01,-2.000000000000000000e+00,4.000000000000000000e+00,-1.700000000000000000e+01,-2.000000000000000000e+00,4.218139648437500000e-01,1.781616210937500000e-01,-8.887939453125000000e-01,-1.812744140625000000e-02
0.000000000000000000e+00,-9.000000000000000000e+00,6.000000000000000000e+00,0.000000000000000000e+00,-3.000000000000000000e+00,-2.000000000000000000e+00,1.000000000000000000e+00,-1.000000000000000000e+00,4.218139648437500000e-01,1.781616210937500000e-01,-8.887939453125000000e-01,-1.812744140625000000e-02
1.000000000000000000e+00,6.000000000000000000e+00,8.000000000000000000e+00,4.000000000000000000e+00,4.000000000000000000e+00,1.000000000000000000e+00,2.000000000000000000e+00,1.000000000000000000e+00,4.218139648437500000e-01,1.781616210937500000e-01,-8.887939453125000000e-01,-1.812744140625000000e-02
1.000000000000000000e+00,7.000000000000000000e+00,-3.000000000000000000e+00,-1.000000000000000000e+00,4.000000000000000000e+00,0.000000000000000000e+00,-1.200000000000000000e+01,1.000000000000000000e+00,4.218139648437500000e-01,1.781616210937500000e-01,-8.887939453125000000e-01,-1.812744140625000000e-02
3.000000000000000000e+00,4.000000000000000000e+00,6.200000000000000000e+01,2.800000000000000000e+01,7.000000000000000000e+00,1.000000000000000000e+00,1.000000000000000000e+00,0.000000000000000000e+00,4.213867187500000000e-01,1.791381835937500000e-01,-8.888549804687500000e-01,-1.776123046875000000e-02
1.000000000000000000e+00,2.000000000000000000e+00,0.000000000000000000e+00,-1.600000000000000000e+01,-7.000000000000000000e+00,-2.000000000000000000e+00,-5.000000000000000000e+00,0.000000000000000000e+00,4.213867187500000000e-01,1.791381835937500000e-01,-8.888549804687500000e-01,-1.776123046875000000e-02
-6.000000000000000000e+00,-5.000000000000000000e+00,-3.000000000000000000e+00,2.300000000000000000e+01,6.000000000000000000e+00,1.000000000000000000e+00,5.000000000000000000e+00,2.000000000000000000e+00,4.213867187500000000e-01,1.791381835937500000e-01,-8.888549804687500000e-01,-1.776123046875000000e-02
-6.000000000000000000e+00,-3.000000000000000000e+00,-5.400000000000000000e+01,-2.000000000000000000e+01,-7.000000000000000000e+00,-3.000000000000000000e+00,-1.600000000000000000e+01,-5.000000000000000000e+00,4.213867187500000000e-01,1.791381835937500000e-01,-8.888549804687500000e-01,-1.776123046875000000e-02
-2.000000000000000000e+00,-6.000000000000000000e+00,-1.600000000000000000e+01,-6.000000000000000000e+00,-5.000000000000000000e+00,-5.000000000000000000e+00,-3.000000000000000000e+00,-3.000000000000000000e+00,4.206542968750000000e-01,1.791381835937500000e-01,-8.892211914062500000e-01,-1.763916015625000000e-02
5.000000000000000000e+00,6.000000000000000000e+00,0.000000000000000000e+00,1.200000000000000000e+01,1.100000000000000000e+01,2.000000000000000000e+00,-6.000000000000000000e+00,1.000000000000000000e+00,4.206542968750000000e-01,1.791381835937500000e-01,-8.892211914062500000e-01,-1.763916015625000000e-02
-1.000000000000000000e+00,-3.000000000000000000e+00,4.000000000000000000e+00,-2.000000000000000000e+00,-1.000000000000000000e+00,-4.000000000000000000e+00,2.000000000000000000e+00,-2.000000000000000000e+00,4.206542968750000000e-01,1.791381835937500000e-01,-8.892211914062500000e-01,-1.763916015625000000e-02
2.000000000000000000e+00,5.000000000000000000e+00,4.000000000000000000e+00,1.000000000000000000e+00,3.000000000000000000e+00,-4.000000000000000000e+00,-5.000000000000000000e+00,3.000000000000000000e+00,4.206542968750000000e-01,1.791381835937500000e-01,-8.892211914062500000e-01,-1.763916015625000000e-02
1.300000000000000000e+01,2.000000000000000000e+00,-3.600000000000000000e+01,-1.400000000000000000e+01,-1.000000000000000000e+00,2.000000000000000000e+00,-5.000000000000000000e+00,2.000000000000000000e+00,4.198608398437500000e-01,1.787719726562500000e-01,-8.896484375000000000e-01,-1.733398437500000000e-02
-1.000000000000000000e+01,-4.000000000000000000e+00,-4.200000000000000000e+01,-6.000000000000000000e+00,-2.000000000000000000e+00,2.000000000000000000e+00,2.000000000000000000e+01,-2.000000000000000000e+00,4.198608398437500000e-01,1.787719726562500000e-01,-8.896484375000000000e-01,-1.733398437500000000e-02
-4.000000000000000000e+00,-2.700000000000000000e+01,-6.900000000000000000e+01,-4.200000000000000000e+01,-2.300000000000000000e+01,-1.400000000000000000e+01,-2.100000000000000000e+01,-1.200000000000000000e+01,4.198608398437500000e-01,1.787719726562500000e-01,-8.896484375000000000e-01,-1.733398437500000000e-02
2.000000000000000000e+00,6.000000000000000000e+00,1.000000000000000000e+00,8.000000000000000000e+00,5.000000000000000000e+00,2.000000000000000000e+00,3.000000000000000000e+00,0.000000000000000000e+00,4.198608398437500000e-01,1.787719726562500000e-01,-8.896484375000000000e-01,-1.733398437500000000e-02
-8.000000000000000000e+00,-1.000000000000000000e+00,2.700000000000000000e+01,1.000000000000000000e+01,-8.000000000000000000e+00,-4.000000000000000000e+00,-2.000000000000000000e+00,-1.000000000000000000e+00,4.193725585937500000e-01,1.797485351562500000e-01,-8.897094726562500000e-01,-1.666259765625000000e-02
8.000000000000000000e+00,3.000000000000000000e+00,-3.000000000000000000e+00,-7.000000000000000000e+00,5.000000000000000000e+00,2.000000000000000000e+00,4.000000000000000000e+00,3.000000000000000000e+00,4.193725585937500000e-01,1.797485351562500000e-01,-8.897094726562500000e-01,-1.666259765625000000e-02
0.000000000000000000e+00,-1.000000000000000000e+00,1.200000000000000000e+01,5.000000000000000000e+00,2.000000000000000000e+00,-2.000000000000000000e+00,-1.000000000000000000e+00,0.000000000000000000e+00,4.193725585937500000e-01,1.797485351562500000e-01,-8.897094726562500000e-01,-1.666259765625000000e-02
-1.000000000000000000e+00,2.000000000000000000e+00,1.100000000000000000e+01,5.000000000000000000e+00,2.000000000000000000e+00,2.000000000000000000e+00,0.000000000000000000e+00,1.000000000000000000e+00,4.193725585937500000e-01,1.797485351562500000e-01,-8.897094726562500000e-01,-1.666259765625000000e-02
3.000000000000000000e+00,-4.000000000000000000e+00,-3.400000000000000000e+01,-1.000000000000000000e+01,-2.000000000000000000e+00,0.000000000000000000e+00,4.000000000000000000e+00,2.000000000000000000e+00,4.190673828125000000e-01,1.799926757812500000e-01,-8.897705078125000000e-01,-1.629638671875000000e-02
3.000000000000000000e+00,3.000000000000000000e+00,9.000000000000000000e+00,8.000000000000000000e+00,-2.000000000000000000e+00,-5.000000000000000000e+00,-1.300000000000000000e+01,-3.000000000000000000e+00,4.190673828125000000e-01,1.799926757812500000e-01,-8.897705078125000000e-01,-1.629638671875000000e-02
-6.000000000000000000e+00,7.000000000000000000e+00,1.300000000000000000e+01,-1.000000000000000000e+00,-1.000000000000000000e+00,3.000000000000000000e+00,1.100000000000000000e+01,1.000000000000000000e+00,4.190673828125000000e-01,1.799926757812500000e-01,-8.897705078125000000e-01,-1.629638671875000000e-02
1.000000000000000000e+00,-2.000000000000000000e+00,-2.900000000000000000e+01,-7.000000000000000000e+00,-2.000000000000000000e+00,-3.000000000000000000e+00,-7.000000000000000000e+00,-1.000000000000000000e+00,4.190673828125000000e-01,1.799926757812500000e-01,-8.897705078125000000e-01,-1.629638671875000000e-02
-4.000000000000000000e+00,3.000000000000000000e+00,8.000000000000000000e+00,1.400000000000000000e+01,4.000000000000000000e+00,2.000000000000000000e+00,7.000000000000000000e+00,0.000000000000000000e+00,4.189453125000000000e-01,1.791381835937500000e-01,-8.900146484375000000e-01,-1.611328125000000000e-02
-3.000000000000000000e+00,-9.000000000000000000e+00,-4.000000000000000000e+01,-4.200000000000000000e+01,-8.000000000000000000e+00,-5.000000000000000000e+00,-1.200000000000000000e+01,-2.000000000000000000e+00,4.189453125000000000e-01,1.791381835937500000e-01,-8.900146484375000000e-01,-1.611328125000000000e-02
-4.000000000000000000e+00,6.000000000000000000e+00,6.700000000000000000e+01,1.200000000000000000e+01,-2.000000000000000000e+00,2.000000000000000000e+00,4.000000000000000000e+00,-1.000000000000000000e+00,4.189453125000000000e-01,1.791381835937500000e-01,-8.900146484375000000e-01,-1.611328125000000000e-02
-4.000000000000000000e+00,-1.400000000000000000e+01,2.900000000000000000e+01,6.000000000000000000e+00,-5.000000000000000000e+00,-2.000000000000000000e+00,-5.000000000000000000e+00,-2.000000000000000000e+00,4.189453125000000000e-01,1.791381835937500000e-01,-8.900146484375000000e-01,-1.611328125000000000e-02
-4.000000000000000000e+00,-6.000000000000000000e+00,-6.800000000000000000e+01,-4.200000000000000000e+01,-1.000000000000000000e+00,-1.000000000000000000e+00,-1.000000000000000000e+01,-1.000000000000000000e+00,4.189453125000000000e-01,1.789550781250000000e-01,-8.900756835937500000e-01,-1.556396484375000000e-02
2.000000000000000000e+00,1.000000000000000000e+00,1.100000000000000000e+01,2.100000000000000000e+01,-6.000000000000000000e+00,-9.000000000000000000e+00,3.100000000000000000e+01,-2.000000000000000000e+00,4.189453125000000000e-01,1.789550781250000000e-01,-8.900756835937500000e-01,-1.556396484375000000e-02
-1.000000000000000000e+00,0.000000000000000000e+00,-1.200000000000000000e+01,-9.000000000000000000e+00,6.000000000000000000e+00,4.000000000000000000e+00,2.900000000000000000e+01,1.000000000000000000e+00,4.189453125000000000e-01,1.789550781250000000e-01,-8.900756835937500000e-01,-1.556396484375000000e-02
0.000000000000000000e+00,3.000000000000000000e+00,-2.100000000000000000e+01,-2.000000000000000000e+01,2.000000000000000000e+00,2.000000000000000000e+00,-1.000000000000000000e+00,-2.000000000000000000e+00,4.189453125000000000e-01,1.789550781250000000e-01,-8.900756835937500000e-01,-1.556396484375000000e-02
2.000000000000000000e+00,2.000000000000000000e+00,5.600000000000000000e+01,2.600000000000000000e+01,3.000000000000000000e+00,3.000000000000000000e+00,7.000000000000000000e+00,-1.000000000000000000e+00,4.188232421875000000e-01,1.791992187500000000e-01,-8.900756835937500000e-01,-1.519775390625000000e-02
1.500000000000000000e+01,-2.000000000000000000e+00,-1.800000000000000000e+01,-1.500000000000000000e+01,-1.000000000000000000e+00,0.000000000000000000e+00,-1.800000000000000000e+01,1.000000000000000000e+00,4.188232421875000000e-01,1.791992187500000000e-01,-8.900756835937500000e-01,-1.519775390625000000e-02
-1.900000000000000000e+01,-4.000000000000000000e+00,8.000000000000000000e+00,1.100000000000000000e+01,-4.000000000000000000e+00,-4.000000000000000000e+00,-4.000000000000000000e+00,-1.000000000000000000e+00,4.188232421875000000e-01,1.791992187500000000e-01,-8.900756835937500000e-01,-1.519775390625000000e-02
1.000000000000000000e+00,4.000000000000000000e+00,-4.100000000000000000e+01,-4.000000000000000000e+00,3.000000000000000000e+00,0.000000000000000000e+00,0.000000000000000000e+00,-1.000000000000000000e+00,4.188232421875000000e-01,1.791992187500000000e-01,-8.900756835937500000e-01,-1.519775390625000000e-02
-1.200000000000000000e+01,1.000000000000000000e+00,1.700000000000000000e+01,-3.000000000000000000e+00,-5.000000000000000000e+00,-5.000000000000000000e+00,-7.000000000000000000e+00,-4.000000000000000000e+00,4.188232421875000000e-01,1.792602539062500000e-01,-8.900756835937500000e-01,-1.525878906250000000e-02
8.000000000000000000e+00,3.000000000000000000e+00,2.900000000000000000e+01,2.100000000000000000e+01,8.000000000000000000e+00,2.000000000000000000e+00,-6.000000000000000000e+00,-1.000000000000000000e+00,4.188232421875000000e-01,1.792602539062500000e-01,-8.900756835937500000e-01,-1.525878906250000000e-02
1.000000000000000000e+00,-1.000000000000000000e+00,-4.700000000000000000e+01,-2.500000000000000000e+01,-4.000000000000000000e+00,-6.000000000000000000e+00,1.000000000000000000e+00,0.000000000000000000e+00,4.188232421875000000e-01,1.792602539062500000e-01,-8.900756835937500000e-01,-1.525878906250000000e-02
5.000000000000000000e+00,-2.000000000000000000e+00,4.000000000000000000e+00,-1.000000000000000000e+01,0.000000000000000000e+00,6.000000000000000000e+00,1.000000000000000000e+00,2.000000000000000000e+00,4.188232421875000000e-01,1.792602539062500000e-01,-8.900756835937500000e-01,-1.525878906250000000e-02
0.000000000000000000e+00,-3.000000000000000000e+00,-3.500000000000000000e+01,-1.000000000000000000e+01,-6.000000000000000000e+00,-2.000000000000000000e+00,-7.000000000000000000e+00,-3.000000000000000000e+00,4.188232421875000000e-01,1.789550781250000000e-01,-8.901367187500000000e-01,-1.525878906250000000e-02
-1.100000000000000000e+01,-4.000000000000000000e+00,1.100000000000000000e+01,8.000000000000000000e+00,1.000000000000000000e+00,3.000000000000000000e+00,-8.000000000000000000e+00,-2.000000000000000000e+00,4.188232421875000000e-01,1.789550781250000000e-01,-8.901367187500000000e-01,-1.525878906250000000e-02
0.000000000000000000e+00,-6.000000000000000000e+00,2.000000000000000000e+00,8.000000000000000000e+00,-5.000000000000000000e+00,-2.000000000000000000e+00,-1.000000000000000000e+01,-1.000000000000000000e+00,4.188232421875000000e-01,1.789550781250000000e-01,-8.901367187500000000e-01,-1.525878906250000000e-02
-1.000000000000000000e+00,4.000000000000000000e+00,3.700000000000000000e+01,1.600000000000000000e+01,-2.000000000000000000e+00,-4.000000000000000000e+00,2.000000000000000000e+00,3.000000000000000000e+00,4.188232421875000000e-01,1.789550781250000000e-01,-8.901367187500000000e-01,-1.525878906250000000e-02
3.000000000000000000e+00,-6.000000000000000000e+00,-7.700000000000000000e+01,-3.300000000000000000e+01,-2.000000000000000000e+00,5.000000000000000000e+00,-7.000000000000000000e+00,-1.000000000000000000e+00,4.188232421875000000e-01,1.791992187500000000e-01,-8.900756835937500000e-01,-1.507568359375000000e-02
-1.500000000000000000e+01,-7.000000000000000000e+00,-6.000000000000000000e+00,2.000000000000000000e+00,0.000000000000000000e+00,-4.000000000000000000e+00,3.000000000000000000e+00,-4.000000000000000000e+00,4.188232421875000000e-01,1.791992187500000000e-01,-8.900756835937500000e-01,-1.507568359375000000e-02
1.000000000000000000e+00,0.000000000000000000e+00,3.600000000000000000e+01,7.000000000000000000e+00,0.000000000000000000e+00,-4.000000000000000000e+00,-7.000000000000000000e+00,-2.000000000000000000e+00,4.188232421875000000e-01,1.791992187500000000e-01,-8.900756835937500000e-01,-1.507568359375000000e-02
1.600000000000000000e+01,-3.000000000000000000e+00,7.000000000000000000e+00,-1.700000000000000000e+01,-2.000000000000000000e+00,-3.000000000000000000e+00,1.000000000000000000e+00,-1.000000000000000000e+00,4.188232421875000000e-01,1.791992187500000000e-01,-8.900756835937500000e-01,-1.507568359375000000e-02
-4.000000000000000000e+01,0.000000000000000000e+00,1.500000000000000000e+01,1.500000000000000000e+01,4.000000000000000000e+00,-1.000000000000000000e+00,2.000000000000000000e+00,-4.000000000000000000e+00,4.188842773437500000e-01,1.791992187500000000e-01,-8.900756835937500000e-01,-1.507568359375000000e-02
1.000000000000000000e+00,9.000000000000000000e+00,1.700000000000000000e+01,1.800000000000000000e+01,6.000000000000000000e+00,3.000000000000000000e+00,0.000000000000000000e+00,1.000000000000000000e+00,4.188842773437500000e-01,1.791992187500000000e-01,-8.900756835937500000e-01,-1.507568359375000000e-02
-3.000000000000000000e+00,-2.000000000000000000e+00,3.000000000000000000e+01,-3.000000000000000000e+00,-7.000000000000000000e+00,-2.000000000000000000e+00,-1.300000000000000000e+01,-1.000000000000000000e+00,4.188842773437500000e-01,1.791992187500000000e-01,-8.900756835937500000e-01,-1.507568359375000000e-02
-1.000000000000000000e+00,3.000000000000000000e+00,7.000000000000000000e+00,3.500000000000000000e+01,3.000000000000000000e+00,0.000000000000000000e+00,0.000000000000000000e+00,0.000000000000000000e+00,4.188842773437500000e-01,1.791992187500000000e-01,-8.900756835937500000e-01,-1.507568359375000000e-02
8.000000000000000000e+00,2.000000000000000000e+00,3.600000000000000000e+01,5.000000000000000000e+00,-1.000000000000000000e+00,-5.000000000000000000e+00,4.000000000000000000e+00,1.000000000000000000e+00,4.185180664062500000e-01,1.795654296875000000e-01,-8.901367187500000000e-01,-1.501464843750000000e-02
-1.000000000000000000e+00,-4.000000000000000000e+00,-3.200000000000000000e+01,-1.300000000000000000e+01,-8.000000000000000000e+00,-4.000000000000000000e+00,-1.500000000000000000e+01,-2.000000000000000000e+00,4.185180664062500000e-01,1.795654296875000000e-01,-8.901367187500000000e-01,-1.501464843750000000e-02
2.000000000000000000e+00,1.000000000000000000e+00,3.100000000000000000e+01,1.600000000000000000e+01,0.000000000000000000e+00,-1.000000000000000000e+00,3.000000000000000000e+00,-1.000000000000000000e+00,4.185180664062500000e-01,1.795654296875000000e-01,-8.901367187500000000e-01,-1.501464843750000000e-02
-2.000000000000000000e+00,6.000000000000000000e+00,1.600000000000000000e+01,1.800000000000000000e+01,-3.000000000000000000e+00,1.100000000000000000e+01,1.700000000000000000e+01,1.000000000000000000e+00,4.185180664062500000e-01,1.795654296875000000e-01,-8.901367187500000000e-01,-1.501464843750000000e-02
-3.000000000000000000e+00,1.100000000000000000e+01,-5.700000000000000000e+01,-2.800000000000000000e+01,-2.600000000000000000e+01,-6.000000000000000000e+00,-5.500000000000000000e+01,2.000000000000000000e+00,4.180908203125000000e-01,1.800537109375000000e-01,-8.902587890625000000e-01,-1.507568359375000000e-02
1.700000000000000000e+01,-6.000000000000000000e+00,4.400000000000000000e+01,3.000000000000000000e+00,-3.000000000000000000e+01,1.000000000000000000e+00,2.000000000000000000e+01,-6.000000000000000000e+00,4.180908203125000000e-01,1.800537109375000000e-01,-8.902587890625000000e-01,-1.507568359375000000e-02
6.000000000000000000e+00,3.000000000000000000e+00,3.700000000000000000e+01,3.000000000000000000e+00,-1.700000000000000000e+01,2.000000000000000000e+00,0.000000000000000000e+00,5.000000000000000000e+00,4.180908203125000000e-01,1.800537109375000000e-01,-8.902587890625000000e-01,-1.507568359375000000e-02
-7.000000000000000000e+00,-4.000000000000000000e+00,-4.000000000000000000e+00,-1.000000000000000000e+00,-4.000000000000000000e+00,-9.000000000000000000e+00,-5.000000000000000000e+00,-1.000000000000000000e+00,4.180908203125000000e-01,1.800537109375000000e-01,-8.902587890625000000e-01,-1.507568359375000000e-02
-1.000000000000000000e+00,-7.000000000000000000e+00,1.100000000000000000e+01,1.400000000000000000e+01,6.000000000000000000e+00,-1.000000000000000000e+00,-2.000000000000000000e+00,-2.000000000000000000e+00,4.175415039062500000e-01,1.806030273437500000e-01,-8.904418945312500000e-01,-1.489257812500000000e-02
-9.000000000000000000e+00,0.000000000000000000e+00,-5.000000000000000000e+00,-6.000000000000000000e+00,9.000000000000000000e+00,-4.000000000000000000e+00,-9.000000000000000000e+00,-2.000000000000000000e+00,4.175415039062500000e-01,1.806030273437500000e-01,-8.904418945312500000e-01,-1.489257812500000000e-02
2.000000000000000000e+00,0.000000000000000000e+00,-1.800000000000000000e+01,-2.000000000000000000e+00,1.900000000000000000e+01,4.000000000000000000e+00,-1.000000000000000000e+01,-5.000000000000000000e+00,4.175415039062500000e-01,1.806030273437500000e-01,-8.904418945312500000e-01,-1.489257812500000000e-02
-2.000000000000000000e+00,2.000000000000000000e+00,2.000000000000000000e+01,6.000000000000000000e+00,1.400000000000000000e+01,-1.000000000000000000e+00,-1.100000000000000000e+01,0.000000000000000000e+00,4.175415039062500000e-01,1.806030273437500000e-01,-8.904418945312500000e-01,-1.489257812500000000e-02
3.000000000000000000e+00,-8.000000000000000000e+00,-3.400000000000000000e+01,-1.100000000000000000e+01,1.300000000000000000e+01,4.000000000000000000e+00,2.100000000000000000e+01,-2.000000000000000000e+00,4.171752929687500000e-01,1.807250976562500000e-01,-8.905639648437500000e-01,-1.477050781250000000e-02
-3.000000000000000000e+00,2.000000000000000000e+00,-6.000000000000000000e+00,3.000000000000000000e+00,6.000000000000000000e+00,-4.000000000000000000e+00,-9.000000000000000000e+00,-1.000000000000000000e+00,4.171752929687500000e-01,1.807250976562500000e-01,-8.905639648437500000e-01,-1.477050781250000000e-02
3.000000000000000000e+00,3.000000000000000000e+00,-2.500000000000000000e+01,-2.300000000000000000e+01,4.000000000000000000e+00,-1.000000000000000000e+00,0.000000000000000000e+00,0.000000000000000000e+00,4.171752929687500000e-01,1.807250976562500000e-01,-8.905639648437500000e-01,-1.477050781250000000e-02
3.000000000000000000e+00,-8.000000000000000000e+00,-5.600000000000000000e+01,-3.000000000000000000e+00,8.000000000000000000e+00,-1.000000000000000000e+00,-1.000000000000000000e+00,1.000000000000000000e+00,4.171752929687500000e-01,1.807250976562500000e-01,-8.905639648437500000e-01,-1.477050781250000000e-02
-3.000000000000000000e+00,-8.000000000000000000e+00,-1.100000000000000000e+01,-1.800000000000000000e+01,-2.000000000000000000e+00,-4.000000000000000000e+00,1.000000000000000000e+01,-3.000000000000000000e+00,4.167480468750000000e-01,1.806030273437500000e-01,-8.908081054687500000e-01,-1.470947265625000000e-02
-4.000000000000000000e+00,-1.000000000000000000e+00,-1.600000000000000000e+01,-4.000000000000000000e+00,2.000000000000000000e+00,3.000000000000000000e+00,6.000000000000000000e+00,6.000000000000000000e+00,4.167480468750000000e-01,1.806030273437500000e-01,-8.908081054687500000e-01,-1.470947265625000000e-02
1.000000000000000000e+00,0.000000000000000000e+00,-1.800000000000000000e+01,-9.000000000000000000e+00,-3.000000000000000000e+00,-4.000000000000000000e+00,-1.200000000000000000e+01,-2.000000000000000000e+00,4.167480468750000000e-01,1.806030273437500000e-01,-8.908081054687500000e-01,-1.470947265625000000e-02
-1.000000000000000000e+00,4.000000000000000000e+00,-3.600000000000000000e+01,-1.600000000000000000e+01,6.000000000000000000e+00,1.000000000000000000e+00,5.000000000000000000e+00,1.000000000000000000e+00,4.167480468750000000e-01,1.806030273437500000e-01,-8.908081054687500000e-01,-1.470947265625000000e-02
1.300000000000000000e+01,1.800000000000000000e+01,1.170000000000000000e+02,6.800000000000000000e+01,6.000000000000000000e+00,3.000000000000000000e+00,1.700000000000000000e+01,0.000000000000000000e+00,4.163208007812500000e-01,1.803588867187500000e-01,-8.910522460937500000e-01,-1.477050781250000000e-02
-1.200000000000000000e+01,-1.700000000000000000e+01,-1.200000000000000000e+01,-3.200000000000000000e+01,-1.200000000000000000e+01,-4.000000000000000000e+00,-4.000000000000000000e+00,-5.000000000000000000e+00,4.163208007812500000e-01,1.803588867187500000e-01,-8.910522460937500000e-01,-1.477050781250000000e-02
-5.000000000000000000e+00,-4.000000000000000000e+00,-3.100000000000000000e+01,-1.100000000000000000e+01,-4.000000000000000000e+00,-1.000000000000000000e+00,-1.000000000000000000e+00,-1.000000000000000000e+00,4.163208007812500000e-01,1.803588867187500000e-01,-8.910522460937500000e-01,-1.477050781250000000e-02
4.000000000000000000e+00,-1.000000000000000000e+00,2.200000000000000000e+01,4.000000000000000000e+00,-3.000000000000000000e+00,-2.000000000000000000e+00,-1.300000000000000000e+01,-2.000000000000000000e+00,4.163208007812500000e-01,1.803588867187500000e-01,-8.910522460937500000e-01,-1.477050781250000000e-02
1.000000000000000000e+01,4.000000000000000000e+00,1.600000000000000000e+01,8.000000000000000000e+00,2.000000000000000000e+00,5.000000000000000000e+00,2.200000000000000000e+01,2.000000000000000000e+00,4.159545898437500000e-01,1.808471679687500000e-01,-8.911132812500000000e-01,-1.446533203125000000e-02
-5.000000000000000000e+00,6.000000000000000000e+00,-9.000000000000000000e+00,1.000000000000000000e+00,5.000000000000000000e+00,1.000000000000000000e+00,-1.000000000000000000e+00,0.000000000000000000e+00,4.159545898437500000e-01,1.808471679687500000e-01,-8.911132812500000000e-01,-1.446533203125000000e-02
2.000000000000000000e+00,-3.000000000000000000e+00,2.000000000000000000e+00,9.000000000000000000e+00,1.000000000000000000e+00,-3.000000000000000000e+00,5.000000000000000000e+00,-4.000000000000000000e+00,4.159545898437500000e-01,1.808471679687500000e-01,-8.911132812500000000e-01,-1.446533203125000000e-02
-5.000000000000000000e+00,-1.000000000000000000e+00,-7.000000000000000000e+00,-8.000000000000000000e+00,-7.000000000000000000e+00,-2.000000000000000000e+00,0.000000000000000000e+00,-2.000000000000000000e+00,4.159545898437500000e-01,1.808471679687500000e-01,-8.911132812500000000e-01,-1.446533203125000000e-02
0.000000000000000000e+00,-5.000000000000000000e+00,-2.100000000000000000e+01,-7.000000000000000000e+00,0.000000000000000000e+00,-1.000000000000000000e+00,-1.300000000000000000e+01,0.000000000000000000e+00,4.152221679687500000e-01,1.808471679687500000e-01,-8.914794921875000000e-01,-1.440429687500000000e-02
-3.000000000000000000e+00,1.500000000000000000e+01,3.900000000000000000e+01,2.100000000000000000e+01,8.000000000000000000e+00,1.000000000000000000e+00,-2.600000000000000000e+01,-3.000000000000000000e+00,4.152221679687500000e-01,1.808471679687500000e-01,-8.914794921875000000e-01,-1.440429687500000000e-02
1.100000000000000000e+01,-1.500000000000000000e+01,2.500000000000000000e+01,-4.000000000000000000e+00,-6.000000000000000000e+00,-3.000000000000000000e+00,1.700000000000000000e+01,0.000000000000000000e+00,4.152221679687500000e-01,1.808471679687500000e-01,-8.914794921875000000e-01,-1.440429687500000000e-02
-6.000000000000000000e+00,3.000000000000000000e+00,5.600000000000000000e+01,2.000000000000000000e+01,-4.000000000000000000e+00,-6.000000000000000000e+00,-1.000000000000000000e+01,-1.000000000000000000e+00,4.152221679687500000e-01,1.808471679687500000e-01,-8.914794921875000000e-01,-1.440429687500000000e-02
-5.000000000000000000e+00,-7.000000000000000000e+00,-6.000000000000000000e+00,0.000000000000000000e+00,-6.000000000000000000e+00,-1.000000000000000000e+00,-8.000000000000000000e+00,-5.000000000000000000e+00,4.144897460937500000e-01,1.809082031250000000e-01,-8.917846679687500000e-01,-1.422119140625000000e-02
5.000000000000000000e+00,6.000000000000000000e+00,-7.000000000000000000e+00,-1.300000000000000000e+01,0.000000000000000000e+00,3.000000000000000000e+00,1.800000000000000000e+01,4.000000000000000000e+00,4.144897460937500000e-01,1.809082031250000000e-01,-8.917846679687500000e-01,-1.422119140625000000e-02
