-1.200000000000000000e+01,1.000000000000000000e+00,-1.200000000000000000e+01,-1.100000000000000000e+01,-4.000000000000000000e+00,-2.000000000000000000e+00,0.000000000000000000e+00,-7.000000000000000000e+00,-3.808593750000000000e-01,3.040771484375000000e-01,6.776123046875000000e-01,5.507202148437500000e-01
-7.000000000000000000e+00,-8.000000000000000000e+00,-7.000000000000000000e+00,1.000000000000000000e+00,-1.000000000000000000e+00,-2.000000000000000000e+00,-1.300000000000000000e+01,-1.400000000000000000e+01,-3.808593750000000000e-01,3.040771484375000000e-01,6.776123046875000000e-01,5.507202148437500000e-01
0.000000000000000000e+00,3.000000000000000000e+00,1.100000000000000000e+01,-5.000000000000000000e+00,-4.000000000000000000e+00,-1.000000000000000000e+00,1.300000000000000000e+01,1.300000000000000000e+01,-3.809814453125000000e-01,3.023681640625000000e-01,6.776123046875000000e-01,5.515747070312500000e-01
-1.700000000000000000e+01,-1.500000000000000000e+01,4.000000000000000000e+00,-2.000000000000000000e+00,0.000000000000000000e+00,2.000000000000000000e+00,-6.000000000000000000e+00,-7.000000000000000000e+00,-3.809814453125000000e-01,3.023681640625000000e-01,6.776123046875000000e-01,5.515747070312500000e-01
2.700000000000000000e+01,3.000000000000000000e+00,-1.000000000000000000e+01,4.000000000000000000e+00,-5.000000000000000000e+00,-2.000000000000000000e+00,0.000000000000000000e+00,3.000000000000000000e+00,-3.809814453125000000e-01,3.023681640625000000e-01,6.776123046875000000e-01,5.515747070312500000e-01
-8.000000000000000000e+00,2.000000000000000000e+00,-8.000000000000000000e+00,0.000000000000000000e+00,4.000000000000000000e+00,0.000000000000000000e+00,-3.000000000000000000e+00,-4.000000000000000000e+00,-3.809814453125000000e-01,3.023681640625000000e-01,6.776123046875000000e-01,5.515747070312500000e-01
1.200000000000000000e+01,2.000000000000000000e+00,6.000000000000000000e+00,-1.600000000000000000e+01,-7.000000000000000000e+00,-6.000000000000000000e+00,0.000000000000000000e+00,-6.000000000000000000e+00,-3.804321289062500000e-01,3.014526367187500000e-01,6.775512695312500000e-01,5.524902343750000000e-01
-1.500000000000000000e+01,2.000000000000000000e+00,-2.000000000000000000e+00,3.000000000000000000e+00,-2.000000000000000000e+00,3.000000000000000000e+00,4.000000000000000000e+00,-3.000000000000000000e+00,-3.804321289062500000e-01,3.014526367187500000e-01,6.775512695312500000e-01,5.524902343750000000e-01
-2.800000000000000000e+01,-8.000000000000000000e+00,0.000000000000000000e+00,7.000000000000000000e+00,4.000000000000000000e+00,1.000000000000000000e+00,-9.000000000000000000e+00,1.000000000000000000e+00,-3.804321289062500000e-01,3.014526367187500000e-01,6.775512695312500000e-01,5.524902343750000000e-01
3.400000000000000000e+01,3.000000000000000000e+00,3.000000000000000000e+00,-5.000000000000000000e+00,-4.000000000000000000e+00,0.000000000000000000e+00,1.000000000000000000e+00,2.000000000000000000e+00,-3.804321289062500000e-01,3.014526367187500000e-01,6.775512695312500000e-01,5.524902343750000000e-01
-7.000000000000000000e+00,9.000000000000000000e+00,-6.000000000000000000e+00,5.000000000000000000e+00,-6.000000000000000000e+00,-6.000000000000000000e+00,-2.000000000000000000e+00,-5.000000000000000000e+00,-3.796997070312500000e-01,3.008422851562500000e-01,6.776123046875000000e-01,5.532836914062500000e-01
3.000000000000000000e+00,1.000000000000000000e+00,2.000000000000000000e+00,-6.000000000000000000e+00,8.000000000000000000e+00,0.000000000000000000e+00,1.000000000000000000e+00,1.000000000000000000e+00,-3.796997070312500000e-01,3.008422851562500000e-01,6.776123046875000000e-01,5.532836914062500000e-01
6.000000000000000000e+00,1.300000000000000000e+01,1.100000000000000000e+01,-7.000000000000000000e+00,-8.000000000000000000e+00,0.000000000000000000e+00,3.000000000000000000e+00,-2.000000000000000000e+00,-3.796997070312500000e-01,3.008422851562500000e-01,6.776123046875000000e-01,5.532836914062500000e-01
-8.100000000000000000e+01,-1.800000000000000000e+01,-1.300000000000000000e+01,9.000000000000000000e+00,3.000000000000000000e+00,-2.000000000000000000e+00,-1.100000000000000000e+01,-1.900000000000000000e+01,-3.796997070312500000e-01,3.008422851562500000e-01,6.776123046875000000e-01,5.532836914062500000e-01
7.600000000000000000e+01,5.000000000000000000e+00,3.000000000000000000e+00,5.000000000000000000e+00,-1.000000000000000000e+00,-2.000000000000000000e+00,1.000000000000000000e+01,2.100000000000000000e+01,-3.792114257812500000e-01,2.996215820312500000e-01,6.774902343750000000e-01,5.543823242187500000e-01
-1.700000000000000000e+01,-1.100000000000000000e+01,-1.200000000000000000e+01,7.000000000000000000e+00,-7.000000000000000000e+00,-3.000000000000000000e+00,-1.200000000000000000e+01,-1.300000000000000000e+01,-3.792114257812500000e-01,2.996215820312500000e-01,6.774902343750000000e-01,5.543823242187500000e-01
-9.000000000000000000e+00,-1.000000000000000000e+00,2.000000000000000000e+00,-6.000000000000000000e+00,3.000000000000000000e+00,9.000000000000000000e+00,1.900000000000000000e+01,5.000000000000000000e+00,-3.792114257812500000e-01,2.996215820312500000e-01,6.774902343750000000e-01,5.543823242187500000e-01
-2.000000000000000000e+00,4.000000000000000000e+00,1.000000000000000000e+00,0.000000000000000000e+00,-4.000000000000000000e+00,-1.000000000000000000e+00,-8.000000000000000000e+00,-5.000000000000000000e+00,-3.792114257812500000e-01,2.996215820312500000e-01,6.774902343750000000e-01,5.543823242187500000e-01
-9.000000000000000000e+00,4.000000000000000000e+00,-1.000000000000000000e+00,-1.000000000000000000e+00,2.000000000000000000e+00,-3.000000000000000000e+00,2.000000000000000000e+00,1.000000000000000000e+00,-3.788452148437500000e-01,2.978515625000000000e-01,6.776733398437500000e-01,5.553588867187500000e-01
1.400000000000000000e+01,0.000000000000000000e+00,-5.000000000000000000e+00,-2.000000000000000000e+00,4.000000000000000000e+00,-1.000000000000000000e+00,-4.000000000000000000e+00,2.000000000000000000e+00,-3.788452148437500000e-01,2.978515625000000000e-01,6.776733398437500000e-01,5.553588867187500000e-01
1.000000000000000000e+01,-7.000000000000000000e+00,2.000000000000000000e+00,2.000000000000000000e+00,-1.000000000000000000e+00,0.000000000000000000e+00,7.000000000000000000e+00,4.000000000000000000e+00,-3.788452148437500000e-01,2.978515625000000000e-01,6.776733398437500000e-01,5.553588867187500000e-01
0.000000000000000000e+00,0.000000000000000000e+00,6.000000000000000000e+00,-1.000000000000000000e+00,-5.000000000000000000e+00,-4.000000000000000000e+00,-5.000000000000000000e+00,-6.000000000000000000e+00,-3.788452148437500000e-01,2.978515625000000000e-01,6.776733398437500000e-01,5.553588867187500000e-01
-2.100000000000000000e+01,-4.000000000000000000e+00,-1.300000000000000000e+01,4.000000000000000000e+00,6.000000000000000000e+00,2.000000000000000000e+00,3.000000000000000000e+00,-2.000000000000000000e+00,-3.782958984375000000e-01,2.965087890625000000e-01,6.779174804687500000e-01,5.561523437500000000e-01
2.100000000000000000e+01,1.000000000000000000e+01,-1.000000000000000000e+00,-3.000000000000000000e+00,-2.000000000000000000e+00,-1.000000000000000000e+00,-2.000000000000000000e+00,2.000000000000000000e+00,-3.782958984375000000e-01,2.965087890625000000e-01,6.779174804687500000e-01,5.561523437500000000e-01
-1.800000000000000000e+01,-2.000000000000000000e+00,3.000000000000000000e+00,1.000000000000000000e+00,-2.000000000000000000e+00,-6.000000000000000000e+00,-9.000000000000000000e+00,-9.000000000000000000e+00,-3.782958984375000000e-01,2.965087890625000000e-01,6.779174804687500000e-01,5.561523437500000000e-01
5.100000000000000000e+01,5.000000000000000000e+00,1.000000000000000000e+00,-1.000000000000000000e+00,-2.000000000000000000e+00,-1.000000000000000000e+00,1.200000000000000000e+01,2.000000000000000000e+01,-3.782958984375000000e-01,2.965087890625000000e-01,6.779174804687500000e-01,5.561523437500000000e-01
-2.400000000000000000e+01,4.000000000000000000e+00,1.100000000000000000e+01,9.000000000000000000e+00,5.000000000000000000e+00,-2.000000000000000000e+00,-7.000000000000000000e+00,-1.300000000000000000e+01,-3.781738281250000000e-01,2.947998046875000000e-01,6.780395507812500000e-01,5.570678710937500000e-01
-2.300000000000000000e+01,4.000000000000000000e+00,5.000000000000000000e+00,-2.000000000000000000e+00,-2.000000000000000000e+00,0.000000000000000000e+00,2.000000000000000000e+00,0.000000000000000000e+00,-3.781738281250000000e-01,2.947998046875000000e-01,6.780395507812500000e-01,5.570678710937500000e-01
1.000000000000000000e+01,3.000000000000000000e+00,-3.000000000000000000e+00,5.000000000000000000e+00,-2.000000000000000000e+00,-1.000000000000000000e+00,1.000000000000000000e+00,-3.000000000000000000e+00,-3.781738281250000000e-01,2.947998046875000000e-01,6.780395507812500000e-01,5.570678710937500000e-01
-1.600000000000000000e+01,-6.000000000000000000e+00,7.000000000000000000e+00,-1.000000000000000000e+01,-1.000000000000000000e+00,0.000000000000000000e+00,-4.000000000000000000e+00,0.000000000000000000e+00,-3.781738281250000000e-01,2.947998046875000000e-01,6.780395507812500000e-01,5.570678710937500000e-01
-3.000000000000000000e+00,-2.100000000000000000e+01,-1.700000000000000000e+01,2.000000000000000000e+00,-2.000000000000000000e+00,1.000000000000000000e+00,-1.100000000000000000e+01,-3.000000000000000000e+00,-3.779296875000000000e-01,2.931518554687500000e-01,6.779785156250000000e-01,5.581054687500000000e-01
4.000000000000000000e+00,1.000000000000000000e+00,-8.000000000000000000e+00,-7.000000000000000000e+00,-8.000000000000000000e+00,2.000000000000000000e+00,7.000000000000000000e+00,0.000000000000000000e+00,-3.779296875000000000e-01,2.931518554687500000e-01,6.779785156250000000e-01,5.581054687500000000e-01
-6.000000000000000000e+00,0.000000000000000000e+00,5.000000000000000000e+00,-2.000000000000000000e+00,-1.000000000000000000e+00,-2.000000000000000000e+00,-7.000000000000000000e+00,-5.000000000000000000e+00,-3.779296875000000000e-01,2.931518554687500000e-01,6.779785156250000000e-01,5.581054687500000000e-01
-1.000000000000000000e+01,4.000000000000000000e+00,-5.000000000000000000e+00,7.000000000000000000e+00,0.000000000000000000e+00,0.000000000000000000e+00,0.000000000000000000e+00,-3.000000000000000000e+00,-3.779296875000000000e-01,2.931518554687500000e-01,6.779785156250000000e-01,5.581054687500000000e-01
-4.000000000000000000e+00,7.000000000000000000e+00,9.000000000000000000e+00,-6.000000000000000000e+00,-1.000000000000000000e+00,-1.000000000000000000e+00,-1.000000000000000000e+00,-3.000000000000000000e+00,-3.780517578125000000e-01,2.915039062500000000e-01,6.779174804687500000e-01,5.589599609375000000e-01
-2.500000000000000000e+01,-1.600000000000000000e+01,-3.000000000000000000e+00,-1.000000000000000000e+01,1.000000000000000000e+00,0.000000000000000000e+00,-2.000000000000000000e+00,0.000000000000000000e+00,-3.780517578125000000e-01,2.915039062500000000e-01,6.779174804687500000e-01,5.589599609375000000e-01
1.000000000000000000e+01,-4.000000000000000000e+00,1.000000000000000000e+00,2.000000000000000000e+00,-5.000000000000000000e+00,-5.000000000000000000e+00,-1.000000000000000000e+00,0.000000000000000000e+00,-3.780517578125000000e-01,2.915039062500000000e-01,6.779174804687500000e-01,5.589599609375000000e-01
2.000000000000000000e+00,4.000000000000000000e+00,1.000000000000000000e+00,5.000000000000000000e+00,7.000000000000000000e+00,-2.000000000000000000e+00,-4.000000000000000000e+00,-1.000000000000000000e+00,-3.780517578125000000e-01,2.915039062500000000e-01,6.779174804687500000e-01,5.589599609375000000e-01
-1.000000000000000000e+01,-2.000000000000000000e+00,2.000000000000000000e+00,-3.000000000000000000e+00,-3.000000000000000000e+00,8.000000000000000000e+00,7.000000000000000000e+00,-3.000000000000000000e+00,-3.782958984375000000e-01,2.902832031250000000e-01,6.775512695312500000e-01,5.598754882812500000e-01
1.800000000000000000e+01,5.000000000000000000e+00,0.000000000000000000e+00,-1.000000000000000000e+00,0.000000000000000000e+00,-4.000000000000000000e+00,-5.000000000000000000e+00,6.000000000000000000e+00,-3.782958984375000000e-01,2.902832031250000000e-01,6.775512695312500000e-01,5.598754882812500000e-01
-5.000000000000000000e+00,1.000000000000000000e+00,-3.000000000000000000e+00,2.000000000000000000e+00,0.000000000000000000e+00,-1.000000000000000000e+00,-1.000000000000000000e+00,0.000000000000000000e+00,-3.782958984375000000e-01,2.902832031250000000e-01,6.775512695312500000e-01,5.598754882812500000e-01
9.000000000000000000e+00,-5.000000000000000000e+00,0.000000000000000000e+00,-4.000000000000000000e+00,3.000000000000000000e+00,1.000000000000000000e+00,3.000000000000000000e+00,3.000000000000000000e+00,-3.782958984375000000e-01,2.902832031250000000e-01,6.775512695312500000e-01,5.598754882812500000e-01
-1.900000000000000000e+01,3.000000000000000000e+00,8.000000000000000000e+00,-3.000000000000000000e+00,-3.000000000000000000e+00,-4.000000000000000000e+00,-2.000000000000000000e+00,-8.000000000000000000e+00,-3.782348632812500000e-01,2.892456054687500000e-01,6.771850585937500000e-01,5.609130859375000000e-01
1.800000000000000000e+01,-5.000000000000000000e+00,-1.000000000000000000e+01,0.000000000000000000e+00,2.000000000000000000e+00,1.000000000000000000e+00,0.000000000000000000e+00,-3.000000000000000000e+00,-3.782348632812500000e-01,2.892456054687500000e-01,6.771850585937500000e-01,5.609130859375000000e-01
-6.000000000000000000e+00,-3.000000000000000000e+00,-2.000000000000000000e+00,3.000000000000000000e+00,0.000000000000000000e+00,-5.000000000000000000e+00,-4.000000000000000000e+00,-2.000000000000000000e+00,-3.782348632812500000e-01,2.892456054687500000e-01,6.771850585937500000e-01,5.609130859375000000e-01
1.100000000000000000e+01,0.000000000000000000e+00,3.000000000000000000e+00,-4.000000000000000000e+00,0.000000000000000000e+00,3.000000000000000000e+00,-3.000000000000000000e+00,5.000000000000000000e+00,-3.782348632812500000e-01,2.892456054687500000e-01,6.771850585937500000e-01,5.609130859375000000e-01
-9.000000000000000000e+00,-6.000000000000000000e+00,-4.000000000000000000e+00,-2.000000000000000000e+00,-4.000000000000000000e+00,-4.000000000000000000e+00,-1.000000000000000000e+00,0.000000000000000000e+00,-3.784790039062500000e-01,2.878417968750000000e-01,6.770629882812500000e-01,5.615844726562500000e-01
0.000000000000000000e+00,4.000000000000000000e+00,0.000000000000000000e+00,0.000000000000000000e+00,-2.000000000000000000e+00,1.000000000000000000e+00,1.000000000000000000e+00,-2.000000000000000000e+00,-3.784790039062500000e-01,2.878417968750000000e-01,6.770629882812500000e-01,5.615844726562500000e-01
2.800000000000000000e+01,-6.000000000000000000e+00,-4.000000000000000000e+00,-3.000000000000000000e+00,-4.000000000000000000e+00,-3.000000000000000000e+00,-2.000000000000000000e+00,3.000000000000000000e+00,-3.784790039062500000e-01,2.878417968750000000e-01,6.770629882812500000e-01,5.615844726562500000e-01
-1.100000000000000000e+01,-2.000000000000000000e+00,-9.000000000000000000e+00,-1.000000000000000000e+00,-1.000000000000000000e+00,2.000000000000000000e+00,1.000000000000000000e+00,-5.000000000000000000e+00,-3.784790039062500000e-01,2.878417968750000000e-01,6.770629882812500000e-01,5.615844726562500000e-01
-6.000000000000000000e+00,4.000000000000000000e+00,1.200000000000000000e+01,0.000000000000000000e+00,-2.000000000000000000e+00,0.000000000000000000e+00,2.000000000000000000e+00,6.000000000000000000e+00,-3.789672851562500000e-01,2.860717773437500000e-01,6.773071289062500000e-01,5.619506835937500000e-01
-2.000000000000000000e+00,-3.000000000000000000e+00,6.000000000000000000e+00,-2.000000000000000000e+00,-2.000000000000000000e+00,-3.000000000000000000e+00,-7.000000000000000000e+00,-4.000000000000000000e+00,-3.789672851562500000e-01,2.860717773437500000e-01,6.773071289062500000e-01,5.619506835937500000e-01
0.000000000000000000e+00,5.000000000000000000e+00,-4.000000000000000000e+00,8.000000000000000000e+00,-1.000000000000000000e+00,-4.000000000000000000e+00,2.000000000000000000e+00,2.000000000000000000e+00,-3.789672851562500000e-01,2.860717773437500000e-01,6.773071289062500000e-01,5.619506835937500000e-01
-1.000000000000000000e+01,5.000000000000000000e+00,-1.000000000000000000e+00,-7.000000000000000000e+00,-1.000000000000000000e+00,-2.000000000000000000e+00,-3.000000000000000000e+00,-6.000000000000000000e+00,-3.789672851562500000e-01,2.860717773437500000e-01,6.773071289062500000e-01,5.619506835937500000e-01
3.400000000000000000e+01,0.000000000000000000e+00,-6.000000000000000000e+00,-3.000000000000000000e+00,-4.000000000000000000e+00,-4.000000000000000000e+00,-3.000000000000000000e+00,4.000000000000000000e+00,-3.796386718750000000e-01,2.841796875000000000e-01,6.775512695312500000e-01,5.621337890625000000e-01
3.000000000000000000e+00,-4.000000000000000000e+00,1.000000000000000000e+00,-7.000000000000000000e+00,-2.000000000000000000e+00,3.000000000000000000e+00,1.000000000000000000e+01,4.000000000000000000e+00,-3.796386718750000000e-01,2.841796875000000000e-01,6.775512695312500000e-01,5.621337890625000000e-01
-2.700000000000000000e+01,6.000000000000000000e+00,1.000000000000000000e+00,-4.000000000000000000e+00,-2.000000000000000000e+00,0.000000000000000000e+00,-3.000000000000000000e+00,-2.000000000000000000e+00,-3.796386718750000000e-01,2.841796875000000000e-01,6.775512695312500000e-01,5.621337890625000000e-01
4.300000000000000000e+01,-3.000000000000000000e+00,-4.000000000000000000e+00,9.000000000000000000e+00,5.000000000000000000e+00,0.000000000000000000e+00,2.000000000000000000e+00,4.000000000000000000e+00,-3.796386718750000000e-01,2.841796875000000000e-01,6.775512695312500000e-01,5.621337890625000000e-01
-3.100000000000000000e+01,0.000000000000000000e+00,-1.000000000000000000e+00,-1.000000000000000000e+00,1.000000000000000000e+00,-2.000000000000000000e+00,-6.000000000000000000e+00,-1.000000000000000000e+01,-3.796386718750000000e-01,2.825317382812500000e-01,6.779785156250000000e-01,5.624389648437500000e-01
9.000000000000000000e+00,-9.000000000000000000e+00,-4.000000000000000000e+00,-1.200000000000000000e+01,-9.000000000000000000e+00,-4.000000000000000000e+00,-1.000000000000000000e+00,-2.000000000000000000e+00,-3.796386718750000000e-01,2.825317382812500000e-01,6.779785156250000000e-01,5.624389648437500000e-01
-1.100000000000000000e+01,-5.000000000000000000e+00,5.000000000000000000e+00,1.400000000000000000e+01,1.200000000000000000e+01,6.000000000000000000e+00,-1.000000000000000000e+00,0.000000000000000000e+00,-3.796386718750000000e-01,2.825317382812500000e-01,6.779785156250000000e-01,5.624389648437500000e-01
-3.100000000000000000e+01,-1.500000000000000000e+01,-1.000000000000000000e+00,-2.000000000000000000e+00,-1.000000000000000000e+01,-5.000000000000000000e+00,-2.000000000000000000e+00,-3.000000000000000000e+00,-3.796386718750000000e-01,2.825317382812500000e-01,6.779785156250000000e-01,5.624389648437500000e-01
1.700000000000000000e+01,7.000000000000000000e+00,6.000000000000000000e+00,-3.000000000000000000e+00,2.000000000000000000e+00,0.000000000000000000e+00,7.000000000000000000e+00,3.000000000000000000e+00,-3.790893554687500000e-01,2.818603515625000000e-01,6.783447265625000000e-01,5.626831054687500000e-01
-2.000000000000000000e+00,2.000000000000000000e+00,1.000000000000000000e+00,5.000000000000000000e+00,2.000000000000000000e+00,1.000000000000000000e+00,-4.000000000000000000e+00,-2.000000000000000000e+00,-3.790893554687500000e-01,2.818603515625000000e-01,6.783447265625000000e-01,5.626831054687500000e-01
-2.000000000000000000e+00,5.000000000000000000e+00,0.000000000000000000e+00,-8.000000000000000000e+00,-5.000000000000000000e+00,-4.000000000000000000e+00,0.000000000000000000e+00,-2.000000000000000000e+00,-3.790893554687500000e-01,2.818603515625000000e-01,6.783447265625000000e-01,5.626831054687500000e-01
-4.000000000000000000e+00,3.000000000000000000e+00,-3.000000000000000000e+00,-5.000000000000000000e+00,0.000000000000000000e+00,0.000000000000000000e+00,1.000000000000000000e+00,-2.000000000000000000e+00,-3.790893554687500000e-01,2.818603515625000000e-01,6.783447265625000000e-01,5.626831054687500000e-01
-1.700000000000000000e+01,-4.000000000000000000e+00,-6.000000000000000000e+00,5.000000000000000000e+00,1.000000000000000000e+00,-1.000000000000000000e+00,-3.000000000000000000e+00,-9.000000000000000000e+00,-3.785400390625000000e-01,2.813110351562500000e-01,6.788330078125000000e-01,5.627441406250000000e-01
8.000000000000000000e+00,-2.000000000000000000e+00,-4.000000000000000000e+00,7.000000000000000000e+00,6.000000000000000000e+00,-2.000000000000000000e+00,0.000000000000000000e+00,3.000000000000000000e+00,-3.785400390625000000e-01,2.813110351562500000e-01,6.788330078125000000e-01,5.627441406250000000e-01
2.500000000000000000e+01,-7.000000000000000000e+00,-1.000000000000000000e+00,-1.300000000000000000e+01,-7.000000000000000000e+00,0.000000000000000000e+00,-1.000000000000000000e+00,8.000000000000000000e+00,-3.785400390625000000e-01,2.813110351562500000e-01,6.788330078125000000e-01,5.627441406250000000e-01
-8.000000000000000000e+00,5.000000000000000000e+00,-4.000000000000000000e+00,1.000000000000000000e+00,3.000000000000000000e+00,2.000000000000000000e+00,3.000000000000000000e+00,-2.000000000000000000e+00,-3.785400390625000000e-01,2.813110351562500000e-01,6.788330078125000000e-01,5.627441406250000000e-01
5.000000000000000000e+00,-7.000000000000000000e+00,-5.000000000000000000e+00,-3.000000000000000000e+00,-2.000000000000000000e+00,1.000000000000000000e+00,4.000000000000000000e+00,4.000000000000000000e+00,-3.783569335937500000e-01,2.803955078125000000e-01,6.792602539062500000e-01,5.628051757812500000e-01
-4.000000000000000000e+00,1.000000000000000000e+01,-3.000000000000000000e+00,5.000000000000000000e+00,2.000000000000000000e+00,0.000000000000000000e+00,-4.000000000000000000e+00,-1.000000000000000000e+00,-3.783569335937500000e-01,2.803955078125000000e-01,6.792602539062500000e-01,5.628051757812500000e-01
-1.000000000000000000e+01,-5.000000000000000000e+00,-6.000000000000000000e+00,3.000000000000000000e+00,1.000000000000000000e+00,-3.000000000000000000e+00,-3.000000000000000000e+00,-6.000000000000000000e+00,-3.783569335937500000e-01,2.803955078125000000e-01,6.792602539062500000e-01,5.628051757812500000e-01
-1.300000000000000000e+01,-2.000000000000000000e+00,-1.000000000000000000e+00,0.000000000000000000e+00,-1.000000000000000000e+00,0.000000000000000000e+00,1.000000000000000000e+00,0.000000000000000000e+00,-3.783569335937500000e-01,2.803955078125000000e-01,6.792602539062500000e-01,5.628051757812500000e-01
-6.000000000000000000e+00,-2.000000000000000000e+00,-6.000000000000000000e+00,-1.000000000000000000e+00,0.000000000000000000e+00,-3.000000000000000000e+00,-5.000000000000000000e+00,-3.000000000000000000e+00,-3.785400390625000000e-01,2.789306640625000000e-01,6.795654296875000000e-01,5.630493164062500000e-01
4.000000000000000000e+00,2.000000000000000000e+00,1.000000000000000000e+00,3.000000000000000000e+00,0.000000000000000000e+00,-1.000000000000000000e+00,-4.000000000000000000e+00,-4.000000000000000000e+00,-3.785400390625000000e-01,2.789306640625000000e-01,6.795654296875000000e-01,5.630493164062500000e-01
-9.000000000000000000e+00,-1.200000000000000000e+01,-8.000000000000000000e+00,-1.500000000000000000e+01,-9.000000000000000000e+00,-3.000000000000000000e+00,-4.000000000000000000e+00,-7.000000000000000000e+00,-3.785400390625000000e-01,2.789306640625000000e-01,6.795654296875000000e-01,5.630493164062500000e-01
-4.700000000000000000e+01,2.000000000000000000e+00,0.000000000000000000e+00,9.000000000000000000e+00,-2.000000000000000000e+00,-2.000000000000000000e+00,1.000000000000000000e+00,-1.200000000000000000e+01,-3.785400390625000000e-01,2.789306640625000000e-01,6.795654296875000000e-01,5.630493164062500000e-01
7.300000000000000000e+01,1.800000000000000000e+01,8.000000000000000000e+00,-4.000000000000000000e+00,4.000000000000000000e+00,7.000000000000000000e+00,2.000000000000000000e+01,4.500000000000000000e+01,-3.782348632812500000e-01,2.783813476562500000e-01,6.796264648437500000e-01,5.634765625000000000e-01
-5.000000000000000000e+00,-1.500000000000000000e+01,-1.300000000000000000e+01,-2.000000000000000000e+00,0.000000000000000000e+00,3.000000000000000000e+00,1.000000000000000000e+00,-1.000000000000000000e+01,-3.782348632812500000e-01,2.783813476562500000e-01,6.796264648437500000e-01,5.634765625000000000e-01
-1.600000000000000000e+01,-1.000000000000000000e+01,-3.000000000000000000e+00,-1.000000000000000000e+01,-7.000000000000000000e+00,-7.000000000000000000e+00,-1.000000000000000000e+01,-6.000000000000000000e+00,-3.782348632812500000e-01,2.783813476562500000e-01,6.796264648437500000e-01,5.634765625000000000e-01
-3.000000000000000000e+00,2.000000000000000000e+00,-1.000000000000000000e+00,1.000000000000000000e+00,1.000000000000000000e+00,-2.000000000000000000e+00,-7.000000000000000000e+00,-1.800000000000000000e+01,-3.782348632812500000e-01,2.783813476562500000e-01,6.796264648437500000e-01,5.634765625000000000e-01
-3.200000000000000000e+01,-2.000000000000000000e+00,4.000000000000000000e+00,2.000000000000000000e+00,-4.000000000000000000e+00,-4.000000000000000000e+00,-5.000000000000000000e+00,-1.200000000000000000e+01,-3.777465820312500000e-01,2.783813476562500000e-01,6.794433593750000000e-01,5.640258789062500000e-01
1.100000000000000000e+01,6.000000000000000000e+00,5.000000000000000000e+00,1.000000000000000000e+00,-2.000000000000000000e+00,-5.000000000000000000e+00,3.000000000000000000e+00,1.000000000000000000e+01,-3.777465820312500000e-01,2.783813476562500000e-01,6.794433593750000000e-01,5.640258789062500000e-01
6.000000000000000000e+00,2.000000000000000000e+00,-7.000000000000000000e+00,-2.000000000000000000e+00,5.000000000000000000e+00,3.000000000000000000e+00,5.000000000000000000e+00,-1.000000000000000000e+00,-3.777465820312500000e-01,2.783813476562500000e-01,6.794433593750000000e-01,5.640258789062500000e-01
1.000000000000000000e+01,-1.000000000000000000e+00,0.000000000000000000e+00,-3.000000000000000000e+00,-2.000000000000000000e+00,-3.000000000000000000e+00,-2.000000000000000000e+00,5.000000000000000000e+00,-3.777465820312500000e-01,2.783813476562500000e-01,6.794433593750000000e-01,5.640258789062500000e-01
-1.100000000000000000e+01,-1.400000000000000000e+01,-2.000000000000000000e+00,0.000000000000000000e+00,-3.000000000000000000e+00,-1.000000000000000000e+00,-6.000000000000000000e+00,-4.000000000000000000e+00,-3.776855468750000000e-01,2.783203125000000000e-01,6.794433593750000000e-01,5.640258789062500000e-01
4.000000000000000000e+00,5.000000000000000000e+00,2.000000000000000000e+00,-5.000000000000000000e+00,-5.000000000000000000e+00,-2.000000000000000000e+00,-3.000000000000000000e+00,-1.000000000000000000e+00,-3.776855468750000000e-01,2.783203125000000000e-01,6.794433593750000000e-01,5.640258789062500000e-01
-1.400000000000000000e+01,2.000000000000000000e+00,8.000000000000000000e+00,5.000000000000000000e+00,8.000000000000000000e+00,1.000000000000000000e+00,3.000000000000000000e+00,-4.000000000000000000e+00,-3.776855468750000000e-01,2.783203125000000000e-01,6.794433593750000000e-01,5.640258789062500000e-01
2.000000000000000000e+01,4.000000000000000000e+00,-1.000000000000000000e+01,6.000000000000000000e+00,4.000000000000000000e+00,2.000000000000000000e+00,1.000000000000000000e+00,8.000000000000000000e+00,-3.776855468750000000e-01,2.783203125000000000e-01,6.794433593750000000e-01,5.640258789062500000e-01
-1.000000000000000000e+01,-1.100000000000000000e+01,2.000000000000000000e+00,-1.000000000000000000e+01,-1.000000000000000000e+01,-4.000000000000000000e+00,-3.000000000000000000e+00,-8.000000000000000000e+00,-3.778076171875000000e-01,2.778930664062500000e-01,6.794433593750000000e-01,5.642089843750000000e-01
-5.000000000000000000e+00,4.000000000000000000e+00,-2.000000000000000000e+00,7.000000000000000000e+00,0.000000000000000000e+00,-4.000000000000000000e+00,-6.000000000000000000e+00,-8.000000000000000000e+00,-3.778076171875000000e-01,2.778930664062500000e-01,6.794433593750000000e-01,5.642089843750000000e-01
7.000000000000000000e+00,2.000000000000000000e+00,-1.000000000000000000e+00,-2.000000000000000000e+00,0.000000000000000000e+00,3.000000000000000000e+00,1.000000000000000000e+00,6.000000000000000000e+00,-3.778076171875000000e-01,2.778930664062500000e-01,6.794433593750000000e-01,5.642089843750000000e-01
1.000000000000000000e+00,-3.000000000000000000e+00,6.000000000000000000e+00,-2.000000000000000000e+00,-3.000000000000000000e+00,-1.000000000000000000e+00,-1.000000000000000000e+00,0.000000000000000000e+00,-3.778076171875000000e-01,2.778930664062500000e-01,6.794433593750000000e-01,5.642089843750000000e-01
9.000000000000000000e+00,-1.000000000000000000e+00,-4.000000000000000000e+00,0.000000000000000000e+00,1.000000000000000000e+00,0.000000000000000000e+00,0.000000000000000000e+00,-2.000000000000000000e+00,-3.778076171875000000e-01,2.777099609375000000e-01,6.794433593750000000e-01,5.642700195312500000e-01
-2.000000000000000000e+01,-2.000000000000000000e+00,1.000000000000000000e+00,-4.000000000000000000e+00,-2.000000000000000000e+00,0.000000000000000000e+00,-2.000000000000000000e+00,-3.000000000000000000e+00,-3.778076171875000000e-01,2.777099609375000000e-01,6.794433593750000000e-01,5.642700195312500000e-01
6.000000000000000000e+00,4.000000000000000000e+00,-1.000000000000000000e+00,0.000000000000000000e+00,-4.000000000000000000e+00,-4.000000000000000000e+00,2.000000000000000000e+00,2.000000000000000000e+00,-3.778076171875000000e-01,2.777099609375000000e-01,6.794433593750000000e-01,5.642700195312500000e-01
7.000000000000000000e+00,-1.000000000000000000e+00,-1.000000000000000000e+00,-4.000000000000000000e+00,-1.000000000000000000e+00,0.000000000000000000e+00,-1.000000000000000000e+00,1.000000000000000000e+00,-3.778076171875000000e-01,2.777099609375000000e-01,6.794433593750000000e-01,5.642700195312500000e-01
-3.600000000000000000e+01,-6.000000000000000000e+00,-7.000000000000000000e+00,3.000000000000000000e+00,-2.000000000000000000e+00,-4.000000000000000000e+00,-1.400000000000000000e+01,-2.700000000000000000e+01,-3.779907226562500000e-01,2.770996093750000000e-01,6.796264648437500000e-01,5.642700195312500000e-01
1.600000000000000000e+01,1.100000000000000000e+01,-1.000000000000000000e+00,0.000000000000000000e+00,7.000000000000000000e+00,2.000000000000000000e+00,1.100000000000000000e+01,1.700000000000000000e+01,-3.779907226562500000e-01,2.770996093750000000e-01,6.796264648437500000e-01,5.642700195312500000e-01
4.300000000000000000e+01,6.000000000000000000e+00,-8.000000000000000000e+00,-5.000000000000000000e+00,-7.000000000000000000e+00,2.000000000000000000e+00,4.000000000000000000e+00,2.100000000000000000e+01,-3.779907226562500000e-01,2.770996093750000000e-01,6.796264648437500000e-01,5.642700195312500000e-01
-7.000000000000000000e+00,-1.400000000000000000e+01,3.000000000000000000e+00,-4.000000000000000000e+00,1.000000000000000000e+00,-2.000000000000000000e+00,-6.000000000000000000e+00,-7.000000000000000000e+00,-3.779907226562500000e-01,2.770996093750000000e-01,6.796264648437500000e-01,5.642700195312500000e-01
-8.000000000000000000e+00,4.000000000000000000e+00,1.000000000000000000e+00,3.000000000000000000e+00,0.000000000000000000e+00,-1.000000000000000000e+00,-3.000000000000000000e+00,-4.000000000000000000e+00,-3.781127929687500000e-01,2.762451171875000000e-01,6.798706054687500000e-01,5.643310546875000000e-01
-1.300000000000000000e+01,-1.000000000000000000e+00,-2.000000000000000000e+00,-2.000000000000000000e+00,-2.000000000000000000e+00,-3.000000000000000000e+00,-9.000000000000000000e+00,-1.600000000000000000e+01,-3.781127929687500000e-01,2.762451171875000000e-01,6.798706054687500000e-01,5.643310546875000000e-01
-9.000000000000000000e+00,2.000000000000000000e+00,-4.000000000000000000e+00,-3.000000000000000000e+00,1.000000000000000000e+00,1.000000000000000000e+00,3.000000000000000000e+00,-4.000000000000000000e+00,-3.781127929687500000e-01,2.762451171875000000e-01,6.798706054687500000e-01,5.643310546875000000e-01
7.000000000000000000e+00,-3.000000000000000000e+00,0.000000000000000000e+00,-2.000000000000000000e+00,-6.000000000000000000e+00,-1.000000000000000000e+00,-1.000000000000000000e+00,8.000000000000000000e+00,-3.781127929687500000e-01,2.762451171875000000e-01,6.798706054687500000e-01,5.643310546875000000e-01
-1.000000000000000000e+00,1.000000000000000000e+00,-1.000000000000000000e+00,-1.000000000000000000e+00,-1.000000000000000000e+00,-4.000000000000000000e+00,-5.000000000000000000e+00,-2.000000000000000000e+00,-3.784179687500000000e-01,2.750854492187500000e-01,6.803588867187500000e-01,5.640258789062500000e-01
1.000000000000000000e+00,-4.000000000000000000e+00,2.000000000000000000e+00,-4.000000000000000000e+00,-3.000000000000000000e+00,-1.000000000000000000e+00,1.000000000000000000e+00,2.000000000000000000e+00,-3.784179687500000000e-01,2.750854492187500000e-01,6.803588867187500000e-01,5.640258789062500000e-01
-7.000000000000000000e+00,-9.000000000000000000e+00,5.000000000000000000e+00,3.000000000000000000e+00,-5.000000000000000000e+00,-2.000000000000000000e+00,-6.000000000000000000e+00,-2.000000000000000000e+00,-3.784179687500000000e-01,2.750854492187500000e-01,6.803588867187500000e-01,5.640258789062500000e-01
1.300000000000000000e+01,8.000000000000000000e+00,7.000000000000000000e+00,-8.000000000000000000e+00,-3.000000000000000000e+00,1.000000000000000000e+00,2.000000000000000000e+00,3.000000000000000000e+00,-3.784179687500000000e-01,2.750854492187500000e-01,6.803588867187500000e-01,5.640258789062500000e-01
1.500000000000000000e+01,-1.000000000000000000e+01,-2.100000000000000000e+01,4.000000000000000000e+00,1.000000000000000000e+00,2.000000000000000000e+00,1.000000000000000000e+00,6.000000000000000000e+00,-3.786621093750000000e-01,2.743530273437500000e-01,6.807250976562500000e-01,5.637817382812500000e-01
1.000000000000000000e+00,-2.000000000000000000e+00,3.000000000000000000e+00,-4.000000000000000000e+00,-4.000000000000000000e+00,-4.000000000000000000e+00,-5.000000000000000000e+00,-3.000000000000000000e+00,-3.786621093750000000e-01,2.743530273437500000e-01,6.807250976562500000e-01,5.637817382812500000e-01
-1.400000000000000000e+01,1.000000000000000000e+00,0.000000000000000000e+00,1.000000000000000000e+00,2.000000000000000000e+00,1.000000000000000000e+00,0.000000000000000000e+00,-4.000000000000000000e+00,-3.786621093750000000e-01,2.743530273437500000e-01,6.807250976562500000e-01,5.637817382812500000e-01
-1.600000000000000000e+01,-2.000000000000000000e+00,6.000000000000000000e+00,1.000000000000000000e+00,-4.000000000000000000e+00,-2.000000000000000000e+00,-1.100000000000000000e+01,-1.000000000000000000e+01,-3.786621093750000000e-01,2.743530273437500000e-01,6.807250976562500000e-01,5.637817382812500000e-01
-3.000000000000000000e+00,4.000000000000000000e+00,6.000000000000000000e+00,-3.000000000000000000e+00,-3.000000000000000000e+00,0.000000000000000000e+00,6.000000000000000000e+00,7.000000000000000000e+00,-3.789672851562500000e-01,2.732543945312500000e-01,6.810913085937500000e-01,5.637207031250000000e-01
8.000000000000000000e+00,-3.000000000000000000e+00,-5.000000000000000000e+00,-1.000000000000000000e+00,0.000000000000000000e+00,2.000000000000000000e+00,7.000000000000000000e+00,5.000000000000000000e+00,-3.789672851562500000e-01,2.732543945312500000e-01,6.810913085937500000e-01,5.637207031250000000e-01
-1.000000000000000000e+00,1.000000000000000000e+00,-2.000000000000000000e+00,3.000000000000000000e+00,0.000000000000000000e+00,-3.000000000000000000e+00,-1.100000000000000000e+01,-8.000000000000000000e+00,-3.789672851562500000e-01,2.732543945312500000e-01,6.810913085937500000e-01,5.637207031250000000e-01
-4.000000000000000000e+00,-5.000000000000000000e+00,-2.000000000000000000e+00,0.000000000000000000e+00,0.000000000000000000e+00,0.000000000000000000e+00,2.000000000000000000e+00,-3.000000000000000000e+00,-3.789672851562500000e-01,2.732543945312500000e-01,6.810913085937500000e-01,5.637207031250000000e-01
-1.000000000000000000e+00,-2.000000000000000000e+00,-3.000000000000000000e+00,-4.000000000000000000e+00,-2.000000000000000000e+00,1.000000000000000000e+00,-4.000000000000000000e+00,-3.000000000000000000e+00,-3.791503906250000000e-01,2.727661132812500000e-01,6.812133789062500000e-01,5.637207031250000000e-01
-8.000000000000000000e+00,-3.000000000000000000e+00,8.000000000000000000e+00,0.000000000000000000e+00,-3.000000000000000000e+00,-1.000000000000000000e+00,-3.000000000000000000e+00,1.000000000000000000e+00,-3.791503906250000000e-01,2.727661132812500000e-01,6.812133789062500000e-01,5.637207031250000000e-01
1.800000000000000000e+01,-3.000000000000000000e+00,2.000000000000000000e+00,-1.000000000000000000e+00,0.000000000000000000e+00,-4.000000000000000000e+00,-5.000000000000000000e+00,-5.000000000000000000e+00,-3.791503906250000000e-01,2.727661132812500000e-01,6.812133789062500000e-01,5.637207031250000000e-01
4.000000000000000000e+00,1.000000000000000000e+00,-4.000000000000000000e+00,-1.000000000000000000e+00,3.000000000000000000e+00,6.000000000000000000e+00,6.000000000000000000e+00,4.000000000000000000e+00,-3.791503906250000000e-01,2.727661132812500000e-01,6.812133789062500000e-01,5.637207031250000000e-01
-1.000000000000000000e+00,-7.000000000000000000e+00,2.000000000000000000e+00,-2.000000000000000000e+00,-2.000000000000000000e+00,-2.000000000000000000e+00,-2.000000000000000000e+00,2.000000000000000000e+00,-3.789672851562500000e-01,2.729492187500000000e-01,6.809692382812500000e-01,5.639648437500000000e-01
-1.600000000000000000e+01,8.000000000000000000e+00,-3.000000000000000000e+00,-1.000000000000000000e+00,-3.000000000000000000e+00,-6.000000000000000000e+00,-1.000000000000000000e+00,-5.000000000000000000e+00,-3.789672851562500000e-01,2.729492187500000000e-01,6.809692382812500000e-01,5.639648437500000000e-01
3.000000000000000000e+00,-2.000000000000000000e+00,-1.000000000000000000e+00,5.000000000000000000e+00,3.000000000000000000e+00,-1.000000000000000000e+00,2.000000000000000000e+00,3.000000000000000000e+00,-3.789672851562500000e-01,2.729492187500000000e-01,6.809692382812500000e-01,5.639648437500000000e-01
-1.300000000000000000e+01,-1.100000000000000000e+01,0.000000000000000000e+00,-2.000000000000000000e+00,-3.000000000000000000e+00,-2.000000000000000000e+00,-2.000000000000000000e+00,-3.000000000000000000e+00,-3.789672851562500000e-01,2.729492187500000000e-01,6.809692382812500000e-01,5.639648437500000000e-01
6.000000000000000000e+00,3.000000000000000000e+00,4.000000000000000000e+00,-4.000000000000000000e+00,3.000000000000000000e+00,-3.000000000000000000e+00,-2.000000000000000000e+00,-3.000000000000000000e+00,-3.786621093750000000e-01,2.730102539062500000e-01,6.809692382812500000e-01,5.642089843750000000e-01
-4.000000000000000000e+00,0.000000000000000000e+00,4.000000000000000000e+00,-2.000000000000000000e+00,-1.000000000000000000e+00,-2.000000000000000000e+00,-3.000000000000000000e+00,-1.000000000000000000e+00,-3.786621093750000000e-01,2.730102539062500000e-01,6.809692382812500000e-01,5.642089843750000000e-01
-9.000000000000000000e+00,2.000000000000000000e+00,-1.000000000000000000e+00,3.000000000000000000e+00,1.000000000000000000e+00,2.000000000000000000e+00,-2.000000000000000000e+00,-5.000000000000000000e+00,-3.786621093750000000e-01,2.730102539062500000e-01,6.809692382812500000e-01,5.642089843750000000e-01
-1.100000000000000000e+01,2.000000000000000000e+00,-4.000000000000000000e+00,-3.000000000000000000e+00,-2.000000000000000000e+00,-2.000000000000000000e+00,-3.000000000000000000e+00,5.000000000000000000e+00,-3.786621093750000000e-01,2.730102539062500000e-01,6.809692382812500000e-01,5.642089843750000000e-01
1.500000000000000000e+01,-1.400000000000000000e+01,4.000000000000000000e+00,-7.000000000000000000e+00,-9.000000000000000000e+00,-2.000000000000000000e+00,1.000000000000000000e+00,6.000000000000000000e+00,-3.790283203125000000e-01,2.721557617187500000e-01,6.810302734375000000e-01,5.642700195312500000e-01
-4.000000000000000000e+00,6.000000000000000000e+00,-4.000000000000000000e+00,-2.000000000000000000e+00,5.000000000000000000e+00,-1.000000000000000000e+00,-7.000000000000000000e+00,-4.000000000000000000e+00,-3.790283203125000000e-01,2.721557617187500000e-01,6.810302734375000000e-01,5.642700195312500000e-01
-6.000000000000000000e+00,1.000000000000000000e+00,3.000000000000000000e+00,1.000000000000000000e+01,6.000000000000000000e+00,3.000000000000000000e+00,8.000000000000000000e+00,0.000000000000000000e+00,-3.790283203125000000e-01,2.721557617187500000e-01,6.810302734375000000e-01,5.642700195312500000e-01
3.200000000000000000e+01,5.000000000000000000e+00,-5.000000000000000000e+00,0.000000000000000000e+00,-1.000000000000000000e+00,1.000000000000000000e+00,-1.000000000000000000e+00,1.000000000000000000e+01,-3.790283203125000000e-01,2.721557617187500000e-01,6.810302734375000000e-01,5.642700195312500000e-01
-7.000000000000000000e+00,5.000000000000000000e+00,3.000000000000000000e+00,-5.000000000000000000e+00,-2.000000000000000000e+00,-2.000000000000000000e+00,-1.000000000000000000e+00,1.000000000000000000e+00,-3.790893554687500000e-01,2.713012695312500000e-01,6.812133789062500000e-01,5.644531250000000000e-01
-8.000000000000000000e+00,-6.000000000000000000e+00,-3.000000000000000000e+00,1.100000000000000000e+01,1.500000000000000000e+01,5.000000000000000000e+00,-4.000000000000000000e+00,-5.000000000000000000e+00,-3.790893554687500000e-01,2.713012695312500000e-01,6.812133789062500000e-01,5.644531250000000000e-01
1.000000000000000000e+00,-6.000000000000000000e+00,-6.000000000000000000e+00,-6.000000000000000000e+00,-6.000000000000000000e+00,-2.000000000000000000e+00,1.000000000000000000e+00,-3.000000000000000000e+00,-3.790893554687500000e-01,2.713012695312500000e-01,6.812133789062500000e-01,5.644531250000000000e-01
-9.000000000000000000e+00,1.000000000000000000e+00,2.000000000000000000e+00,1.000000000000000000e+00,-4.000000000000000000e+00,-4.000000000000000000e+00,-2.000000000000000000e+00,-7.000000000000000000e+00,-3.790893554687500000e-01,2.713012695312500000e-01,6.812133789062500000e-01,5.644531250000000000e-01
-6.000000000000000000e+00,0.000000000000000000e+00,-5.000000000000000000e+00,-1.000000000000000000e+00,-1.000000000000000000e+00,1.000000000000000000e+00,6.000000000000000000e+00,6.000000000000000000e+00,-3.790283203125000000e-01,2.706909179687500000e-01,6.814575195312500000e-01,5.644531250000000000e-01
1.200000000000000000e+01,-3.000000000000000000e+00,2.000000000000000000e+00,-6.000000000000000000e+00,-3.000000000000000000e+00,-2.000000000000000000e+00,-2.000000000000000000e+00,-4.000000000000000000e+00,-3.790283203125000000e-01,2.706909179687500000e-01,6.814575195312500000e-01,5.644531250000000000e-01
-2.200000000000000000e+01,0.000000000000000000e+00,-1.000000000000000000e+00,-4.000000000000000000e+00,2.000000000000000000e+00,0.000000000000000000e+00,-4.000000000000000000e+00,-3.000000000000000000e+00,-3.790283203125000000e-01,2.706909179687500000e-01,6.814575195312500000e-01,5.644531250000000000e-01
2.300000000000000000e+01,-3.000000000000000000e+00,-5.000000000000000000e+00,3.000000000000000000e+00,-2.000000000000000000e+00,-3.000000000000000000e+00,1.000000000000000000e+00,0.000000000000000000e+00,-3.790283203125000000e-01,2.706909179687500000e-01,6.814575195312500000e-01,5.644531250000000000e-01
-8.000000000000000000e+00,3.000000000000000000e+00,3.000000000000000000e+00,-5.000000000000000000e+00,-2.000000000000000000e+00,0.000000000000000000e+00,-5.000000000000000000e+00,-8.000000000000000000e+00,-3.793334960937500000e-01,2.698364257812500000e-01,6.817016601562500000e-01,5.643310546875000000e-01
5.000000000000000000e+00,-5.000000000000000000e+00,-3.000000000000000000e+00,3.000000000000000000e+00,0.000000000000000000e+00,1.000000000000000000e+00,4.000000000000000000e+00,1.200000000000000000e+01,-3.793334960937500000e-01,2.698364257812500000e-01,6.817016601562500000e-01,5.643310546875000000e-01
9.000000000000000000e+00,3.000000000000000000e+00,-6.000000000000000000e+00,-4.000000000000000000e+00,-4.000000000000000000e+00,0.000000000000000000e+00,-2.000000000000000000e+00,-7.000000000000000000e+00,-3.793334960937500000e-01,2.698364257812500000e-01,6.817016601562500000e-01,5.643310546875000000e-01
-2.000000000000000000e+01,-3.000000000000000000e+00,-5.000000000000000000e+00,-1.000000000000000000e+01,1.000000000000000000e+00,-3.000000000000000000e+00,-3.000000000000000000e+00,-3.000000000000000000e+00,-3.793334960937500000e-01,2.698364257812500000e-01,6.817016601562500000e-01,5.643310546875000000e-01
-1.000000000000000000e+01,-4.000000000000000000e+00,0.000000000000000000e+00,7.000000000000000000e+00,3.000000000000000000e+00,-1.000000000000000000e+00,-2.000000000000000000e+00,-1.000000000000000000e+01,-3.790893554687500000e-01,2.693481445312500000e-01,6.817626953125000000e-01,5.646972656250000000e-01
-2.000000000000000000e+00,-1.000000000000000000e+00,4.000000000000000000e+00,0.000000000000000000e+00,-5.000000000000000000e+00,-1.000000000000000000e+00,3.000000000000000000e+00,3.000000000000000000e+00,-3.790893554687500000e-01,2.693481445312500000e-01,6.817626953125000000e-01,5.646972656250000000e-01
-2.000000000000000000e+00,-1.000000000000000000e+00,-6.000000000000000000e+00,-6.000000000000000000e+00,-2.000000000000000000e+00,0.000000000000000000e+00,2.000000000000000000e+00,3.000000000000000000e+00,-3.790893554687500000e-01,2.693481445312500000e-01,6.817626953125000000e-01,5.646972656250000000e-01
9.000000000000000000e+00,-3.000000000000000000e+00,-1.000000000000000000e+00,-4.000000000000000000e+00,-1.000000000000000000e+00,1.000000000000000000e+00,2.000000000000000000e+00,1.000000000000000000e+00,-3.790893554687500000e-01,2.693481445312500000e-01,6.817626953125000000e-01,5.646972656250000000e-01
-1.100000000000000000e+01,5.000000000000000000e+00,-3.000000000000000000e+00,5.000000000000000000e+00,2.000000000000000000e+00,3.000000000000000000e+00,-2.000000000000000000e+00,-4.000000000000000000e+00,-3.784790039062500000e-01,2.694702148437500000e-01,6.818847656250000000e-01,5.648803710937500000e-01
-5.000000000000000000e+00,-5.000000000000000000e+00,-5.000000000000000000e+00,-5.000000000000000000e+00,-5.000000000000000000e+00,0.000000000000000000e+00,-4.000000000000000000e+00,-7.000000000000000000e+00,-3.784790039062500000e-01,2.694702148437500000e-01,6.818847656250000000e-01,5.648803710937500000e-01
1.700000000000000000e+01,1.000000000000000000e+00,3.000000000000000000e+00,-5.000000000000000000e+00,0.000000000000000000e+00,-2.000000000000000000e+00,2.000000000000000000e+00,1.100000000000000000e+01,-3.784790039062500000e-01,2.694702148437500000e-01,6.818847656250000000e-01,5.648803710937500000e-01
-1.400000000000000000e+01,-2.000000000000000000e+00,-3.000000000000000000e+00,0.000000000000000000e+00,-3.000000000000000000e+00,-1.000000000000000000e+00,-2.000000000000000000e+00,-8.000000000000000000e+00,-3.784790039062500000e-01,2.694702148437500000e-01,6.818847656250000000e-01,5.648803710937500000e-01
9.000000000000000000e+00,-1.000000000000000000e+00,-4.000000000000000000e+00,1.000000000000000000e+00,1.000000000000000000e+00,1.000000000000000000e+00,0.000000000000000000e+00,3.000000000000000000e+00,-3.779296875000000000e-01,2.695922851562500000e-01,6.822509765625000000e-01,5.647583007812500000e-01
2.000000000000000000e+00,-3.000000000000000000e+00,-6.000000000000000000e+00,1.000000000000000000e+00,-2.000000000000000000e+00,-1.000000000000000000e+00,-3.000000000000000000e+00,-3.000000000000000000e+00,-3.779296875000000000e-01,2.695922851562500000e-01,6.822509765625000000e-01,5.647583007812500000e-01
-1.100000000000000000e+01,-4.000000000000000000e+00,-6.000000000000000000e+00,1.000000000000000000e+00,1.000000000000000000e+00,1.000000000000000000e+00,-2.000000000000000000e+00,-5.000000000000000000e+00,-3.779296875000000000e-01,2.695922851562500000e-01,6.822509765625000000e-01,5.647583007812500000e-01
5.000000000000000000e+00,-1.000000000000000000e+00,3.000000000000000000e+00,-4.000000000000000000e+00,0.000000000000000000e+00,0.000000000000000000e+00,3.000000000000000000e+00,5.000000000000000000e+00,-3.779296875000000000e-01,2.695922851562500000e-01,6.822509765625000000e-01,5.647583007812500000e-01
0.000000000000000000e+00,2.000000000000000000e+00,6.000000000000000000e+00,-1.000000000000000000e+00,0.000000000000000000e+00,1.000000000000000000e+00,5.000000000000000000e+00,-2.000000000000000000e+00,-3.775634765625000000e-01,2.691650390625000000e-01,6.829833984375000000e-01,5.643310546875000000e-01
0.000000000000000000e+00,1.000000000000000000e+00,-6.000000000000000000e+00,-1.000000000000000000e+00,-4.000000000000000000e+00,-1.000000000000000000e+00,2.000000000000000000e+00,3.000000000000000000e+00,-3.775634765625000000e-01,2.691650390625000000e-01,6.829833984375000000e-01,5.643310546875000000e-01
1.800000000000000000e+01,9.000000000000000000e+00,0.000000000000000000e+00,-3.000000000000000000e+00,-1.000000000000000000e+00,-3.000000000000000000e+00,-6.000000000000000000e+00,0.000000000000000000e+00,-3.775634765625000000e-01,2.691650390625000000e-01,6.829833984375000000e-01,5.643310546875000000e-01
0.000000000000000000e+00,-6.000000000000000000e+00,3.000000000000000000e+00,-1.000000000000000000e+00,1.000000000000000000e+00,1.000000000000000000e+00,0.000000000000000000e+00,7.000000000000000000e+00,-3.775634765625000000e-01,2.691650390625000000e-01,6.829833984375000000e-01,5.643310546875000000e-01
-9.000000000000000000e+00,-8.000000000000000000e+00,-7.000000000000000000e+00,-2.000000000000000000e+00,0.000000000000000000e+00,-1.000000000000000000e+00,-1.000000000000000000e+00,-9.000000000000000000e+00,-3.773193359375000000e-01,2.683715820312500000e-01,6.837158203125000000e-01,5.639038085937500000e-01
-1.100000000000000000e+01,4.000000000000000000e+00,1.000000000000000000e+00,2.000000000000000000e+00,-1.000000000000000000e+00,-2.000000000000000000e+00,-1.000000000000000000e+00,-7.000000000000000000e+00,-3.773193359375000000e-01,2.683715820312500000e-01,6.837158203125000000e-01,5.639038085937500000e-01
2.000000000000000000e+00,-2.000000000000000000e+00,4.000000000000000000e+00,1.000000000000000000e+00,-2.000000000000000000e+00,-1.000000000000000000e+00,-2.000000000000000000e+00,1.000000000000000000e+00,-3.773193359375000000e-01,2.683715820312500000e-01,6.837158203125000000e-01,5.639038085937500000e-01
0.000000000000000000e+00,1.000000000000000000e+00,-1.000000000000000000e+00,-3.000000000000000000e+00,-3.000000000000000000e+00,0.000000000000000000e+00,-2.000000000000000000e+00,-3.000000000000000000e+00,-3.773193359375000000e-01,2.683715820312500000e-01,6.837158203125000000e-01,5.639038085937500000e-01
-4.000000000000000000e+00,-6.000000000000000000e+00,2.000000000000000000e+00,-1.000000000000000000e+00,-1.000000000000000000e+00,-2.000000000000000000e+00,3.000000000000000000e+00,-1.000000000000000000e+00,-3.768920898437500000e-01,2.679443359375000000e-01,6.843261718750000000e-01,5.637817382812500000e-01
1.700000000000000000e+01,2.000000000000000000e+00,2.000000000000000000e+00,-2.000000000000000000e+00,-2.000000000000000000e+00,-4.000000000000000000e+00,-6.000000000000000000e+00,3.000000000000000000e+00,-3.768920898437500000e-01,2.679443359375000000e-01,6.843261718750000000e-01,5.637817382812500000e-01
-2.600000000000000000e+01,-1.000000000000000000e+01,-7.000000000000000000e+00,-3.000000000000000000e+00,-3.000000000000000000e+00,-1.000000000000000000e+00,1.000000000000000000e+00,-5.000000000000000000e+00,-3.768920898437500000e-01,2.679443359375000000e-01,6.843261718750000000e-01,5.637817382812500000e-01
1.400000000000000000e+01,-3.000000000000000000e+00,3.000000000000000000e+00,-5.000000000000000000e+00,-2.000000000000000000e+00,1.000000000000000000e+00,-4.000000000000000000e+00,-2.000000000000000000e+00,-3.768920898437500000e-01,2.679443359375000000e-01,6.843261718750000000e-01,5.637817382812500000e-01
-2.000000000000000000e+00,-1.000000000000000000e+00,-1.000000000000000000e+00,8.000000000000000000e+00,2.000000000000000000e+00,0.000000000000000000e+00,-2.000000000000000000e+00,1.000000000000000000e+00,-3.763427734375000000e-01,2.678833007812500000e-01,6.846923828125000000e-01,5.636596679687500000e-01
-4.000000000000000000e+00,3.000000000000000000e+00,1.000000000000000000e+00,-1.200000000000000000e+01,-5.000000000000000000e+00,0.000000000000000000e+00,5.000000000000000000e+00,0.000000000000000000e+00,-3.763427734375000000e-01,2.678833007812500000e-01,6.846923828125000000e-01,5.636596679687500000e-01
-1.100000000000000000e+01,-4.000000000000000000e+00,-2.000000000000000000e+00,2.000000000000000000e+00,4.000000000000000000e+00,-1.000000000000000000e+00,-3.000000000000000000e+00,-2.000000000000000000e+00,-3.763427734375000000e-01,2.678833007812500000e-01,6.846923828125000000e-01,5.636596679687500000e-01
-2.300000000000000000e+01,-9.000000000000000000e+00,-2.000000000000000000e+00,-6.000000000000000000e+00,-5.000000000000000000e+00,-3.000000000000000000e+00,-5.000000000000000000e+00,-5.000000000000000000e+00,-3.763427734375000000e-01,2.678833007812500000e-01,6.846923828125000000e-01,5.636596679687500000e-01
9.000000000000000000e+00,1.000000000000000000e+00,-3.000000000000000000e+00,1.000000000000000000e+01,1.000000000000000000e+00,-2.000000000000000000e+00,-1.000000000000000000e+00,-1.000000000000000000e+00,-3.756713867187500000e-01,2.678833007812500000e-01,6.851806640625000000e-01,5.635986328125000000e-01
1.000000000000000000e+00,-5.000000000000000000e+00,3.000000000000000000e+00,1.000000000000000000e+00,0.000000000000000000e+00,-1.000000000000000000e+00,-5.000000000000000000e+00,-2.000000000000000000e+00,-3.756713867187500000e-01,2.678833007812500000e-01,6.851806640625000000e-01,5.635986328125000000e-01
7.000000000000000000e+00,-2.000000000000000000e+00,1.000000000000000000e+00,-5.000000000000000000e+00,-1.000000000000000000e+00,-1.000000000000000000e+00,3.000000000000000000e+00,1.000000000000000000e+00,-3.756713867187500000e-01,2.678833007812500000e-01,6.851806640625000000e-01,5.635986328125000000e-01
-2.000000000000000000e+00,8.000000000000000000e+00,1.000000000000000000e+00,8.000000000000000000e+00,1.000000000000000000e+00,-1.000000000000000000e+00,0.000000000000000000e+00,-4.000000000000000000e+00,-3.756713867187500000e-01,2.678833007812500000e-01,6.851806640625000000e-01,5.635986328125000000e-01
-2.700000000000000000e+01,-5.000000000000000000e+00,-1.300000000000000000e+01,-1.000000000000000000e+01,-1.000000000000000000e+00,-1.000000000000000000e+00,-1.000000000000000000e+00,1.000000000000000000e+00,-3.754272460937500000e-01,2.673339843750000000e-01,6.854858398437500000e-01,5.635375976562500000e-01
2.200000000000000000e+01,-1.000000000000000000e+00,6.000000000000000000e+00,-3.000000000000000000e+00,-7.000000000000000000e+00,-4.000000000000000000e+00,-1.000000000000000000e+00,2.000000000000000000e+00,-3.754272460937500000e-01,2.673339843750000000e-01,6.854858398437500000e-01,5.635375976562500000e-01
-2.000000000000000000e+00,6.000000000000000000e+00,-7.000000000000000000e+00,2.000000000000000000e+00,3.000000000000000000e+00,1.000000000000000000e+00,1.000000000000000000e+00,-8.000000000000000000e+00,-3.754272460937500000e-01,2.673339843750000000e-01,6.854858398437500000e-01,5.635375976562500000e-01
-3.000000000000000000e+00,-3.000000000000000000e+00,-1.000000000000000000e+01,2.000000000000000000e+00,-3.000000000000000000e+00,-1.000000000000000000e+00,0.000000000000000000e+00,2.000000000000000000e+00,-3.754272460937500000e-01,2.673339843750000000e-01,6.854858398437500000e-01,5.635375976562500000e-01
-3.000000000000000000e+00,4.000000000000000000e+00,7.000000000000000000e+00,-4.000000000000000000e+00,1.000000000000000000e+00,-4.000000000000000000e+00,-5.000000000000000000e+00,-2.000000000000000000e+00,-3.753662109375000000e-01,2.667846679687500000e-01,6.856689453125000000e-01,5.636596679687500000e-01
1.400000000000000000e+01,1.000000000000000000e+00,-5.000000000000000000e+00,3.000000000000000000e+00,1.000000000000000000e+00,2.000000000000000000e+00,4.000000000000000000e+00,3.000000000000000000e+00,-3.753662109375000000e-01,2.667846679687500000e-01,6.856689453125000000e-01,5.636596679687500000e-01
-1.000000000000000000e+00,-9.000000000000000000e+00,-3.000000000000000000e+00,-6.000000000000000000e+00,-5.000000000000000000e+00,-2.000000000000000000e+00,1.000000000000000000e+00,4.000000000000000000e+00,-3.753662109375000000e-01,2.667846679687500000e-01,6.856689453125000000e-01,5.636596679687500000e-01
-6.000000000000000000e+00,1.000000000000000000e+00,1.000000000000000000e+00,0.000000000000000000e+00,0.000000000000000000e+00,-2.000000000000000000e+00,-6.000000000000000000e+00,-1.400000000000000000e+01,-3.753662109375000000e-01,2.667846679687500000e-01,6.856689453125000000e-01,5.636596679687500000e-01
5.000000000000000000e+00,3.000000000000000000e+00,-3.000000000000000000e+00,2.000000000000000000e+00,-1.000000000000000000e+00,1.000000000000000000e+00,-4.000000000000000000e+00,5.000000000000000000e+00,-3.753662109375000000e-01,2.664794921875000000e-01,6.857299804687500000e-01,5.637207031250000000e-01
-1.400000000000000000e+01,-5.000000000000000000e+00,-6.000000000000000000e+00,-3.000000000000000000e+00,-4.000000000000000000e+00,-2.000000000000000000e+00,-2.000000000000000000e+00,3.000000000000000000e+00,-3.753662109375000000e-01,2.664794921875000000e-01,6.857299804687500000e-01,5.637207031250000000e-01
2.800000000000000000e+01,1.200000000000000000e+01,2.000000000000000000e+00,-1.000000000000000000e+00,1.000000000000000000e+00,-2.000000000000000000e+00,-3.000000000000000000e+00,-9.000000000000000000e+00,-3.753662109375000000e-01,2.664794921875000000e-01,6.857299804687500000e-01,5.637207031250000000e-01
-1.700000000000000000e+01,0.000000000000000000e+00,2.000000000000000000e+00,2.000000000000000000e+00,2.000000000000000000e+00,2.000000000000000000e+00,5.000000000000000000e+00,0.000000000000000000e+00,-3.753662109375000000e-01,2.664794921875000000e-01,6.857299804687500000e-01,5.637207031250000000e-01
-2.000000000000000000e+00,0.000000000000000000e+00,-1.000000000000000000e+00,-2.000000000000000000e+00,-4.000000000000000000e+00,-2.000000000000000000e+00,2.000000000000000000e+00,3.000000000000000000e+00,-3.751831054687500000e-01,2.664184570312500000e-01,6.856079101562500000e-01,5.640258789062500000e-01
-1.800000000000000000e+01,0.000000000000000000e+00,-2.000000000000000000e+00,4.000000000000000000e+00,1.000000000000000000e+00,1.000000000000000000e+00,-4.000000000000000000e+00,-8.000000000000000000e+00,-3.751831054687500000e-01,2.664184570312500000e-01,6.856079101562500000e-01,5.640258789062500000e-01
8.000000000000000000e+00,-5.000000000000000000e+00,-7.000000000000000000e+00,0.000000000000000000e+00,-2.000000000000000000e+00,-4.000000000000000000e+00,-2.000000000000000000e+00,1.000000000000000000e+00,-3.751831054687500000e-01,2.664184570312500000e-01,6.856079101562500000e-01,5.640258789062500000e-01
2.000000000000000000e+00,1.000000000000000000e+00,0.000000000000000000e+00,-1.000000000000000000e+00,0.000000000000000000e+00,1.000000000000000000e+00,4.000000000000000000e+00,-1.000000000000000000e+00,-3.751831054687500000e-01,2.664184570312500000e-01,6.856079101562500000e-01,5.640258789062500000e-01
7.000000000000000000e+00,1.000000000000000000e+00,-1.000000000000000000e+00,3.000000000000000000e+00,-1.000000000000000000e+00,-2.000000000000000000e+00,-7.000000000000000000e+00,-7.000000000000000000e+00,-3.750610351562500000e-01,2.659912109375000000e-01,6.855468750000000000e-01,5.643920898437500000e-01
1.400000000000000000e+01,0.000000000000000000e+00,-3.000000000000000000e+00,2.000000000000000000e+00,4.000000000000000000e+00,1.000000000000000000e+00,8.000000000000000000e+00,3.000000000000000000e+00,-3.750610351562500000e-01,2.659912109375000000e-01,6.855468750000000000e-01,5.643920898437500000e-01
-8.000000000000000000e+00,1.000000000000000000e+00,4.000000000000000000e+00,-1.100000000000000000e+01,-5.000000000000000000e+00,0.000000000000000000e+00,6.000000000000000000e+00,1.800000000000000000e+01,-3.750610351562500000e-01,2.659912109375000000e-01,6.855468750000000000e-01,5.643920898437500000e-01
-5.000000000000000000e+00,-8.000000000000000000e+00,-1.000000000000000000e+00,8.000000000000000000e+00,1.000000000000000000e+00,-3.000000000000000000e+00,-9.000000000000000000e+00,-7.000000000000000000e+00,-3.750610351562500000e-01,2.659912109375000000e-01,6.855468750000000000e-01,5.643920898437500000e-01
-1.500000000000000000e+01,-2.000000000000000000e+00,-2.000000000000000000e+00,3.000000000000000000e+00,2.000000000000000000e+00,4.000000000000000000e+00,1.000000000000000000e+00,-2.000000000000000000e+00,-3.751831054687500000e-01,2.657470703125000000e-01,6.856079101562500000e-01,5.643310546875000000e-01
1.300000000000000000e+01,-4.000000000000000000e+00,0.000000000000000000e+00,-6.000000000000000000e+00,-6.000000000000000000e+00,0.000000000000000000e+00,-6.000000000000000000e+00,-7.000000000000000000e+00,-3.751831054687500000e-01,2.657470703125000000e-01,6.856079101562500000e-01,5.643310546875000000e-01
-1.600000000000000000e+01,-6.000000000000000000e+00,-3.000000000000000000e+00,-2.000000000000000000e+00,-2.000000000000000000e+00,0.000000000000000000e+00,-1.000000000000000000e+00,-5.000000000000000000e+00,-3.751831054687500000e-01,2.657470703125000000e-01,6.856079101562500000e-01,5.643310546875000000e-01
7.000000000000000000e+00,0.000000000000000000e+00,-4.000000000000000000e+00,-6.000000000000000000e+00,-2.000000000000000000e+00,-2.000000000000000000e+00,4.000000000000000000e+00,8.000000000000000000e+00,-3.751831054687500000e-01,2.657470703125000000e-01,6.856079101562500000e-01,5.643310546875000000e-01
2.000000000000000000e+00,1.000000000000000000e+00,5.000000000000000000e+00,-1.000000000000000000e+00,-1.000000000000000000e+00,-1.000000000000000000e+00,-7.000000000000000000e+00,-4.000000000000000000e+00,-3.754882812500000000e-01,2.656250000000000000e-01,6.856689453125000000e-01,5.640869140625000000e-01
-1.700000000000000000e+01,-1.000000000000000000e+00,-5.000000000000000000e+00,1.000000000000000000e+00,-1.000000000000000000e+00,-2.000000000000000000e+00,-2.000000000000000000e+00,-6.000000000000000000e+00,-3.754882812500000000e-01,2.656250000000000000e-01,6.856689453125000000e-01,5.640869140625000000e-01
-5.000000000000000000e+00,1.000000000000000000e+00,7.000000000000000000e+00,-1.100000000000000000e+01,0.000000000000000000e+00,0.000000000000000000e+00,2.000000000000000000e+00,0.000000000000000000e+00,-3.754882812500000000e-01,2.656250000000000000e-01,6.856689453125000000e-01,5.640869140625000000e-01
1.500000000000000000e+01,6.000000000000000000e+00,-1.000000000000000000e+01,3.000000000000000000e+00,-4.000000000000000000e+00,1.000000000000000000e+00,-3.000000000000000000e+00,0.000000000000000000e+00,-3.754882812500000000e-01,2.656250000000000000e-01,6.856689453125000000e-01,5.640869140625000000e-01
-1.300000000000000000e+01,5.000000000000000000e+00,8.000000000000000000e+00,0.000000000000000000e+00,-2.000000000000000000e+00,-3.000000000000000000e+00,-4.000000000000000000e+00,-3.000000000000000000e+00,-3.757934570312500000e-01,2.651367187500000000e-01,6.856689453125000000e-01,5.640869140625000000e-01
1.500000000000000000e+01,3.000000000000000000e+00,2.000000000000000000e+00,4.000000000000000000e+00,0.000000000000000000e+00,1.000000000000000000e+00,-1.000000000000000000e+00,0.000000000000000000e+00,-3.757934570312500000e-01,2.651367187500000000e-01,6.856689453125000000e-01,5.640869140625000000e-01
-1.400000000000000000e+01,-1.700000000000000000e+01,0.000000000000000000e+00,7.000000000000000000e+00,-2.000000000000000000e+00,-1.000000000000000000e+00,-5.000000000000000000e+00,-6.000000000000000000e+00,-3.757934570312500000e-01,2.651367187500000000e-01,6.856689453125000000e-01,5.640869140625000000e-01
-8.000000000000000000e+00,-2.000000000000000000e+00,-3.000000000000000000e+00,-1.000000000000000000e+00,1.000000000000000000e+00,-1.000000000000000000e+00,8.000000000000000000e+00,-1.000000000000000000e+00,-3.757934570312500000e-01,2.651367187500000000e-01,6.856689453125000000e-01,5.640869140625000000e-01
2.100000000000000000e+01,7.000000000000000000e+00,-3.000000000000000000e+00,-6.000000000000000000e+00,-1.000000000000000000e+00,0.000000000000000000e+00,1.000000000000000000e+00,1.000000000000000000e+01,-3.759765625000000000e-01,2.645263671875000000e-01,6.856689453125000000e-01,5.642700195312500000e-01
-8.000000000000000000e+00,-3.000000000000000000e+00,0.000000000000000000e+00,-1.000000000000000000e+00,0.000000000000000000e+00,-1.000000000000000000e+00,-5.000000000000000000e+00,-1.000000000000000000e+00,-3.759765625000000000e-01,2.645263671875000000e-01,6.856689453125000000e-01,5.642700195312500000e-01
-1.100000000000000000e+01,1.000000000000000000e+00,1.000000000000000000e+00,4.000000000000000000e+00,-1.000000000000000000e+00,-2.000000000000000000e+00,-9.000000000000000000e+00,-5.000000000000000000e+00,-3.759765625000000000e-01,2.645263671875000000e-01,6.856689453125000000e-01,5.642700195312500000e-01
1.000000000000000000e+00,-2.000000000000000000e+00,-2.000000000000000000e+00,0.000000000000000000e+00,1.000000000000000000e+00,1.000000000000000000e+00,-2.000000000000000000e+00,-2.000000000000000000e+00,-3.759765625000000000e-01,2.645263671875000000e-01,6.856689453125000000e-01,5.642700195312500000e-01
8.000000000000000000e+00,-6.000000000000000000e+00,-1.200000000000000000e+01,-5.000000000000000000e+00,2.000000000000000000e+00,-1.000000000000000000e+00,2.000000000000000000e+00,-5.000000000000000000e+00,-3.759155273437500000e-01,2.644653320312500000e-01,6.857299804687500000e-01,5.643310546875000000e-01
-1.200000000000000000e+01,-5.000000000000000000e+00,-3.000000000000000000e+00,-5.000000000000000000e+00,-4.000000000000000000e+00,-2.000000000000000000e+00,0.000000000000000000e+00,1.000000000000000000e+00,-3.759155273437500000e-01,2.644653320312500000e-01,6.857299804687500000e-01,5.643310546875000000e-01
1.000000000000000000e+00,-1.000000000000000000e+00,-3.000000000000000000e+00,3.000000000000000000e+00,-1.000000000000000000e+00,-1.000000000000000000e+00,0.000000000000000000e+00,-3.000000000000000000e+00,-3.759155273437500000e-01,2.644653320312500000e-01,6.857299804687500000e-01,5.643310546875000000e-01
-2.800000000000000000e+01,1.000000000000000000e+00,-3.000000000000000000e+00,-5.000000000000000000e+00,-2.000000000000000000e+00,-3.000000000000000000e+00,0.000000000000000000e+00,0.000000000000000000e+00,-3.759155273437500000e-01,2.644653320312500000e-01,6.857299804687500000e-01,5.643310546875000000e-01
3.200000000000000000e+01,-1.000000000000000000e+00,1.000000000000000000e+00,1.000000000000000000e+00,-2.000000000000000000e+00,-1.000000000000000000e+00,-1.000000000000000000e+00,3.000000000000000000e+00,-3.757934570312500000e-01,2.648315429687500000e-01,6.855468750000000000e-01,5.644531250000000000e-01
-1.600000000000000000e+01,-9.000000000000000000e+00,-5.000000000000000000e+00,1.000000000000000000e+00,-1.000000000000000000e+00,-1.000000000000000000e+00,-1.000000000000000000e+00,-4.000000000000000000e+00,-3.757934570312500000e-01,2.648315429687500000e-01,6.855468750000000000e-01,5.644531250000000000e-01
9.000000000000000000e+00,6.000000000000000000e+00,-7.000000000000000000e+00,2.000000000000000000e+00,-2.000000000000000000e+00,-1.000000000000000000e+00,-1.000000000000000000e+01,-2.000000000000000000e+00,-3.757934570312500000e-01,2.648315429687500000e-01,6.855468750000000000e-01,5.644531250000000000e-01
2.000000000000000000e+00,-7.000000000000000000e+00,0.000000000000000000e+00,-2.000000000000000000e+00,-2.000000000000000000e+00,0.000000000000000000e+00,1.000000000000000000e+00,3.000000000000000000e+00,-3.757934570312500000e-01,2.648315429687500000e-01,6.855468750000000000e-01,5.644531250000000000e-01
-8.000000000000000000e+00,1.000000000000000000e+00,4.000000000000000000e+00,-6.000000000000000000e+00,-8.000000000000000000e+00,-3.000000000000000000e+00,3.000000000000000000e+00,4.000000000000000000e+00,-3.755493164062500000e-01,2.651367187500000000e-01,6.854248046875000000e-01,5.646362304687500000e-01
-8.000000000000000000e+00,-3.000000000000000000e+00,1.000000000000000000e+00,-1.100000000000000000e+01,-5.000000000000000000e+00,-2.000000000000000000e+00,6.000000000000000000e+00,-3.000000000000000000e+00,-3.755493164062500000e-01,2.651367187500000000e-01,6.854248046875000000e-01,5.646362304687500000e-01
5.000000000000000000e+00,0.000000000000000000e+00,-1.000000000000000000e+00,8.000000000000000000e+00,4.000000000000000000e+00,3.000000000000000000e+00,0.000000000000000000e+00,2.000000000000000000e+00,-3.755493164062500000e-01,2.651367187500000000e-01,6.854248046875000000e-01,5.646362304687500000e-01
5.000000000000000000e+00,1.000000000000000000e+00,-2.000000000000000000e+00,-3.000000000000000000e+00,-1.000000000000000000e+00,-1.000000000000000000e+00,-4.000000000000000000e+00,0.000000000000000000e+00,-3.755493164062500000e-01,2.651367187500000000e-01,6.854248046875000000e-01,5.646362304687500000e-01
-1.100000000000000000e+01,-7.000000000000000000e+00,-3.000000000000000000e+00,-7.000000000000000000e+00,-2.000000000000000000e+00,-4.000000000000000000e+00,-5.000000000000000000e+00,-7.000000000000000000e+00,-3.754882812500000000e-01,2.651977539062500000e-01,6.854248046875000000e-01,5.645751953125000000e-01
-5.000000000000000000e+00,-4.000000000000000000e+00,1.000000000000000000e+00,5.000000000000000000e+00,4.000000000000000000e+00,-1.000000000000000000e+00,-2.000000000000000000e+00,-1.000000000000000000e+00,-3.754882812500000000e-01,2.651977539062500000e-01,6.854248046875000000e-01,5.645751953125000000e-01
-8.000000000000000000e+00,-1.000000000000000000e+00,-6.000000000000000000e+00,-2.000000000000000000e+00,-2.000000000000000000e+00,3.000000000000000000e+00,1.000000000000000000e+00,1.000000000000000000e+00,-3.754882812500000000e-01,2.651977539062500000e-01,6.854248046875000000e-01,5.645751953125000000e-01
1.700000000000000000e+01,-3.000000000000000000e+00,-7.000000000000000000e+00,-2.000000000000000000e+00,-5.000000000000000000e+00,-4.000000000000000000e+00,-3.000000000000000000e+00,-1.000000000000000000e+00,-3.754882812500000000e-01,2.651977539062500000e-01,6.854248046875000000e-01,5.645751953125000000e-01
-1.200000000000000000e+01,-3.000000000000000000e+00,1.000000000000000000e+00,-1.000000000000000000e+00,3.000000000000000000e+00,2.000000000000000000e+00,-3.000000000000000000e+00,-4.000000000000000000e+00,-3.756713867187500000e-01,2.647094726562500000e-01,6.856689453125000000e-01,5.645141601562500000e-01
-1.000000000000000000e+00,1.000000000000000000e+00,2.000000000000000000e+00,-1.000000000000000000e+00,2.000000000000000000e+00,-1.000000000000000000e+00,4.000000000000000000e+00,1.000000000000000000e+00,-3.756713867187500000e-01,2.647094726562500000e-01,6.856689453125000000e-01,5.645141601562500000e-01
-3.000000000000000000e+00,1.000000000000000000e+00,-2.000000000000000000e+00,0.000000000000000000e+00,2.000000000000000000e+00,-1.000000000000000000e+00,2.000000000000000000e+00,-2.000000000000000000e+00,-3.756713867187500000e-01,2.647094726562500000e-01,6.856689453125000000e-01,5.645141601562500000e-01
4.000000000000000000e+00,3.000000000000000000e+00,5.000000000000000000e+00,6.000000000000000000e+00,2.000000000000000000e+00,0.000000000000000000e+00,-3.000000000000000000e+00,1.000000000000000000e+00,-3.756713867187500000e-01,2.647094726562500000e-01,6.856689453125000000e-01,5.645141601562500000e-01
-4.000000000000000000e+00,-3.000000000000000000e+00,1.000000000000000000e+00,-3.000000000000000000e+00,-4.000000000000000000e+00,-2.000000000000000000e+00,-2.000000000000000000e+00,-3.000000000000000000e+00,-3.757934570312500000e-01,2.640991210937500000e-01,6.857299804687500000e-01,5.645141601562500000e-01
3.000000000000000000e+00,2.000000000000000000e+00,-5.000000000000000000e+00,0.000000000000000000e+00,2.000000000000000000e+00,0.000000000000000000e+00,-1.000000000000000000e+00,-2.000000000000000000e+00,-3.757934570312500000e-01,2.640991210937500000e-01,6.857299804687500000e-01,5.645141601562500000e-01
-7.000000000000000000e+00,-2.000000000000000000e+00,5.000000000000000000e+00,0.000000000000000000e+00,-2.000000000000000000e+00,-3.000000000000000000e+00,0.000000000000000000e+00,0.000000000000000000e+00,-3.757934570312500000e-01,2.640991210937500000e-01,6.857299804687500000e-01,5.645141601562500000e-01
1.100000000000000000e+01,0.000000000000000000e+00,-1.000000000000000000e+00,-3.000000000000000000e+00,-2.000000000000000000e+00,-3.000000000000000000e+00,3.000000000000000000e+00,2.000000000000000000e+00,-3.757934570312500000e-01,2.640991210937500000e-01,6.857299804687500000e-01,5.645141601562500000e-01
-6.000000000000000000e+00,-5.000000000000000000e+00,-3.000000000000000000e+00,0.000000000000000000e+00,-2.000000000000000000e+00,-2.000000000000000000e+00,-1.000000000000000000e+00,-3.000000000000000000e+00,-3.756103515625000000e-01,2.640991210937500000e-01,6.856689453125000000e-01,5.647583007812500000e-01
-1.200000000000000000e+01,-9.000000000000000000e+00,0.000000000000000000e+00,1.000000000000000000e+00,-2.000000000000000000e+00,-2.000000000000000000e+00,-5.000000000000000000e+00,-1.000000000000000000e+00,-3.756103515625000000e-01,2.640991210937500000e-01,6.856689453125000000e-01,5.647583007812500000e-01
1.000000000000000000e+01,0.000000000000000000e+00,1.000000000000000000e+00,1.000000000000000000e+00,-2.000000000000000000e+00,3.000000000000000000e+00,0.000000000000000000e+00,0.000000000000000000e+00,-3.756103515625000000e-01,2.640991210937500000e-01,6.856689453125000000e-01,5.647583007812500000e-01
-3.000000000000000000e+00,0.000000000000000000e+00,0.000000000000000000e+00,-2.000000000000000000e+00,-3.000000000000000000e+00,2.000000000000000000e+00,2.000000000000000000e+00,-2.000000000000000000e+00,-3.756103515625000000e-01,2.640991210937500000e-01,6.856689453125000000e-01,5.647583007812500000e-01
8.000000000000000000e+00,1.000000000000000000e+00,-3.000000000000000000e+00,1.000000000000000000e+00,3.000000000000000000e+00,2.000000000000000000e+00,3.000000000000000000e+00,1.000000000000000000e+00,-3.753662109375000000e-01,2.644042968750000000e-01,6.855468750000000000e-01,5.649414062500000000e-01
0.000000000000000000e+00,1.000000000000000000e+00,1.000000000000000000e+00,1.000000000000000000e+00,-1.000000000000000000e+00,-1.000000000000000000e+00,-4.000000000000000000e+00,-6.000000000000000000e+00,-3.753662109375000000e-01,2.644042968750000000e-01,6.855468750000000000e-01,5.649414062500000000e-01
0.000000000000000000e+00,-3.000000000000000000e+00,-4.000000000000000000e+00,-6.000000000000000000e+00,-2.000000000000000000e+00,-1.000000000000000000e+00,6.000000000000000000e+00,3.000000000000000000e+00,-3.753662109375000000e-01,2.644042968750000000e-01,6.855468750000000000e-01,5.649414062500000000e-01
2.000000000000000000e+00,-1.000000000000000000e+00,8.000000000000000000e+00,7.000000000000000000e+00,4.000000000000000000e+00,0.000000000000000000e+00,-5.000000000000000000e+00,-1.000000000000000000e+00,-3.753662109375000000e-01,2.644042968750000000e-01,6.855468750000000000e-01,5.649414062500000000e-01
1.100000000000000000e+01,2.000000000000000000e+00,-6.000000000000000000e+00,-6.000000000000000000e+00,-3.000000000000000000e+00,-1.000000000000000000e+00,-1.000000000000000000e+00,-3.000000000000000000e+00,-3.750000000000000000e-01,2.645874023437500000e-01,6.855468750000000000e-01,5.650634765625000000e-01
-6.000000000000000000e+00,-6.000000000000000000e+00,-7.000000000000000000e+00,-1.100000000000000000e+01,-6.000000000000000000e+00,1.000000000000000000e+00,8.000000000000000000e+00,2.000000000000000000e+00,-3.750000000000000000e-01,2.645874023437500000e-01,6.855468750000000000e-01,5.650634765625000000e-01
-3.000000000000000000e+00,-2.000000000000000000e+00,1.000000000000000000e+00,1.000000000000000000e+00,-2.000000000000000000e+00,-5.000000000000000000e+00,-1.200000000000000000e+01,-9.000000000000000000e+00,-3.750000000000000000e-01,2.645874023437500000e-01,6.855468750000000000e-01,5.650634765625000000e-01
-1.500000000000000000e+01,3.000000000000000000e+00,-1.000000000000000000e+00,0.000000000000000000e+00,-2.000000000000000000e+00,2.000000000000000000e+00,2.000000000000000000e+00,1.000000000000000000e+00,-3.750000000000000000e-01,2.645874023437500000e-01,6.855468750000000000e-01,5.650634765625000000e-01
