6.000000000000000000e+00,1.000000000000000000e+00,-8.000000000000000000e+00,-5.000000000000000000e+00,-4.000000000000000000e+00,0.000000000000000000e+00,3.000000000000000000e+00,1.000000000000000000e+00,-2.689208984375000000e-01,3.154907226562500000e-01,3.088989257812500000e-01,8.559570312500000000e-01
5.000000000000000000e+00,2.000000000000000000e+00,2.000000000000000000e+00,2.000000000000000000e+00,-8.000000000000000000e+00,-6.000000000000000000e+00,-5.000000000000000000e+00,-1.000000000000000000e+00,-2.689208984375000000e-01,3.154907226562500000e-01,3.088989257812500000e-01,8.559570312500000000e-01
-7.000000000000000000e+00,-6.000000000000000000e+00,-3.000000000000000000e+00,-7.000000000000000000e+00,-3.000000000000000000e+00,-1.000000000000000000e+00,-3.000000000000000000e+00,-3.000000000000000000e+00,-2.689208984375000000e-01,3.154907226562500000e-01,3.088989257812500000e-01,8.559570312500000000e-01
-1.000000000000000000e+00,-1.000000000000000000e+00,-2.000000000000000000e+00,0.000000000000000000e+00,5.000000000000000000e+00,2.000000000000000000e+00,1.000000000000000000e+00,1.000000000000000000e+00,-2.689208984375000000e-01,3.154907226562500000e-01,3.088989257812500000e-01,8.559570312500000000e-01
-2.000000000000000000e+00,-1.000000000000000000e+00,4.000000000000000000e+00,2.000000000000000000e+00,2.000000000000000000e+00,-1.000000000000000000e+00,-1.000000000000000000e+00,-2.000000000000000000e+00,-2.687988281250000000e-01,3.156127929687500000e-01,3.088378906250000000e-01,8.559570312500000000e-01
-3.000000000000000000e+00,-2.000000000000000000e+00,-1.000000000000000000e+00,5.000000000000000000e+00,-1.000000000000000000e+00,0.000000000000000000e+00,-2.000000000000000000e+00,-3.000000000000000000e+00,-2.687988281250000000e-01,3.156127929687500000e-01,3.088378906250000000e-01,8.559570312500000000e-01
1.300000000000000000e+01,7.000000000000000000e+00,1.400000000000000000e+01,0.000000000000000000e+00,-2.000000000000000000e+00,1.000000000000000000e+00,4.000000000000000000e+00,5.000000000000000000e+00,-2.687988281250000000e-01,3.156127929687500000e-01,3.088378906250000000e-01,8.559570312500000000e-01
-1.900000000000000000e+01,-1.400000000000000000e+01,-1.900000000000000000e+01,-1.200000000000000000e+01,-8.000000000000000000e+00,-3.000000000000000000e+00,-7.000000000000000000e+00,-7.000000000000000000e+00,-2.687988281250000000e-01,3.156127929687500000e-01,3.088378906250000000e-01,8.559570312500000000e-01
-1.200000000000000000e+01,-5.000000000000000000e+00,2.000000000000000000e+00,-7.000000000000000000e+00,-7.000000000000000000e+00,-2.000000000000000000e+00,-3.000000000000000000e+00,-1.000000000000000000e+00,-2.684326171875000000e-01,3.159179687500000000e-01,3.087768554687500000e-01,8.560180664062500000e-01
0.000000000000000000e+00,-2.000000000000000000e+00,-7.000000000000000000e+00,1.500000000000000000e+01,1.300000000000000000e+01,0.000000000000000000e+00,-1.000000000000000000e+00,-2.000000000000000000e+00,-2.684326171875000000e-01,3.159179687500000000e-01,3.087768554687500000e-01,8.560180664062500000e-01
0.000000000000000000e+00,2.000000000000000000e+00,7.000000000000000000e+00,-9.000000000000000000e+00,-9.000000000000000000e+00,-5.000000000000000000e+00,-4.000000000000000000e+00,-4.000000000000000000e+00,-2.684326171875000000e-01,3.159179687500000000e-01,3.087768554687500000e-01,8.560180664062500000e-01
3.000000000000000000e+00,4.000000000000000000e+00,4.000000000000000000e+00,8.000000000000000000e+00,-1.000000000000000000e+00,-1.000000000000000000e+00,-1.000000000000000000e+00,-1.000000000000000000e+00,-2.684326171875000000e-01,3.159179687500000000e-01,3.087768554687500000e-01,8.560180664062500000e-01
-2.000000000000000000e+00,-4.000000000000000000e+00,-5.000000000000000000e+00,-6.000000000000000000e+00,6.000000000000000000e+00,0.000000000000000000e+00,0.000000000000000000e+00,-1.000000000000000000e+00,-2.684326171875000000e-01,3.159179687500000000e-01,3.089599609375000000e-01,8.558959960937500000e-01
7.000000000000000000e+00,5.000000000000000000e+00,1.000000000000000000e+01,-7.000000000000000000e+00,-1.100000000000000000e+01,-2.000000000000000000e+00,1.000000000000000000e+00,4.000000000000000000e+00,-2.684326171875000000e-01,3.159179687500000000e-01,3.089599609375000000e-01,8.558959960937500000e-01
2.000000000000000000e+00,-7.000000000000000000e+00,-1.300000000000000000e+01,2.000000000000000000e+00,1.000000000000000000e+01,1.000000000000000000e+00,0.000000000000000000e+00,0.000000000000000000e+00,-2.684326171875000000e-01,3.159179687500000000e-01,3.089599609375000000e-01,8.558959960937500000e-01
4.000000000000000000e+00,1.000000000000000000e+00,5.000000000000000000e+00,0.000000000000000000e+00,-2.000000000000000000e+00,-2.000000000000000000e+00,-2.000000000000000000e+00,-3.000000000000000000e+00,-2.684326171875000000e-01,3.159179687500000000e-01,3.089599609375000000e-01,8.558959960937500000e-01
-1.300000000000000000e+01,-4.000000000000000000e+00,3.000000000000000000e+00,7.000000000000000000e+00,3.000000000000000000e+00,0.000000000000000000e+00,-1.000000000000000000e+00,-3.000000000000000000e+00,-2.686767578125000000e-01,3.156127929687500000e-01,3.093872070312500000e-01,8.558349609375000000e-01
6.000000000000000000e+00,3.000000000000000000e+00,-4.000000000000000000e+00,-5.000000000000000000e+00,-1.300000000000000000e+01,-3.000000000000000000e+00,2.000000000000000000e+00,-1.000000000000000000e+00,-2.686767578125000000e-01,3.156127929687500000e-01,3.093872070312500000e-01,8.558349609375000000e-01
-1.000000000000000000e+00,1.000000000000000000e+00,1.000000000000000000e+00,-4.000000000000000000e+00,-3.000000000000000000e+00,-2.000000000000000000e+00,-1.000000000000000000e+00,-1.000000000000000000e+00,-2.686767578125000000e-01,3.156127929687500000e-01,3.093872070312500000e-01,8.558349609375000000e-01
-5.000000000000000000e+00,-4.000000000000000000e+00,-9.000000000000000000e+00,0.000000000000000000e+00,5.000000000000000000e+00,4.000000000000000000e+00,0.000000000000000000e+00,-4.000000000000000000e+00,-2.686767578125000000e-01,3.156127929687500000e-01,3.093872070312500000e-01,8.558349609375000000e-01
3.000000000000000000e+00,-1.100000000000000000e+01,1.000000000000000000e+00,-2.300000000000000000e+01,-2.000000000000000000e+01,-6.000000000000000000e+00,-6.000000000000000000e+00,-2.000000000000000000e+00,-2.690429687500000000e-01,3.153076171875000000e-01,3.095092773437500000e-01,8.557739257812500000e-01
9.000000000000000000e+00,2.600000000000000000e+01,6.000000000000000000e+00,3.900000000000000000e+01,4.000000000000000000e+01,1.000000000000000000e+01,3.000000000000000000e+00,8.000000000000000000e+00,-2.690429687500000000e-01,3.153076171875000000e-01,3.095092773437500000e-01,8.557739257812500000e-01
-7.000000000000000000e+00,-3.000000000000000000e+00,2.100000000000000000e+01,-2.000000000000000000e+00,-1.400000000000000000e+01,-5.000000000000000000e+00,0.000000000000000000e+00,-1.000000000000000000e+00,-2.690429687500000000e-01,3.153076171875000000e-01,3.095092773437500000e-01,8.557739257812500000e-01
2.000000000000000000e+00,-2.000000000000000000e+00,-1.200000000000000000e+01,6.000000000000000000e+00,1.400000000000000000e+01,-4.000000000000000000e+00,-2.000000000000000000e+00,1.000000000000000000e+00,-2.690429687500000000e-01,3.153076171875000000e-01,3.095092773437500000e-01,8.557739257812500000e-01
4.000000000000000000e+00,2.000000000000000000e+00,3.000000000000000000e+00,-6.000000000000000000e+00,-2.000000000000000000e+00,-1.000000000000000000e+00,-1.000000000000000000e+00,-1.000000000000000000e+00,-2.683715820312500000e-01,3.154296875000000000e-01,3.092041015625000000e-01,8.560180664062500000e-01
-1.000000000000000000e+00,-9.000000000000000000e+00,-8.000000000000000000e+00,-3.000000000000000000e+00,-5.000000000000000000e+00,0.000000000000000000e+00,0.000000000000000000e+00,-4.000000000000000000e+00,-2.683715820312500000e-01,3.154296875000000000e-01,3.092041015625000000e-01,8.560180664062500000e-01
-6.000000000000000000e+00,-2.000000000000000000e+00,-4.000000000000000000e+00,-5.000000000000000000e+00,0.000000000000000000e+00,-2.000000000000000000e+00,-3.000000000000000000e+00,-3.000000000000000000e+00,-2.683715820312500000e-01,3.154296875000000000e-01,3.092041015625000000e-01,8.560180664062500000e-01
-2.000000000000000000e+00,1.000000000000000000e+00,6.000000000000000000e+00,-4.000000000000000000e+00,-7.000000000000000000e+00,-1.000000000000000000e+00,2.000000000000000000e+00,-1.000000000000000000e+00,-2.683715820312500000e-01,3.154296875000000000e-01,3.092041015625000000e-01,8.560180664062500000e-01
1.000000000000000000e+00,-2.000000000000000000e+00,2.000000000000000000e+00,4.000000000000000000e+00,1.000000000000000000e+00,-1.000000000000000000e+00,0.000000000000000000e+00,0.000000000000000000e+00,-2.678222656250000000e-01,3.156127929687500000e-01,3.090820312500000000e-01,8.561401367187500000e-01
-5.000000000000000000e+00,-6.000000000000000000e+00,-6.000000000000000000e+00,-7.000000000000000000e+00,-9.000000000000000000e+00,-1.000000000000000000e+00,-2.000000000000000000e+00,-1.000000000000000000e+00,-2.678222656250000000e-01,3.156127929687500000e-01,3.090820312500000000e-01,8.561401367187500000e-01
-9.000000000000000000e+00,-4.000000000000000000e+00,-1.600000000000000000e+01,-4.000000000000000000e+00,1.000000000000000000e+00,0.000000000000000000e+00,-5.000000000000000000e+00,-7.000000000000000000e+00,-2.678222656250000000e-01,3.156127929687500000e-01,3.090820312500000000e-01,8.561401367187500000e-01
1.800000000000000000e+01,3.000000000000000000e+00,-4.000000000000000000e+00,0.000000000000000000e+00,-5.000000000000000000e+00,0.000000000000000000e+00,2.000000000000000000e+00,6.000000000000000000e+00,-2.678222656250000000e-01,3.156127929687500000e-01,3.090820312500000000e-01,8.561401367187500000e-01
-1.400000000000000000e+01,-2.000000000000000000e+00,3.000000000000000000e+00,2.000000000000000000e+00,5.000000000000000000e+00,-2.000000000000000000e+00,-3.000000000000000000e+00,-2.000000000000000000e+00,-2.677612304687500000e-01,3.154907226562500000e-01,3.093261718750000000e-01,8.561401367187500000e-01
3.000000000000000000e+00,-4.000000000000000000e+00,-1.000000000000000000e+00,-2.000000000000000000e+00,-3.000000000000000000e+00,0.000000000000000000e+00,2.000000000000000000e+00,-1.000000000000000000e+00,-2.677612304687500000e-01,3.154907226562500000e-01,3.093261718750000000e-01,8.561401367187500000e-01
1.000000000000000000e+00,2.000000000000000000e+00,-4.000000000000000000e+00,-5.000000000000000000e+00,-2.000000000000000000e+00,0.000000000000000000e+00,1.000000000000000000e+00,1.000000000000000000e+00,-2.677612304687500000e-01,3.154907226562500000e-01,3.093261718750000000e-01,8.561401367187500000e-01
-5.000000000000000000e+00,-2.000000000000000000e+00,-6.000000000000000000e+00,-1.000000000000000000e+01,-1.800000000000000000e+01,-6.000000000000000000e+00,-3.000000000000000000e+00,-2.000000000000000000e+00,-2.677612304687500000e-01,3.154907226562500000e-01,3.093261718750000000e-01,8.561401367187500000e-01
8.000000000000000000e+00,7.000000000000000000e+00,7.000000000000000000e+00,2.500000000000000000e+01,2.200000000000000000e+01,4.000000000000000000e+00,0.000000000000000000e+00,2.000000000000000000e+00,-2.682495117187500000e-01,3.153076171875000000e-01,3.096923828125000000e-01,8.559570312500000000e-01
-1.000000000000000000e+00,2.000000000000000000e+00,2.200000000000000000e+01,-1.100000000000000000e+01,-5.000000000000000000e+00,-2.000000000000000000e+00,-3.000000000000000000e+00,0.000000000000000000e+00,-2.682495117187500000e-01,3.153076171875000000e-01,3.096923828125000000e-01,8.559570312500000000e-01
-6.000000000000000000e+00,-1.000000000000000000e+01,-1.100000000000000000e+01,6.000000000000000000e+00,-1.000000000000000000e+00,-6.000000000000000000e+00,-1.000000000000000000e+01,-1.000000000000000000e+01,-2.682495117187500000e-01,3.153076171875000000e-01,3.096923828125000000e-01,8.559570312500000000e-01
-1.000000000000000000e+00,-2.000000000000000000e+00,-7.000000000000000000e+00,-1.500000000000000000e+01,-1.200000000000000000e+01,0.000000000000000000e+00,0.000000000000000000e+00,1.000000000000000000e+00,-2.682495117187500000e-01,3.153076171875000000e-01,3.096923828125000000e-01,8.559570312500000000e-01
-1.000000000000000000e+00,1.000000000000000000e+00,-1.000000000000000000e+00,0.000000000000000000e+00,-1.000000000000000000e+00,1.000000000000000000e+00,0.000000000000000000e+00,-1.000000000000000000e+00,-2.683105468750000000e-01,3.153076171875000000e-01,3.096923828125000000e-01,8.559570312500000000e-01
-6.000000000000000000e+00,-8.000000000000000000e+00,-4.000000000000000000e+00,7.000000000000000000e+00,0.000000000000000000e+00,-1.000000000000000000e+00,0.000000000000000000e+00,-3.000000000000000000e+00,-2.683105468750000000e-01,3.153076171875000000e-01,3.096923828125000000e-01,8.559570312500000000e-01
1.000000000000000000e+00,3.000000000000000000e+00,1.000000000000000000e+00,-5.000000000000000000e+00,-1.000000000000000000e+00,-1.000000000000000000e+00,2.000000000000000000e+00,1.000000000000000000e+00,-2.683105468750000000e-01,3.153076171875000000e-01,3.096923828125000000e-01,8.559570312500000000e-01
-6.000000000000000000e+00,-3.000000000000000000e+00,-3.000000000000000000e+00,2.000000000000000000e+00,-2.000000000000000000e+00,0.000000000000000000e+00,0.000000000000000000e+00,-2.000000000000000000e+00,-2.683105468750000000e-01,3.153076171875000000e-01,3.096923828125000000e-01,8.559570312500000000e-01
1.000000000000000000e+01,-2.000000000000000000e+00,7.000000000000000000e+00,-9.000000000000000000e+00,-1.600000000000000000e+01,-6.000000000000000000e+00,-4.000000000000000000e+00,-2.000000000000000000e+00,-2.682495117187500000e-01,3.155517578125000000e-01,3.090209960937500000e-01,8.560791015625000000e-01
-1.600000000000000000e+01,4.000000000000000000e+00,0.000000000000000000e+00,6.000000000000000000e+00,1.000000000000000000e+01,4.000000000000000000e+00,-1.000000000000000000e+00,4.000000000000000000e+00,-2.682495117187500000e-01,3.155517578125000000e-01,3.090209960937500000e-01,8.560791015625000000e-01
7.000000000000000000e+00,-4.000000000000000000e+00,-1.500000000000000000e+01,-1.100000000000000000e+01,-2.000000000000000000e+00,2.000000000000000000e+00,3.000000000000000000e+00,2.000000000000000000e+00,-2.682495117187500000e-01,3.155517578125000000e-01,3.090209960937500000e-01,8.560791015625000000e-01
-6.000000000000000000e+00,0.000000000000000000e+00,0.000000000000000000e+00,9.000000000000000000e+00,6.000000000000000000e+00,-2.000000000000000000e+00,0.000000000000000000e+00,-1.000000000000000000e+00,-2.682495117187500000e-01,3.155517578125000000e-01,3.090209960937500000e-01,8.560791015625000000e-01
-1.000000000000000000e+00,0.000000000000000000e+00,3.000000000000000000e+00,-4.000000000000000000e+00,-4.000000000000000000e+00,-3.000000000000000000e+00,-1.000000000000000000e+00,-1.000000000000000000e+00,-2.678833007812500000e-01,3.158569335937500000e-01,3.085937500000000000e-01,8.562622070312500000e-01
0.000000000000000000e+00,-4.000000000000000000e+00,-1.000000000000000000e+00,-8.000000000000000000e+00,-1.100000000000000000e+01,-3.000000000000000000e+00,-5.000000000000000000e+00,-5.000000000000000000e+00,-2.678833007812500000e-01,3.158569335937500000e-01,3.085937500000000000e-01,8.562622070312500000e-01
-3.000000000000000000e+00,-2.000000000000000000e+00,5.000000000000000000e+00,2.000000000000000000e+00,-1.000000000000000000e+00,-2.000000000000000000e+00,-5.000000000000000000e+00,-4.000000000000000000e+00,-2.678833007812500000e-01,3.158569335937500000e-01,3.085937500000000000e-01,8.562622070312500000e-01
-4.000000000000000000e+00,-3.000000000000000000e+00,1.300000000000000000e+01,-3.000000000000000000e+00,2.000000000000000000e+00,2.000000000000000000e+00,-2.000000000000000000e+00,-2.000000000000000000e+00,-2.678833007812500000e-01,3.158569335937500000e-01,3.085937500000000000e-01,8.562622070312500000e-01
3.000000000000000000e+00,2.000000000000000000e+00,-8.000000000000000000e+00,6.000000000000000000e+00,6.000000000000000000e+00,0.000000000000000000e+00,-1.000000000000000000e+00,-1.000000000000000000e+00,-2.681274414062500000e-01,3.159179687500000000e-01,3.087158203125000000e-01,8.560791015625000000e-01
3.000000000000000000e+00,0.000000000000000000e+00,-1.100000000000000000e+01,-1.000000000000000000e+01,-1.100000000000000000e+01,-4.000000000000000000e+00,-2.000000000000000000e+00,-3.000000000000000000e+00,-2.681274414062500000e-01,3.159179687500000000e-01,3.087158203125000000e-01,8.560791015625000000e-01
2.000000000000000000e+00,2.000000000000000000e+00,0.000000000000000000e+00,1.000000000000000000e+00,0.000000000000000000e+00,-1.000000000000000000e+00,0.000000000000000000e+00,1.000000000000000000e+00,-2.681274414062500000e-01,3.159179687500000000e-01,3.087158203125000000e-01,8.560791015625000000e-01
-3.000000000000000000e+00,-5.000000000000000000e+00,-2.000000000000000000e+00,-7.000000000000000000e+00,-1.000000000000000000e+00,-3.000000000000000000e+00,-2.000000000000000000e+00,-1.000000000000000000e+00,-2.681274414062500000e-01,3.159179687500000000e-01,3.087158203125000000e-01,8.560791015625000000e-01
-7.000000000000000000e+00,3.000000000000000000e+00,-3.000000000000000000e+00,2.000000000000000000e+00,-1.000000000000000000e+01,-2.000000000000000000e+00,-2.000000000000000000e+00,0.000000000000000000e+00,-2.687988281250000000e-01,3.157348632812500000e-01,3.090209960937500000e-01,8.558349609375000000e-01
2.000000000000000000e+00,-4.000000000000000000e+00,-5.000000000000000000e+00,1.200000000000000000e+01,1.300000000000000000e+01,8.000000000000000000e+00,6.000000000000000000e+00,4.000000000000000000e+00,-2.687988281250000000e-01,3.157348632812500000e-01,3.090209960937500000e-01,8.558349609375000000e-01
0.000000000000000000e+00,0.000000000000000000e+00,1.300000000000000000e+01,-6.000000000000000000e+00,-4.000000000000000000e+00,-4.000000000000000000e+00,0.000000000000000000e+00,4.000000000000000000e+00,-2.687988281250000000e-01,3.157348632812500000e-01,3.090209960937500000e-01,8.558349609375000000e-01
0.000000000000000000e+00,3.000000000000000000e+00,-1.400000000000000000e+01,-2.000000000000000000e+00,4.000000000000000000e+00,0.000000000000000000e+00,0.000000000000000000e+00,-2.000000000000000000e+00,-2.687988281250000000e-01,3.157348632812500000e-01,3.090209960937500000e-01,8.558349609375000000e-01
3.000000000000000000e+00,0.000000000000000000e+00,-1.000000000000000000e+00,-1.000000000000000000e+00,-2.000000000000000000e+00,-2.000000000000000000e+00,1.000000000000000000e+00,2.000000000000000000e+00,-2.687988281250000000e-01,3.157348632812500000e-01,3.090209960937500000e-01,8.558349609375000000e-01
-5.000000000000000000e+00,-6.000000000000000000e+00,-1.100000000000000000e+01,-9.000000000000000000e+00,-7.000000000000000000e+00,-3.000000000000000000e+00,0.000000000000000000e+00,-4.000000000000000000e+00,-2.687988281250000000e-01,3.157348632812500000e-01,3.090209960937500000e-01,8.558349609375000000e-01
-1.000000000000000000e+00,4.000000000000000000e+00,8.000000000000000000e+00,1.000000000000000000e+00,-2.000000000000000000e+00,-1.000000000000000000e+00,-1.000000000000000000e+00,-2.000000000000000000e+00,-2.687988281250000000e-01,3.157348632812500000e-01,3.090209960937500000e-01,8.558349609375000000e-01
1.200000000000000000e+01,5.000000000000000000e+00,6.000000000000000000e+00,3.000000000000000000e+00,-5.000000000000000000e+00,0.000000000000000000e+00,0.000000000000000000e+00,2.000000000000000000e+00,-2.687988281250000000e-01,3.157348632812500000e-01,3.090209960937500000e-01,8.558349609375000000e-01
-1.600000000000000000e+01,-7.000000000000000000e+00,1.100000000000000000e+01,3.000000000000000000e+00,1.600000000000000000e+01,2.000000000000000000e+00,-1.000000000000000000e+00,1.000000000000000000e+00,-2.686157226562500000e-01,3.159179687500000000e-01,3.087158203125000000e-01,8.559570312500000000e-01
0.000000000000000000e+00,-4.000000000000000000e+00,-2.200000000000000000e+01,-4.000000000000000000e+00,-3.000000000000000000e+00,-3.000000000000000000e+00,-3.000000000000000000e+00,-1.000000000000000000e+00,-2.686157226562500000e-01,3.159179687500000000e-01,3.087158203125000000e-01,8.559570312500000000e-01
-9.000000000000000000e+00,-5.000000000000000000e+00,-9.000000000000000000e+00,0.000000000000000000e+00,0.000000000000000000e+00,0.000000000000000000e+00,0.000000000000000000e+00,-1.000000000000000000e+00,-2.686157226562500000e-01,3.159179687500000000e-01,3.087158203125000000e-01,8.559570312500000000e-01
1.100000000000000000e+01,5.000000000000000000e+00,0.000000000000000000e+00,3.000000000000000000e+00,0.000000000000000000e+00,-2.000000000000000000e+00,-2.000000000000000000e+00,-1.000000000000000000e+00,-2.686157226562500000e-01,3.159179687500000000e-01,3.087158203125000000e-01,8.559570312500000000e-01
6.000000000000000000e+00,1.000000000000000000e+00,-3.000000000000000000e+00,-5.000000000000000000e+00,-1.000000000000000000e+00,2.000000000000000000e+00,0.000000000000000000e+00,-3.000000000000000000e+00,-2.680664062500000000e-01,3.161621093750000000e-01,3.086547851562500000e-01,8.560791015625000000e-01
-1.000000000000000000e+00,-3.000000000000000000e+00,1.100000000000000000e+01,0.000000000000000000e+00,0.000000000000000000e+00,-2.000000000000000000e+00,-3.000000000000000000e+00,0.000000000000000000e+00,-2.680664062500000000e-01,3.161621093750000000e-01,3.086547851562500000e-01,8.560791015625000000e-01
3.000000000000000000e+00,3.000000000000000000e+00,-3.000000000000000000e+00,4.000000000000000000e+00,1.000000000000000000e+00,-2.000000000000000000e+00,-1.000000000000000000e+00,-2.000000000000000000e+00,-2.680664062500000000e-01,3.161621093750000000e-01,3.086547851562500000e-01,8.560791015625000000e-01
-2.200000000000000000e+01,-1.000000000000000000e+01,0.000000000000000000e+00,-7.000000000000000000e+00,-9.000000000000000000e+00,0.000000000000000000e+00,0.000000000000000000e+00,-1.000000000000000000e+00,-2.680664062500000000e-01,3.161621093750000000e-01,3.086547851562500000e-01,8.560791015625000000e-01
9.000000000000000000e+00,5.000000000000000000e+00,-3.000000000000000000e+00,9.000000000000000000e+00,1.300000000000000000e+01,3.000000000000000000e+00,3.000000000000000000e+00,3.000000000000000000e+00,-2.678833007812500000e-01,3.162841796875000000e-01,3.089599609375000000e-01,8.559570312500000000e-01
4.000000000000000000e+00,-1.000000000000000000e+00,6.000000000000000000e+00,-5.000000000000000000e+00,-7.000000000000000000e+00,-5.000000000000000000e+00,-3.000000000000000000e+00,0.000000000000000000e+00,-2.678833007812500000e-01,3.162841796875000000e-01,3.089599609375000000e-01,8.559570312500000000e-01
8.000000000000000000e+00,2.000000000000000000e+00,-6.000000000000000000e+00,1.000000000000000000e+00,-2.000000000000000000e+00,-1.000000000000000000e+00,-1.000000000000000000e+00,0.000000000000000000e+00,-2.678833007812500000e-01,3.162841796875000000e-01,3.089599609375000000e-01,8.559570312500000000e-01
-2.200000000000000000e+01,-7.000000000000000000e+00,1.000000000000000000e+00,-8.000000000000000000e+00,-1.000000000000000000e+01,-6.000000000000000000e+00,-2.000000000000000000e+00,-6.000000000000000000e+00,-2.678833007812500000e-01,3.162841796875000000e-01,3.089599609375000000e-01,8.559570312500000000e-01
1.000000000000000000e+00,-2.000000000000000000e+00,-5.000000000000000000e+00,6.000000000000000000e+00,1.200000000000000000e+01,4.000000000000000000e+00,2.000000000000000000e+00,1.000000000000000000e+00,-2.681884765625000000e-01,3.161010742187500000e-01,3.095092773437500000e-01,8.557128906250000000e-01
-5.000000000000000000e+00,-1.200000000000000000e+01,-2.100000000000000000e+01,-1.000000000000000000e+00,-3.000000000000000000e+00,-2.000000000000000000e+00,-2.000000000000000000e+00,-5.000000000000000000e+00,-2.681884765625000000e-01,3.161010742187500000e-01,3.095092773437500000e-01,8.557128906250000000e-01
6.000000000000000000e+00,1.600000000000000000e+01,1.700000000000000000e+01,-6.000000000000000000e+00,-4.000000000000000000e+00,-4.000000000000000000e+00,-2.000000000000000000e+00,-3.000000000000000000e+00,-2.681884765625000000e-01,3.161010742187500000e-01,3.095092773437500000e-01,8.557128906250000000e-01
2.000000000000000000e+00,-3.000000000000000000e+00,-3.000000000000000000e+00,1.000000000000000000e+00,3.000000000000000000e+00,2.000000000000000000e+00,1.000000000000000000e+00,-1.000000000000000000e+00,-2.681884765625000000e-01,3.161010742187500000e-01,3.095092773437500000e-01,8.557128906250000000e-01
-4.000000000000000000e+00,-1.000000000000000000e+00,-1.200000000000000000e+01,0.000000000000000000e+00,-8.000000000000000000e+00,-3.000000000000000000e+00,-1.000000000000000000e+00,-1.000000000000000000e+00,-2.683105468750000000e-01,3.159179687500000000e-01,3.097534179687500000e-01,8.557128906250000000e-01
8.000000000000000000e+00,0.000000000000000000e+00,4.000000000000000000e+00,-6.000000000000000000e+00,-2.000000000000000000e+00,-1.000000000000000000e+00,-2.000000000000000000e+00,-3.000000000000000000e+00,-2.683105468750000000e-01,3.159179687500000000e-01,3.097534179687500000e-01,8.557128906250000000e-01
-1.100000000000000000e+01,-7.000000000000000000e+00,-2.000000000000000000e+00,0.000000000000000000e+00,-4.000000000000000000e+00,0.000000000000000000e+00,2.000000000000000000e+00,2.000000000000000000e+00,-2.683105468750000000e-01,3.159179687500000000e-01,3.097534179687500000e-01,8.557128906250000000e-01
0.000000000000000000e+00,-2.000000000000000000e+00,-7.000000000000000000e+00,-5.000000000000000000e+00,-8.000000000000000000e+00,-2.000000000000000000e+00,-3.000000000000000000e+00,-1.000000000000000000e+00,-2.683105468750000000e-01,3.159179687500000000e-01,3.097534179687500000e-01,8.557128906250000000e-01
1.000000000000000000e+00,1.000000000000000000e+00,6.000000000000000000e+00,1.000000000000000000e+00,1.000000000000000000e+00,0.000000000000000000e+00,-1.000000000000000000e+00,2.000000000000000000e+00,-2.680664062500000000e-01,3.157958984375000000e-01,3.096923828125000000e-01,8.557739257812500000e-01
4.000000000000000000e+00,2.000000000000000000e+00,-6.000000000000000000e+00,-5.000000000000000000e+00,-6.000000000000000000e+00,-2.000000000000000000e+00,-2.000000000000000000e+00,-1.000000000000000000e+00,-2.680664062500000000e-01,3.157958984375000000e-01,3.096923828125000000e-01,8.557739257812500000e-01
-6.000000000000000000e+00,-6.000000000000000000e+00,-6.000000000000000000e+00,-1.500000000000000000e+01,-4.000000000000000000e+00,1.000000000000000000e+00,2.000000000000000000e+00,-1.000000000000000000e+00,-2.680664062500000000e-01,3.157958984375000000e-01,3.096923828125000000e-01,8.557739257812500000e-01
-1.000000000000000000e+00,0.000000000000000000e+00,6.000000000000000000e+00,1.900000000000000000e+01,1.200000000000000000e+01,1.000000000000000000e+00,0.000000000000000000e+00,0.000000000000000000e+00,-2.680664062500000000e-01,3.157958984375000000e-01,3.096923828125000000e-01,8.557739257812500000e-01
1.000000000000000000e+00,-1.000000000000000000e+00,1.200000000000000000e+01,-3.000000000000000000e+00,-4.000000000000000000e+00,-1.000000000000000000e+00,-3.000000000000000000e+00,-2.000000000000000000e+00,-2.677612304687500000e-01,3.157958984375000000e-01,3.096313476562500000e-01,8.559570312500000000e-01
1.000000000000000000e+01,5.000000000000000000e+00,4.000000000000000000e+00,0.000000000000000000e+00,-1.100000000000000000e+01,-3.000000000000000000e+00,-2.000000000000000000e+00,0.000000000000000000e+00,-2.677612304687500000e-01,3.157958984375000000e-01,3.096313476562500000e-01,8.559570312500000000e-01
-1.400000000000000000e+01,-8.000000000000000000e+00,-3.000000000000000000e+00,2.000000000000000000e+00,1.500000000000000000e+01,3.000000000000000000e+00,2.000000000000000000e+00,1.000000000000000000e+00,-2.677612304687500000e-01,3.157958984375000000e-01,3.096313476562500000e-01,8.559570312500000000e-01
0.000000000000000000e+00,2.000000000000000000e+00,-2.000000000000000000e+00,2.000000000000000000e+00,8.000000000000000000e+00,3.000000000000000000e+00,0.000000000000000000e+00,0.000000000000000000e+00,-2.677612304687500000e-01,3.157958984375000000e-01,3.096313476562500000e-01,8.559570312500000000e-01
-3.000000000000000000e+00,-1.000000000000000000e+00,-5.000000000000000000e+00,-1.100000000000000000e+01,-9.000000000000000000e+00,-4.000000000000000000e+00,0.000000000000000000e+00,-2.000000000000000000e+00,-2.677001953125000000e-01,3.157958984375000000e-01,3.096923828125000000e-01,8.559570312500000000e-01
-7.000000000000000000e+00,-1.000000000000000000e+00,8.000000000000000000e+00,6.000000000000000000e+00,-4.000000000000000000e+00,-3.000000000000000000e+00,-1.000000000000000000e+00,-4.000000000000000000e+00,-2.677001953125000000e-01,3.157958984375000000e-01,3.096923828125000000e-01,8.559570312500000000e-01
1.100000000000000000e+01,2.000000000000000000e+00,4.000000000000000000e+00,-1.000000000000000000e+00,-6.000000000000000000e+00,-5.000000000000000000e+00,-4.000000000000000000e+00,3.000000000000000000e+00,-2.677001953125000000e-01,3.157958984375000000e-01,3.096923828125000000e-01,8.559570312500000000e-01
1.000000000000000000e+00,-8.000000000000000000e+00,-2.700000000000000000e+01,-5.000000000000000000e+00,-3.000000000000000000e+00,-2.000000000000000000e+00,-2.000000000000000000e+00,-1.000000000000000000e+00,-2.677001953125000000e-01,3.157958984375000000e-01,3.096923828125000000e-01,8.559570312500000000e-01
-3.000000000000000000e+00,-2.000000000000000000e+00,-4.000000000000000000e+00,0.000000000000000000e+00,3.000000000000000000e+00,1.000000000000000000e+00,0.000000000000000000e+00,-1.000000000000000000e+00,-2.679443359375000000e-01,3.156127929687500000e-01,3.099975585937500000e-01,8.558349609375000000e-01
-8.000000000000000000e+00,-1.000000000000000000e+00,2.000000000000000000e+00,-5.000000000000000000e+00,0.000000000000000000e+00,-1.000000000000000000e+00,2.000000000000000000e+00,0.000000000000000000e+00,-2.679443359375000000e-01,3.156127929687500000e-01,3.099975585937500000e-01,8.558349609375000000e-01
4.000000000000000000e+00,-3.000000000000000000e+00,-1.100000000000000000e+01,0.000000000000000000e+00,-3.000000000000000000e+00,-1.000000000000000000e+00,0.000000000000000000e+00,0.000000000000000000e+00,-2.680053710937500000e-01,3.154296875000000000e-01,3.101196289062500000e-01,8.558349609375000000e-01
2.000000000000000000e+00,2.000000000000000000e+00,1.300000000000000000e+01,5.000000000000000000e+00,-1.000000000000000000e+00,-2.000000000000000000e+00,-2.000000000000000000e+00,0.000000000000000000e+00,-2.680053710937500000e-01,3.154296875000000000e-01,3.101196289062500000e-01,8.558349609375000000e-01
4.000000000000000000e+00,-3.000000000000000000e+00,1.000000000000000000e+00,-4.000000000000000000e+00,-4.000000000000000000e+00,-2.000000000000000000e+00,-2.000000000000000000e+00,-3.000000000000000000e+00,-2.680053710937500000e-01,3.154296875000000000e-01,3.101196289062500000e-01,8.558349609375000000e-01
-1.600000000000000000e+01,-1.000000000000000000e+00,-7.000000000000000000e+00,-4.000000000000000000e+00,-6.000000000000000000e+00,-3.000000000000000000e+00,-1.000000000000000000e+00,-4.000000000000000000e+00,-2.680053710937500000e-01,3.154296875000000000e-01,3.101196289062500000e-01,8.558349609375000000e-01
-4.000000000000000000e+00,-3.000000000000000000e+00,8.000000000000000000e+00,1.200000000000000000e+01,1.800000000000000000e+01,2.000000000000000000e+00,-2.000000000000000000e+00,-2.000000000000000000e+00,-2.675170898437500000e-01,3.156127929687500000e-01,3.102416992187500000e-01,8.558349609375000000e-01
7.000000000000000000e+00,1.000000000000000000e+00,-2.000000000000000000e+00,-2.000000000000000000e+00,-3.000000000000000000e+00,-3.000000000000000000e+00,0.000000000000000000e+00,1.000000000000000000e+00,-2.675170898437500000e-01,3.156127929687500000e-01,3.102416992187500000e-01,8.558349609375000000e-01
-1.000000000000000000e+00,-1.000000000000000000e+00,-5.000000000000000000e+00,-1.000000000000000000e+01,-6.000000000000000000e+00,-2.000000000000000000e+00,-1.000000000000000000e+00,-3.000000000000000000e+00,-2.675170898437500000e-01,3.156127929687500000e-01,3.102416992187500000e-01,8.558349609375000000e-01
5.000000000000000000e+00,-2.000000000000000000e+00,-3.000000000000000000e+00,1.500000000000000000e+01,1.400000000000000000e+01,3.000000000000000000e+00,0.000000000000000000e+00,1.000000000000000000e+00,-2.675170898437500000e-01,3.156127929687500000e-01,3.102416992187500000e-01,8.558349609375000000e-01
-2.000000000000000000e+00,-6.000000000000000000e+00,0.000000000000000000e+00,4.000000000000000000e+00,0.000000000000000000e+00,-3.000000000000000000e+00,0.000000000000000000e+00,0.000000000000000000e+00,-2.669677734375000000e-01,3.158569335937500000e-01,3.103027343750000000e-01,8.558959960937500000e-01
-1.000000000000000000e+00,5.000000000000000000e+00,2.000000000000000000e+00,-3.000000000000000000e+00,0.000000000000000000e+00,-3.000000000000000000e+00,-1.000000000000000000e+00,-2.000000000000000000e+00,-2.669677734375000000e-01,3.158569335937500000e-01,3.103027343750000000e-01,8.558959960937500000e-01
3.000000000000000000e+00,5.000000000000000000e+00,2.000000000000000000e+01,-1.900000000000000000e+01,-9.000000000000000000e+00,-1.000000000000000000e+00,1.000000000000000000e+00,0.000000000000000000e+00,-2.669677734375000000e-01,3.158569335937500000e-01,3.103027343750000000e-01,8.558959960937500000e-01
6.000000000000000000e+00,-3.000000000000000000e+00,4.000000000000000000e+00,3.000000000000000000e+01,2.100000000000000000e+01,1.000000000000000000e+00,0.000000000000000000e+00,0.000000000000000000e+00,-2.669677734375000000e-01,3.158569335937500000e-01,3.103027343750000000e-01,8.558959960937500000e-01
-6.000000000000000000e+00,-4.000000000000000000e+00,-2.700000000000000000e+01,-1.400000000000000000e+01,-1.000000000000000000e+01,-1.000000000000000000e+00,0.000000000000000000e+00,1.000000000000000000e+00,-2.669677734375000000e-01,3.159179687500000000e-01,3.103027343750000000e-01,8.558959960937500000e-01
-8.000000000000000000e+00,-4.000000000000000000e+00,1.000000000000000000e+00,2.000000000000000000e+00,2.000000000000000000e+00,-3.000000000000000000e+00,-4.000000000000000000e+00,-4.000000000000000000e+00,-2.669677734375000000e-01,3.159179687500000000e-01,3.103027343750000000e-01,8.558959960937500000e-01
-6.000000000000000000e+00,-6.000000000000000000e+00,-6.000000000000000000e+00,-5.000000000000000000e+00,-3.000000000000000000e+00,1.000000000000000000e+00,5.000000000000000000e+00,0.000000000000000000e+00,-2.669677734375000000e-01,3.159179687500000000e-01,3.103027343750000000e-01,8.558959960937500000e-01
1.100000000000000000e+01,6.000000000000000000e+00,7.000000000000000000e+00,-1.100000000000000000e+01,-1.000000000000000000e+01,-3.000000000000000000e+00,-1.200000000000000000e+01,-1.100000000000000000e+01,-2.669677734375000000e-01,3.159179687500000000e-01,3.103027343750000000e-01,8.558959960937500000e-01
6.000000000000000000e+00,6.000000000000000000e+00,6.000000000000000000e+00,4.000000000000000000e+00,-1.000000000000000000e+00,2.000000000000000000e+00,2.000000000000000000e+00,6.000000000000000000e+00,-2.669677734375000000e-01,3.159179687500000000e-01,3.103027343750000000e-01,8.558959960937500000e-01
5.000000000000000000e+00,1.000000000000000000e+00,1.000000000000000000e+01,-5.000000000000000000e+00,-8.000000000000000000e+00,1.000000000000000000e+00,-1.000000000000000000e+00,-6.000000000000000000e+00,-2.669677734375000000e-01,3.159179687500000000e-01,3.103027343750000000e-01,8.558959960937500000e-01
-8.000000000000000000e+00,-2.000000000000000000e+00,-2.100000000000000000e+01,1.200000000000000000e+01,1.900000000000000000e+01,0.000000000000000000e+00,1.000000000000000000e+00,4.000000000000000000e+00,-2.669677734375000000e-01,3.159179687500000000e-01,3.103027343750000000e-01,8.558959960937500000e-01
-4.000000000000000000e+00,-8.000000000000000000e+00,-1.500000000000000000e+01,-9.000000000000000000e+00,-1.000000000000000000e+00,0.000000000000000000e+00,0.000000000000000000e+00,-3.000000000000000000e+00,-2.669677734375000000e-01,3.159179687500000000e-01,3.103027343750000000e-01,8.558959960937500000e-01
3.000000000000000000e+00,5.000000000000000000e+00,1.000000000000000000e+01,6.000000000000000000e+00,-3.000000000000000000e+00,-2.000000000000000000e+00,1.000000000000000000e+00,0.000000000000000000e+00,-2.667236328125000000e-01,3.160400390625000000e-01,3.103027343750000000e-01,8.559570312500000000e-01
3.000000000000000000e+00,0.000000000000000000e+00,6.000000000000000000e+00,-4.000000000000000000e+00,-2.000000000000000000e+00,-1.000000000000000000e+00,-2.000000000000000000e+00,0.000000000000000000e+00,-2.667236328125000000e-01,3.160400390625000000e-01,3.103027343750000000e-01,8.559570312500000000e-01
-3.000000000000000000e+00,3.000000000000000000e+00,3.000000000000000000e+00,2.000000000000000000e+00,-9.000000000000000000e+00,-4.000000000000000000e+00,-6.000000000000000000e+00,-5.000000000000000000e+00,-2.667236328125000000e-01,3.160400390625000000e-01,3.103027343750000000e-01,8.559570312500000000e-01
-4.000000000000000000e+00,-3.000000000000000000e+00,-5.000000000000000000e+00,-2.000000000000000000e+00,0.000000000000000000e+00,0.000000000000000000e+00,0.000000000000000000e+00,0.000000000000000000e+00,-2.667236328125000000e-01,3.160400390625000000e-01,3.103027343750000000e-01,8.559570312500000000e-01
-3.000000000000000000e+00,-4.000000000000000000e+00,2.000000000000000000e+00,2.000000000000000000e+00,-1.100000000000000000e+01,-6.000000000000000000e+00,-1.100000000000000000e+01,-1.100000000000000000e+01,-2.667236328125000000e-01,3.160400390625000000e-01,3.103027343750000000e-01,8.559570312500000000e-01
0.000000000000000000e+00,-1.000000000000000000e+00,7.000000000000000000e+00,-7.000000000000000000e+00,1.600000000000000000e+01,9.000000000000000000e+00,5.000000000000000000e+00,2.000000000000000000e+00,-2.667236328125000000e-01,3.160400390625000000e-01,3.103027343750000000e-01,8.559570312500000000e-01
3.000000000000000000e+00,-5.000000000000000000e+00,-3.900000000000000000e+01,1.200000000000000000e+01,2.000000000000000000e+00,-4.000000000000000000e+00,-4.000000000000000000e+00,-1.000000000000000000e+00,-2.667236328125000000e-01,3.160400390625000000e-01,3.103027343750000000e-01,8.559570312500000000e-01
-6.000000000000000000e+00,5.000000000000000000e+00,2.600000000000000000e+01,-3.000000000000000000e+00,6.000000000000000000e+00,3.000000000000000000e+00,1.000000000000000000e+00,2.000000000000000000e+00,-2.667236328125000000e-01,3.160400390625000000e-01,3.103027343750000000e-01,8.559570312500000000e-01
-2.000000000000000000e+00,-1.700000000000000000e+01,-3.800000000000000000e+01,-1.200000000000000000e+01,-8.000000000000000000e+00,-3.000000000000000000e+00,0.000000000000000000e+00,-1.000000000000000000e+00,-2.669677734375000000e-01,3.161621093750000000e-01,3.103027343750000000e-01,8.558349609375000000e-01
8.000000000000000000e+00,1.700000000000000000e+01,3.000000000000000000e+00,2.000000000000000000e+00,-1.000000000000000000e+00,0.000000000000000000e+00,6.000000000000000000e+00,5.000000000000000000e+00,-2.669677734375000000e-01,3.161621093750000000e-01,3.103027343750000000e-01,8.558349609375000000e-01
-1.200000000000000000e+01,-1.400000000000000000e+01,4.000000000000000000e+00,0.000000000000000000e+00,-4.000000000000000000e+00,-4.000000000000000000e+00,-8.000000000000000000e+00,-5.000000000000000000e+00,-2.669677734375000000e-01,3.161621093750000000e-01,3.103027343750000000e-01,8.558349609375000000e-01
-7.000000000000000000e+00,1.000000000000000000e+00,-4.000000000000000000e+00,-6.000000000000000000e+00,-6.000000000000000000e+00,-3.000000000000000000e+00,-1.000000000000000000e+00,0.000000000000000000e+00,-2.669677734375000000e-01,3.161621093750000000e-01,3.103027343750000000e-01,8.558349609375000000e-01
1.100000000000000000e+01,2.900000000000000000e+01,1.300000000000000000e+01,-2.000000000000000000e+00,0.000000000000000000e+00,0.000000000000000000e+00,0.000000000000000000e+00,1.000000000000000000e+00,-2.671508789062500000e-01,3.161621093750000000e-01,3.100585937500000000e-01,8.558349609375000000e-01
-8.000000000000000000e+00,-1.200000000000000000e+01,-3.000000000000000000e+00,4.000000000000000000e+00,-2.000000000000000000e+00,-2.000000000000000000e+00,-3.000000000000000000e+00,-4.000000000000000000e+00,-2.671508789062500000e-01,3.161621093750000000e-01,3.100585937500000000e-01,8.558349609375000000e-01
1.000000000000000000e+00,3.000000000000000000e+00,-1.000000000000000000e+00,-1.000000000000000000e+00,0.000000000000000000e+00,1.000000000000000000e+00,1.000000000000000000e+00,-2.000000000000000000e+00,-2.671508789062500000e-01,3.161621093750000000e-01,3.100585937500000000e-01,8.558349609375000000e-01
-6.000000000000000000e+00,-3.000000000000000000e+00,5.000000000000000000e+00,-4.000000000000000000e+00,-8.000000000000000000e+00,-1.000000000000000000e+00,-2.000000000000000000e+00,1.000000000000000000e+00,-2.671508789062500000e-01,3.161621093750000000e-01,3.100585937500000000e-01,8.558349609375000000e-01
6.000000000000000000e+00,-2.000000000000000000e+00,3.000000000000000000e+00,0.000000000000000000e+00,3.000000000000000000e+00,-4.000000000000000000e+00,-4.000000000000000000e+00,-3.000000000000000000e+00,-2.667846679687500000e-01,3.163452148437500000e-01,3.095092773437500000e-01,8.560791015625000000e-01
-2.800000000000000000e+01,-1.300000000000000000e+01,-1.400000000000000000e+01,3.000000000000000000e+00,7.000000000000000000e+00,0.000000000000000000e+00,-3.000000000000000000e+00,-4.000000000000000000e+00,-2.667846679687500000e-01,3.163452148437500000e-01,3.095092773437500000e-01,8.560791015625000000e-01
3.000000000000000000e+00,6.000000000000000000e+00,1.900000000000000000e+01,-3.000000000000000000e+00,0.000000000000000000e+00,-1.000000000000000000e+00,0.000000000000000000e+00,1.000000000000000000e+00,-2.667846679687500000e-01,3.163452148437500000e-01,3.095092773437500000e-01,8.560791015625000000e-01
-4.000000000000000000e+00,-8.000000000000000000e+00,-1.600000000000000000e+01,-2.400000000000000000e+01,-1.600000000000000000e+01,-4.000000000000000000e+00,-2.000000000000000000e+00,0.000000000000000000e+00,-2.667846679687500000e-01,3.163452148437500000e-01,3.095092773437500000e-01,8.560791015625000000e-01
-3.000000000000000000e+00,-1.000000000000000000e+00,7.000000000000000000e+00,2.200000000000000000e+01,1.300000000000000000e+01,4.000000000000000000e+00,1.000000000000000000e+00,-2.000000000000000000e+00,-2.660522460937500000e-01,3.166503906250000000e-01,3.093261718750000000e-01,8.562622070312500000e-01
9.000000000000000000e+00,2.000000000000000000e+00,-1.600000000000000000e+01,-6.000000000000000000e+00,-5.000000000000000000e+00,-1.000000000000000000e+00,0.000000000000000000e+00,0.000000000000000000e+00,-2.660522460937500000e-01,3.166503906250000000e-01,3.093261718750000000e-01,8.562622070312500000e-01
-3.000000000000000000e+00,-2.000000000000000000e+00,1.400000000000000000e+01,8.000000000000000000e+00,4.000000000000000000e+00,-2.000000000000000000e+00,-3.000000000000000000e+00,-2.000000000000000000e+00,-2.660522460937500000e-01,3.166503906250000000e-01,3.093261718750000000e-01,8.562622070312500000e-01
6.000000000000000000e+00,7.000000000000000000e+00,-6.000000000000000000e+00,-1.100000000000000000e+01,-6.000000000000000000e+00,-1.000000000000000000e+00,0.000000000000000000e+00,1.000000000000000000e+00,-2.660522460937500000e-01,3.166503906250000000e-01,3.093261718750000000e-01,8.562622070312500000e-01
-1.100000000000000000e+01,-1.000000000000000000e+01,5.000000000000000000e+00,-1.000000000000000000e+01,-9.000000000000000000e+00,0.000000000000000000e+00,2.000000000000000000e+00,-1.000000000000000000e+00,-2.661132812500000000e-01,3.165893554687500000e-01,3.095703125000000000e-01,8.562011718750000000e-01
-5.000000000000000000e+00,-2.000000000000000000e+00,1.700000000000000000e+01,-8.000000000000000000e+00,-8.000000000000000000e+00,-5.000000000000000000e+00,-4.000000000000000000e+00,-2.000000000000000000e+00,-2.661132812500000000e-01,3.165893554687500000e-01,3.095703125000000000e-01,8.562011718750000000e-01
4.000000000000000000e+00,4.000000000000000000e+00,-1.900000000000000000e+01,5.000000000000000000e+00,1.000000000000000000e+00,0.000000000000000000e+00,2.000000000000000000e+00,1.000000000000000000e+00,-2.661132812500000000e-01,3.165893554687500000e-01,3.095703125000000000e-01,8.562011718750000000e-01
8.000000000000000000e+00,4.000000000000000000e+00,-1.000000000000000000e+00,1.100000000000000000e+01,7.000000000000000000e+00,-2.000000000000000000e+00,1.000000000000000000e+00,0.000000000000000000e+00,-2.661132812500000000e-01,3.165893554687500000e-01,3.095703125000000000e-01,8.562011718750000000e-01
-1.200000000000000000e+01,-5.000000000000000000e+00,1.300000000000000000e+01,-5.000000000000000000e+00,-4.000000000000000000e+00,0.000000000000000000e+00,0.000000000000000000e+00,-2.000000000000000000e+00,-2.665405273437500000e-01,3.163452148437500000e-01,3.096313476562500000e-01,8.561401367187500000e-01
0.000000000000000000e+00,-8.000000000000000000e+00,-1.900000000000000000e+01,-1.000000000000000000e+00,1.000000000000000000e+00,-4.000000000000000000e+00,-5.000000000000000000e+00,1.000000000000000000e+00,-2.665405273437500000e-01,3.163452148437500000e-01,3.096313476562500000e-01,8.561401367187500000e-01
3.000000000000000000e+00,-1.000000000000000000e+00,1.000000000000000000e+00,-4.000000000000000000e+00,-1.000000000000000000e+00,4.000000000000000000e+00,-2.000000000000000000e+00,1.000000000000000000e+00,-2.665405273437500000e-01,3.163452148437500000e-01,3.096313476562500000e-01,8.561401367187500000e-01
6.000000000000000000e+00,3.000000000000000000e+00,-1.000000000000000000e+00,1.000000000000000000e+00,1.000000000000000000e+00,0.000000000000000000e+00,2.000000000000000000e+00,3.000000000000000000e+00,-2.665405273437500000e-01,3.163452148437500000e-01,3.096313476562500000e-01,8.561401367187500000e-01
-2.400000000000000000e+01,-9.000000000000000000e+00,-5.000000000000000000e+00,0.000000000000000000e+00,-2.000000000000000000e+00,-4.000000000000000000e+00,0.000000000000000000e+00,-5.000000000000000000e+00,-2.664184570312500000e-01,3.162841796875000000e-01,3.093872070312500000e-01,8.562622070312500000e-01
0.000000000000000000e+00,-4.000000000000000000e+00,-5.000000000000000000e+00,-6.000000000000000000e+00,-6.000000000000000000e+00,-4.000000000000000000e+00,-3.000000000000000000e+00,-2.000000000000000000e+00,-2.664184570312500000e-01,3.162841796875000000e-01,3.093872070312500000e-01,8.562622070312500000e-01
2.000000000000000000e+00,5.000000000000000000e+00,1.600000000000000000e+01,-1.000000000000000000e+00,-4.000000000000000000e+00,-2.000000000000000000e+00,0.000000000000000000e+00,1.000000000000000000e+00,-2.664184570312500000e-01,3.162841796875000000e-01,3.093872070312500000e-01,8.562622070312500000e-01
8.000000000000000000e+00,0.000000000000000000e+00,-1.200000000000000000e+01,1.300000000000000000e+01,1.100000000000000000e+01,4.000000000000000000e+00,2.000000000000000000e+00,1.000000000000000000e+00,-2.664184570312500000e-01,3.162841796875000000e-01,3.093872070312500000e-01,8.562622070312500000e-01
4.000000000000000000e+00,3.000000000000000000e+00,2.000000000000000000e+00,-1.200000000000000000e+01,-2.000000000000000000e+00,-1.000000000000000000e+00,-3.000000000000000000e+00,-2.000000000000000000e+00,-2.660522460937500000e-01,3.164672851562500000e-01,3.093261718750000000e-01,8.563232421875000000e-01
-7.000000000000000000e+00,-8.000000000000000000e+00,-1.500000000000000000e+01,4.000000000000000000e+00,-3.000000000000000000e+00,-3.000000000000000000e+00,-2.000000000000000000e+00,-3.000000000000000000e+00,-2.660522460937500000e-01,3.164672851562500000e-01,3.093261718750000000e-01,8.563232421875000000e-01
2.000000000000000000e+00,-3.000000000000000000e+00,-4.000000000000000000e+00,-5.000000000000000000e+00,-3.000000000000000000e+00,-2.000000000000000000e+00,-3.000000000000000000e+00,0.000000000000000000e+00,-2.660522460937500000e-01,3.164672851562500000e-01,3.093261718750000000e-01,8.563232421875000000e-01
-7.000000000000000000e+00,-3.000000000000000000e+00,7.000000000000000000e+00,2.000000000000000000e+00,0.000000000000000000e+00,-2.000000000000000000e+00,0.000000000000000000e+00,0.000000000000000000e+00,-2.660522460937500000e-01,3.164672851562500000e-01,3.093261718750000000e-01,8.563232421875000000e-01
6.000000000000000000e+00,3.000000000000000000e+00,2.000000000000000000e+00,-8.000000000000000000e+00,-1.000000000000000000e+01,-2.000000000000000000e+00,-3.000000000000000000e+00,-5.000000000000000000e+00,-2.662963867187500000e-01,3.165283203125000000e-01,3.096313476562500000e-01,8.561401367187500000e-01
-7.000000000000000000e+00,-3.000000000000000000e+00,2.000000000000000000e+00,2.000000000000000000e+00,1.300000000000000000e+01,7.000000000000000000e+00,1.000000000000000000e+00,1.000000000000000000e+00,-2.662963867187500000e-01,3.165283203125000000e-01,3.096313476562500000e-01,8.561401367187500000e-01
2.000000000000000000e+00,0.000000000000000000e+00,3.000000000000000000e+00,-2.000000000000000000e+00,-2.000000000000000000e+00,-5.000000000000000000e+00,-2.000000000000000000e+00,-3.000000000000000000e+00,-2.662963867187500000e-01,3.165283203125000000e-01,3.096313476562500000e-01,8.561401367187500000e-01
-5.000000000000000000e+00,-5.000000000000000000e+00,1.000000000000000000e+00,-1.000000000000000000e+00,-2.000000000000000000e+00,-1.000000000000000000e+00,-1.000000000000000000e+00,-1.000000000000000000e+00,-2.662963867187500000e-01,3.165283203125000000e-01,3.096313476562500000e-01,8.561401367187500000e-01
9.000000000000000000e+00,-2.000000000000000000e+00,-4.000000000000000000e+00,2.000000000000000000e+00,-1.000000000000000000e+00,-3.000000000000000000e+00,-3.000000000000000000e+00,0.000000000000000000e+00,-2.666015625000000000e-01,3.164062500000000000e-01,3.098754882812500000e-01,8.560180664062500000e-01
-4.000000000000000000e+00,0.000000000000000000e+00,2.000000000000000000e+00,-2.000000000000000000e+00,-1.100000000000000000e+01,-4.000000000000000000e+00,-1.000000000000000000e+00,-1.000000000000000000e+00,-2.666015625000000000e-01,3.164062500000000000e-01,3.098754882812500000e-01,8.560180664062500000e-01
-4.000000000000000000e+00,-2.000000000000000000e+00,-2.000000000000000000e+00,2.000000000000000000e+00,1.100000000000000000e+01,2.000000000000000000e+00,2.000000000000000000e+00,0.000000000000000000e+00,-2.666015625000000000e-01,3.164062500000000000e-01,3.098754882812500000e-01,8.560180664062500000e-01
-7.000000000000000000e+00,-2.000000000000000000e+00,1.200000000000000000e+01,-3.000000000000000000e+01,-2.100000000000000000e+01,-3.000000000000000000e+00,-2.000000000000000000e+00,-5.000000000000000000e+00,-2.666015625000000000e-01,3.164062500000000000e-01,3.098754882812500000e-01,8.560180664062500000e-01
2.000000000000000000e+01,1.000000000000000000e+01,5.000000000000000000e+00,3.900000000000000000e+01,2.900000000000000000e+01,5.000000000000000000e+00,1.000000000000000000e+00,2.000000000000000000e+00,-2.669067382812500000e-01,3.161621093750000000e-01,3.098754882812500000e-01,8.559570312500000000e-01
-2.300000000000000000e+01,-1.200000000000000000e+01,-3.600000000000000000e+01,-1.400000000000000000e+01,-8.000000000000000000e+00,-3.000000000000000000e+00,-2.000000000000000000e+00,-3.000000000000000000e+00,-2.669067382812500000e-01,3.161621093750000000e-01,3.098754882812500000e-01,8.559570312500000000e-01
2.000000000000000000e+00,-1.000000000000000000e+00,0.000000000000000000e+00,-1.000000000000000000e+00,-7.000000000000000000e+00,-2.000000000000000000e+00,-1.000000000000000000e+00,0.000000000000000000e+00,-2.669067382812500000e-01,3.161621093750000000e-01,3.098754882812500000e-01,8.559570312500000000e-01
-2.000000000000000000e+00,-2.000000000000000000e+00,-5.000000000000000000e+00,-3.000000000000000000e+00,-3.000000000000000000e+00,-3.000000000000000000e+00,1.000000000000000000e+00,-2.000000000000000000e+00,-2.669067382812500000e-01,3.161621093750000000e-01,3.098754882812500000e-01,8.559570312500000000e-01
-2.000000000000000000e+00,-1.000000000000000000e+01,5.000000000000000000e+00,-1.000000000000000000e+00,-5.000000000000000000e+00,-2.000000000000000000e+00,-1.000000000000000000e+00,0.000000000000000000e+00,-2.670898437500000000e-01,3.161010742187500000e-01,3.096313476562500000e-01,8.560180664062500000e-01
8.000000000000000000e+00,8.000000000000000000e+00,1.000000000000000000e+01,9.000000000000000000e+00,8.000000000000000000e+00,4.000000000000000000e+00,2.000000000000000000e+00,1.000000000000000000e+00,-2.670898437500000000e-01,3.161010742187500000e-01,3.096313476562500000e-01,8.560180664062500000e-01
-4.000000000000000000e+00,1.800000000000000000e+01,2.600000000000000000e+01,-1.100000000000000000e+01,-1.300000000000000000e+01,-4.000000000000000000e+00,-3.000000000000000000e+00,-4.000000000000000000e+00,-2.670898437500000000e-01,3.161010742187500000e-01,3.096313476562500000e-01,8.560180664062500000e-01
-5.000000000000000000e+00,-7.000000000000000000e+00,-2.100000000000000000e+01,1.200000000000000000e+01,1.500000000000000000e+01,4.000000000000000000e+00,2.000000000000000000e+00,1.000000000000000000e+00,-2.670898437500000000e-01,3.161010742187500000e-01,3.096313476562500000e-01,8.560180664062500000e-01
5.000000000000000000e+00,3.000000000000000000e+00,-6.000000000000000000e+00,-1.000000000000000000e+01,-5.000000000000000000e+00,-2.000000000000000000e+00,1.000000000000000000e+00,1.000000000000000000e+00,-2.667236328125000000e-01,3.164062500000000000e-01,3.095092773437500000e-01,8.560791015625000000e-01
7.000000000000000000e+00,-2.000000000000000000e+00,4.000000000000000000e+00,7.000000000000000000e+00,-2.000000000000000000e+00,2.000000000000000000e+00,3.000000000000000000e+00,2.000000000000000000e+00,-2.667236328125000000e-01,3.164062500000000000e-01,3.095092773437500000e-01,8.560791015625000000e-01
-6.000000000000000000e+00,-7.000000000000000000e+00,-8.000000000000000000e+00,-6.000000000000000000e+00,2.000000000000000000e+00,0.000000000000000000e+00,-3.000000000000000000e+00,-1.000000000000000000e+00,-2.667236328125000000e-01,3.164062500000000000e-01,3.095092773437500000e-01,8.560791015625000000e-01
4.000000000000000000e+00,5.000000000000000000e+00,1.100000000000000000e+01,5.000000000000000000e+00,0.000000000000000000e+00,0.000000000000000000e+00,-1.000000000000000000e+00,0.000000000000000000e+00,-2.667236328125000000e-01,3.164062500000000000e-01,3.095092773437500000e-01,8.560791015625000000e-01
-6.000000000000000000e+00,-4.000000000000000000e+00,-8.000000000000000000e+00,-1.500000000000000000e+01,-1.100000000000000000e+01,-5.000000000000000000e+00,-3.000000000000000000e+00,-3.000000000000000000e+00,-2.667236328125000000e-01,3.164062500000000000e-01,3.095703125000000000e-01,8.560791015625000000e-01
3.000000000000000000e+00,4.000000000000000000e+00,5.000000000000000000e+00,6.000000000000000000e+00,3.000000000000000000e+00,-1.000000000000000000e+00,1.000000000000000000e+00,-1.000000000000000000e+00,-2.667236328125000000e-01,3.164062500000000000e-01,3.095703125000000000e-01,8.560791015625000000e-01
2.000000000000000000e+00,-1.000000000000000000e+00,1.900000000000000000e+01,1.100000000000000000e+01,1.000000000000000000e+01,2.000000000000000000e+00,0.000000000000000000e+00,-2.000000000000000000e+00,-2.667236328125000000e-01,3.164062500000000000e-01,3.095703125000000000e-01,8.560791015625000000e-01
-6.000000000000000000e+00,-5.000000000000000000e+00,-1.300000000000000000e+01,1.000000000000000000e+00,0.000000000000000000e+00,-1.000000000000000000e+00,2.000000000000000000e+00,1.000000000000000000e+00,-2.667236328125000000e-01,3.164062500000000000e-01,3.095703125000000000e-01,8.560791015625000000e-01
-8.000000000000000000e+00,-6.000000000000000000e+00,-2.700000000000000000e+01,-1.100000000000000000e+01,-4.000000000000000000e+00,-1.000000000000000000e+00,-3.000000000000000000e+00,-1.000000000000000000e+00,-2.670898437500000000e-01,3.163452148437500000e-01,3.098754882812500000e-01,8.558349609375000000e-01
4.000000000000000000e+00,1.000000000000000000e+00,7.000000000000000000e+00,-8.000000000000000000e+00,-1.400000000000000000e+01,-7.000000000000000000e+00,-5.000000000000000000e+00,-2.000000000000000000e+00,-2.670898437500000000e-01,3.163452148437500000e-01,3.098754882812500000e-01,8.558349609375000000e-01
-1.000000000000000000e+00,-7.000000000000000000e+00,-2.100000000000000000e+01,-4.000000000000000000e+00,2.000000000000000000e+00,2.000000000000000000e+00,0.000000000000000000e+00,0.000000000000000000e+00,-2.670898437500000000e-01,3.163452148437500000e-01,3.098754882812500000e-01,8.558349609375000000e-01
-2.000000000000000000e+00,-2.000000000000000000e+00,1.000000000000000000e+00,1.000000000000000000e+00,-2.000000000000000000e+00,-1.000000000000000000e+00,-5.000000000000000000e+00,-3.000000000000000000e+00,-2.670898437500000000e-01,3.163452148437500000e-01,3.098754882812500000e-01,8.558349609375000000e-01
-6.000000000000000000e+00,-4.000000000000000000e+00,2.000000000000000000e+00,-1.300000000000000000e+01,-1.100000000000000000e+01,-4.000000000000000000e+00,-2.000000000000000000e+00,-3.000000000000000000e+00,-2.677612304687500000e-01,3.161010742187500000e-01,3.099365234375000000e-01,8.557128906250000000e-01
1.000000000000000000e+01,4.000000000000000000e+00,1.800000000000000000e+01,1.500000000000000000e+01,1.000000000000000000e+01,4.000000000000000000e+00,1.000000000000000000e+00,1.000000000000000000e+00,-2.677612304687500000e-01,3.161010742187500000e-01,3.099365234375000000e-01,8.557128906250000000e-01
-1.000000000000000000e+01,-1.000000000000000000e+00,-2.000000000000000000e+00,-1.700000000000000000e+01,-1.100000000000000000e+01,-4.000000000000000000e+00,-3.000000000000000000e+00,-7.000000000000000000e+00,-2.677612304687500000e-01,3.161010742187500000e-01,3.099365234375000000e-01,8.557128906250000000e-01
2.000000000000000000e+00,-2.000000000000000000e+00,-2.200000000000000000e+01,8.000000000000000000e+00,1.300000000000000000e+01,4.000000000000000000e+00,2.000000000000000000e+00,3.000000000000000000e+00,-2.677612304687500000e-01,3.161010742187500000e-01,3.099365234375000000e-01,8.557128906250000000e-01
9.000000000000000000e+00,2.000000000000000000e+00,-1.000000000000000000e+00,-6.000000000000000000e+00,-1.000000000000000000e+00,0.000000000000000000e+00,4.000000000000000000e+00,3.000000000000000000e+00,-2.674560546875000000e-01,3.161621093750000000e-01,3.095703125000000000e-01,8.558959960937500000e-01
-1.000000000000000000e+00,2.000000000000000000e+00,-2.000000000000000000e+00,-7.000000000000000000e+00,-6.000000000000000000e+00,-4.000000000000000000e+00,-2.000000000000000000e+00,-3.000000000000000000e+00,-2.674560546875000000e-01,3.161621093750000000e-01,3.095703125000000000e-01,8.558959960937500000e-01
8.000000000000000000e+00,-1.000000000000000000e+00,0.000000000000000000e+00,5.000000000000000000e+00,-2.000000000000000000e+00,-1.000000000000000000e+00,0.000000000000000000e+00,0.000000000000000000e+00,-2.674560546875000000e-01,3.161621093750000000e-01,3.095703125000000000e-01,8.558959960937500000e-01
-6.000000000000000000e+00,-1.000000000000000000e+00,7.000000000000000000e+00,-5.000000000000000000e+00,-1.300000000000000000e+01,-4.000000000000000000e+00,-4.000000000000000000e+00,-5.000000000000000000e+00,-2.674560546875000000e-01,3.161621093750000000e-01,3.095703125000000000e-01,8.558959960937500000e-01
-5.000000000000000000e+00,1.000000000000000000e+00,7.000000000000000000e+00,5.000000000000000000e+00,5.000000000000000000e+00,1.000000000000000000e+00,-3.000000000000000000e+00,-3.000000000000000000e+00,-2.671508789062500000e-01,3.161621093750000000e-01,3.092041015625000000e-01,8.561401367187500000e-01
-1.000000000000000000e+00,-3.000000000000000000e+00,-2.200000000000000000e+01,-8.000000000000000000e+00,0.000000000000000000e+00,-1.000000000000000000e+00,1.000000000000000000e+00,-1.000000000000000000e+00,-2.671508789062500000e-01,3.161621093750000000e-01,3.092041015625000000e-01,8.561401367187500000e-01
-6.000000000000000000e+00,-4.000000000000000000e+00,-1.000000000000000000e+01,3.000000000000000000e+00,-1.000000000000000000e+00,1.000000000000000000e+00,-1.000000000000000000e+00,-1.000000000000000000e+00,-2.671508789062500000e-01,3.161621093750000000e-01,3.092041015625000000e-01,8.561401367187500000e-01
4.000000000000000000e+00,-5.000000000000000000e+00,2.200000000000000000e+01,-5.000000000000000000e+00,-3.000000000000000000e+00,-1.000000000000000000e+00,0.000000000000000000e+00,2.000000000000000000e+00,-2.671508789062500000e-01,3.161621093750000000e-01,3.092041015625000000e-01,8.561401367187500000e-01
0.000000000000000000e+00,3.000000000000000000e+00,-5.000000000000000000e+00,7.000000000000000000e+00,2.000000000000000000e+00,2.000000000000000000e+00,3.000000000000000000e+00,0.000000000000000000e+00,-2.670898437500000000e-01,3.161621093750000000e-01,3.092041015625000000e-01,8.562011718750000000e-01
-1.000000000000000000e+00,5.000000000000000000e+00,1.000000000000000000e+01,-5.000000000000000000e+00,-1.000000000000000000e+00,-3.000000000000000000e+00,-4.000000000000000000e+00,-2.000000000000000000e+00,-2.670898437500000000e-01,3.161621093750000000e-01,3.092041015625000000e-01,8.562011718750000000e-01
0.000000000000000000e+00,0.000000000000000000e+00,-4.000000000000000000e+00,0.000000000000000000e+00,1.000000000000000000e+00,-3.000000000000000000e+00,1.000000000000000000e+00,-1.000000000000000000e+00,-2.670898437500000000e-01,3.161621093750000000e-01,3.092041015625000000e-01,8.562011718750000000e-01
-2.000000000000000000e+00,2.000000000000000000e+00,2.000000000000000000e+00,4.000000000000000000e+00,1.000000000000000000e+00,0.000000000000000000e+00,-1.000000000000000000e+00,-4.000000000000000000e+00,-2.670898437500000000e-01,3.161621093750000000e-01,3.092041015625000000e-01,8.562011718750000000e-01
5.000000000000000000e+00,0.000000000000000000e+00,3.000000000000000000e+00,0.000000000000000000e+00,-3.000000000000000000e+00,-3.000000000000000000e+00,-4.000000000000000000e+00,-3.000000000000000000e+00,-2.670898437500000000e-01,3.160400390625000000e-01,3.097534179687500000e-01,8.560180664062500000e-01
-1.200000000000000000e+01,-7.000000000000000000e+00,3.000000000000000000e+00,1.000000000000000000e+00,-1.000000000000000000e+00,0.000000000000000000e+00,1.000000000000000000e+00,3.000000000000000000e+00,-2.670898437500000000e-01,3.160400390625000000e-01,3.097534179687500000e-01,8.560180664062500000e-01
3.000000000000000000e+00,-3.000000000000000000e+00,3.000000000000000000e+00,0.000000000000000000e+00,0.000000000000000000e+00,-1.000000000000000000e+00,2.000000000000000000e+00,1.000000000000000000e+00,-2.670898437500000000e-01,3.160400390625000000e-01,3.097534179687500000e-01,8.560180664062500000e-01
1.000000000000000000e+00,-1.000000000000000000e+00,-7.000000000000000000e+00,-4.000000000000000000e+00,1.000000000000000000e+00,-2.000000000000000000e+00,0.000000000000000000e+00,-3.000000000000000000e+00,-2.670898437500000000e-01,3.160400390625000000e-01,3.097534179687500000e-01,8.560180664062500000e-01
2.000000000000000000e+00,-1.000000000000000000e+00,-3.000000000000000000e+00,-3.000000000000000000e+00,-6.000000000000000000e+00,-1.000000000000000000e+00,1.000000000000000000e+00,-2.000000000000000000e+00,-2.672119140625000000e-01,3.158569335937500000e-01,3.103637695312500000e-01,8.558349609375000000e-01
-2.000000000000000000e+00,0.000000000000000000e+00,-1.000000000000000000e+00,-1.000000000000000000e+01,-5.000000000000000000e+00,-4.000000000000000000e+00,-5.000000000000000000e+00,-4.000000000000000000e+00,-2.672119140625000000e-01,3.158569335937500000e-01,3.103637695312500000e-01,8.558349609375000000e-01
-6.000000000000000000e+00,-6.000000000000000000e+00,-4.000000000000000000e+00,1.900000000000000000e+01,-4.000000000000000000e+00,0.000000000000000000e+00,-4.000000000000000000e+00,-3.000000000000000000e+00,-2.672119140625000000e-01,3.158569335937500000e-01,3.103637695312500000e-01,8.558349609375000000e-01
1.200000000000000000e+01,7.000000000000000000e+00,5.000000000000000000e+00,-7.000000000000000000e+00,0.000000000000000000e+00,3.000000000000000000e+00,2.000000000000000000e+00,5.000000000000000000e+00,-2.672119140625000000e-01,3.158569335937500000e-01,3.103637695312500000e-01,8.558349609375000000e-01
-6.000000000000000000e+00,-4.000000000000000000e+00,-8.000000000000000000e+00,4.000000000000000000e+00,1.100000000000000000e+01,1.000000000000000000e+00,1.000000000000000000e+00,-3.000000000000000000e+00,-2.668457031250000000e-01,3.161010742187500000e-01,3.104858398437500000e-01,8.558349609375000000e-01
0.000000000000000000e+00,-2.000000000000000000e+00,1.000000000000000000e+00,0.000000000000000000e+00,-1.000000000000000000e+00,0.000000000000000000e+00,-2.000000000000000000e+00,-1.000000000000000000e+00,-2.668457031250000000e-01,3.161010742187500000e-01,3.104858398437500000e-01,8.558349609375000000e-01
-2.000000000000000000e+00,-6.000000000000000000e+00,-6.000000000000000000e+00,-8.000000000000000000e+00,-9.000000000000000000e+00,-4.000000000000000000e+00,-2.000000000000000000e+00,-2.000000000000000000e+00,-2.668457031250000000e-01,3.161010742187500000e-01,3.104858398437500000e-01,8.558349609375000000e-01
2.000000000000000000e+00,7.000000000000000000e+00,-1.000000000000000000e+00,-1.400000000000000000e+01,-6.000000000000000000e+00,-2.000000000000000000e+00,-5.000000000000000000e+00,-2.000000000000000000e+00,-2.668457031250000000e-01,3.161010742187500000e-01,3.104858398437500000e-01,8.558349609375000000e-01
-1.500000000000000000e+01,-6.000000000000000000e+00,1.000000000000000000e+00,1.300000000000000000e+01,4.000000000000000000e+00,-1.000000000000000000e+00,-1.000000000000000000e+00,-3.000000000000000000e+00,-2.664184570312500000e-01,3.162841796875000000e-01,3.104248046875000000e-01,8.558959960937500000e-01
8.000000000000000000e+00,-4.000000000000000000e+00,0.000000000000000000e+00,4.000000000000000000e+00,6.000000000000000000e+00,1.000000000000000000e+00,2.000000000000000000e+00,3.000000000000000000e+00,-2.664184570312500000e-01,3.162841796875000000e-01,3.104248046875000000e-01,8.558959960937500000e-01
-4.000000000000000000e+00,7.000000000000000000e+00,-2.000000000000000000e+00,-4.000000000000000000e+00,0.000000000000000000e+00,1.000000000000000000e+00,-3.000000000000000000e+00,-1.000000000000000000e+00,-2.664184570312500000e-01,3.162841796875000000e-01,3.104248046875000000e-01,8.558959960937500000e-01
-1.000000000000000000e+00,-5.000000000000000000e+00,-5.000000000000000000e+00,3.000000000000000000e+00,-2.000000000000000000e+00,1.000000000000000000e+00,0.000000000000000000e+00,0.000000000000000000e+00,-2.664184570312500000e-01,3.162841796875000000e-01,3.104248046875000000e-01,8.558959960937500000e-01
2.000000000000000000e+00,1.000000000000000000e+00,9.000000000000000000e+00,-2.700000000000000000e+01,-6.000000000000000000e+00,-4.000000000000000000e+00,-2.000000000000000000e+00,3.000000000000000000e+00,-2.659912109375000000e-01,3.162841796875000000e-01,3.105468750000000000e-01,8.559570312500000000e-01
5.000000000000000000e+00,2.000000000000000000e+00,7.000000000000000000e+00,2.600000000000000000e+01,1.000000000000000000e+01,2.000000000000000000e+00,1.000000000000000000e+00,-5.000000000000000000e+00,-2.659912109375000000e-01,3.162841796875000000e-01,3.105468750000000000e-01,8.559570312500000000e-01
4.000000000000000000e+00,-1.000000000000000000e+00,-1.300000000000000000e+01,-4.000000000000000000e+00,-1.000000000000000000e+00,-3.000000000000000000e+00,0.000000000000000000e+00,0.000000000000000000e+00,-2.659912109375000000e-01,3.162841796875000000e-01,3.105468750000000000e-01,8.559570312500000000e-01
-8.000000000000000000e+00,2.000000000000000000e+00,2.500000000000000000e+01,8.000000000000000000e+00,3.000000000000000000e+00,-1.000000000000000000e+00,-1.000000000000000000e+00,-2.000000000000000000e+00,-2.659912109375000000e-01,3.162841796875000000e-01,3.105468750000000000e-01,8.559570312500000000e-01
4.000000000000000000e+00,-3.000000000000000000e+00,-3.400000000000000000e+01,-6.000000000000000000e+00,-1.000000000000000000e+01,-4.000000000000000000e+00,-1.000000000000000000e+00,3.000000000000000000e+00,-2.660522460937500000e-01,3.162841796875000000e-01,3.109741210937500000e-01,8.558349609375000000e-01
-3.000000000000000000e+00,-5.000000000000000000e+00,-8.000000000000000000e+00,-1.100000000000000000e+01,1.000000000000000000e+00,-1.000000000000000000e+00,-1.000000000000000000e+00,-4.000000000000000000e+00,-2.660522460937500000e-01,3.162841796875000000e-01,3.109741210937500000e-01,8.558349609375000000e-01
-2.000000000000000000e+00,-1.000000000000000000e+00,1.000000000000000000e+00,5.000000000000000000e+00,1.000000000000000000e+00,0.000000000000000000e+00,2.000000000000000000e+00,-2.000000000000000000e+00,-2.660522460937500000e-01,3.162841796875000000e-01,3.109741210937500000e-01,8.558349609375000000e-01
-1.000000000000000000e+00,-1.000000000000000000e+00,-1.000000000000000000e+01,-5.000000000000000000e+00,-4.000000000000000000e+00,-5.000000000000000000e+00,-4.000000000000000000e+00,-5.000000000000000000e+00,-2.660522460937500000e-01,3.162841796875000000e-01,3.109741210937500000e-01,8.558349609375000000e-01
-1.000000000000000000e+00,0.000000000000000000e+00,1.700000000000000000e+01,2.000000000000000000e+00,-4.000000000000000000e+00,3.000000000000000000e+00,5.000000000000000000e+00,2.000000000000000000e+00,-2.661132812500000000e-01,3.162841796875000000e-01,3.109741210937500000e-01,8.557739257812500000e-01
-2.000000000000000000e+00,1.000000000000000000e+00,7.000000000000000000e+00,-3.000000000000000000e+00,-6.000000000000000000e+00,-2.000000000000000000e+00,-2.000000000000000000e+00,1.000000000000000000e+00,-2.661132812500000000e-01,3.162841796875000000e-01,3.109741210937500000e-01,8.557739257812500000e-01
3.000000000000000000e+00,2.000000000000000000e+00,-2.000000000000000000e+00,5.000000000000000000e+00,1.100000000000000000e+01,4.000000000000000000e+00,1.000000000000000000e+00,0.000000000000000000e+00,-2.661132812500000000e-01,3.162841796875000000e-01,3.109741210937500000e-01,8.557739257812500000e-01
6.000000000000000000e+00,-1.000000000000000000e+00,6.000000000000000000e+00,0.000000000000000000e+00,-6.000000000000000000e+00,-4.000000000000000000e+00,-1.000000000000000000e+00,1.000000000000000000e+00,-2.661132812500000000e-01,3.162841796875000000e-01,3.109741210937500000e-01,8.557739257812500000e-01
-1.300000000000000000e+01,-1.300000000000000000e+01,-1.000000000000000000e+01,-1.000000000000000000e+00,-1.000000000000000000e+00,0.000000000000000000e+00,-3.000000000000000000e+00,-2.000000000000000000e+00,-2.661743164062500000e-01,3.164062500000000000e-01,3.104858398437500000e-01,8.558959960937500000e-01
-1.000000000000000000e+00,-1.000000000000000000e+00,-1.000000000000000000e+00,1.000000000000000000e+00,-2.000000000000000000e+00,1.000000000000000000e+00,1.000000000000000000e+00,2.000000000000000000e+00,-2.661743164062500000e-01,3.164062500000000000e-01,3.104858398437500000e-01,8.558959960937500000e-01
0.000000000000000000e+00,5.000000000000000000e+00,3.000000000000000000e+00,-2.100000000000000000e+01,-1.200000000000000000e+01,-5.000000000000000000e+00,-6.000000000000000000e+00,-2.000000000000000000e+00,-2.661743164062500000e-01,3.164062500000000000e-01,3.104858398437500000e-01,8.558959960937500000e-01
-8.000000000000000000e+00,-5.000000000000000000e+00,-5.000000000000000000e+00,1.700000000000000000e+01,1.200000000000000000e+01,3.000000000000000000e+00,-3.000000000000000000e+00,-3.000000000000000000e+00,-2.661743164062500000e-01,3.164062500000000000e-01,3.104858398437500000e-01,8.558959960937500000e-01
1.300000000000000000e+01,3.000000000000000000e+00,8.000000000000000000e+00,-5.000000000000000000e+00,-2.000000000000000000e+00,0.000000000000000000e+00,1.000000000000000000e+00,2.000000000000000000e+00,-2.662963867187500000e-01,3.167114257812500000e-01,3.098754882812500000e-01,8.559570312500000000e-01
0.000000000000000000e+00,5.000000000000000000e+00,-6.000000000000000000e+00,-6.000000000000000000e+00,-1.100000000000000000e+01,-2.000000000000000000e+00,-2.000000000000000000e+00,-2.000000000000000000e+00,-2.662963867187500000e-01,3.167114257812500000e-01,3.098754882812500000e-01,8.559570312500000000e-01
-4.000000000000000000e+00,-6.000000000000000000e+00,-5.000000000000000000e+00,-7.000000000000000000e+00,-3.000000000000000000e+00,-1.000000000000000000e+00,2.000000000000000000e+00,-1.000000000000000000e+00,-2.662963867187500000e-01,3.167114257812500000e-01,3.098754882812500000e-01,8.559570312500000000e-01
-2.000000000000000000e+00,0.000000000000000000e+00,-4.000000000000000000e+00,2.000000000000000000e+00,7.000000000000000000e+00,1.000000000000000000e+00,0.000000000000000000e+00,0.000000000000000000e+00,-2.662963867187500000e-01,3.167114257812500000e-01,3.098754882812500000e-01,8.559570312500000000e-01
0.000000000000000000e+00,3.000000000000000000e+00,1.700000000000000000e+01,1.200000000000000000e+01,6.000000000000000000e+00,-3.000000000000000000e+00,-4.000000000000000000e+00,-4.000000000000000000e+00,-2.667236328125000000e-01,3.168334960937500000e-01,3.093261718750000000e-01,8.559570312500000000e-01
-5.000000000000000000e+00,-1.400000000000000000e+01,-2.600000000000000000e+01,-6.000000000000000000e+00,-6.000000000000000000e+00,-2.000000000000000000e+00,-3.000000000000000000e+00,3.000000000000000000e+00,-2.667236328125000000e-01,3.168334960937500000e-01,3.093261718750000000e-01,8.559570312500000000e-01
2.000000000000000000e+00,2.000000000000000000e+00,-9.000000000000000000e+00,-4.000000000000000000e+00,-2.000000000000000000e+00,-1.000000000000000000e+00,0.000000000000000000e+00,-1.000000000000000000e+00,-2.667236328125000000e-01,3.168334960937500000e-01,3.093261718750000000e-01,8.559570312500000000e-01
-4.000000000000000000e+00,-2.000000000000000000e+00,-3.000000000000000000e+00,1.000000000000000000e+00,-5.000000000000000000e+00,-2.000000000000000000e+00,-6.000000000000000000e+00,-4.000000000000000000e+00,-2.667236328125000000e-01,3.168334960937500000e-01,3.093261718750000000e-01,8.559570312500000000e-01
1.200000000000000000e+01,-5.000000000000000000e+00,7.000000000000000000e+00,-3.000000000000000000e+00,1.000000000000000000e+00,2.000000000000000000e+00,-1.000000000000000000e+00,0.000000000000000000e+00,-2.672729492187500000e-01,3.167114257812500000e-01,3.090209960937500000e-01,8.559570312500000000e-01
-2.900000000000000000e+01,-1.500000000000000000e+01,9.000000000000000000e+00,0.000000000000000000e+00,-2.000000000000000000e+00,-2.000000000000000000e+00,-1.000000000000000000e+00,-4.000000000000000000e+00,-2.672729492187500000e-01,3.167114257812500000e-01,3.090209960937500000e-01,8.559570312500000000e-01
4.000000000000000000e+00,6.000000000000000000e+00,3.200000000000000000e+01,5.000000000000000000e+00,1.000000000000000000e+00,0.000000000000000000e+00,0.000000000000000000e+00,2.000000000000000000e+00,-2.672729492187500000e-01,3.167114257812500000e-01,3.090209960937500000e-01,8.559570312500000000e-01
-5.000000000000000000e+00,-1.000000000000000000e+00,-2.800000000000000000e+01,-4.000000000000000000e+00,-2.000000000000000000e+00,-2.000000000000000000e+00,0.000000000000000000e+00,-1.000000000000000000e+00,-2.672729492187500000e-01,3.167114257812500000e-01,3.090209960937500000e-01,8.559570312500000000e-01
0.000000000000000000e+00,4.000000000000000000e+00,-1.400000000000000000e+01,-4.000000000000000000e+00,-1.000000000000000000e+00,0.000000000000000000e+00,-5.000000000000000000e+00,-6.000000000000000000e+00,-2.675781250000000000e-01,3.166503906250000000e-01,3.088378906250000000e-01,8.559570312500000000e-01
1.400000000000000000e+01,0.000000000000000000e+00,5.000000000000000000e+00,-4.000000000000000000e+00,-3.000000000000000000e+00,-4.000000000000000000e+00,-1.000000000000000000e+00,1.000000000000000000e+00,-2.675781250000000000e-01,3.166503906250000000e-01,3.088378906250000000e-01,8.559570312500000000e-01
-6.000000000000000000e+00,-6.000000000000000000e+00,-1.000000000000000000e+01,5.000000000000000000e+00,0.000000000000000000e+00,1.000000000000000000e+00,3.000000000000000000e+00,1.000000000000000000e+00,-2.675781250000000000e-01,3.166503906250000000e-01,3.088378906250000000e-01,8.559570312500000000e-01
-3.000000000000000000e+00,-1.500000000000000000e+01,2.300000000000000000e+01,-3.000000000000000000e+00,-3.000000000000000000e+00,-3.000000000000000000e+00,-1.000000000000000000e+00,-1.000000000000000000e+00,-2.675781250000000000e-01,3.166503906250000000e-01,3.088378906250000000e-01,8.559570312500000000e-01
