-2.100000000000000000e+01,-1.200000000000000000e+01,1.500000000000000000e+01,-9.000000000000000000e+00,-9.000000000000000000e+00,-3.000000000000000000e+00,-5.000000000000000000e+00,-9.000000000000000000e+00,4.464111328125000000e-01,2.003173828125000000e-01,-8.560180664062500000e-01,1.668701171875000000e-01
5.000000000000000000e+00,1.000000000000000000e+00,2.000000000000000000e+00,6.000000000000000000e+00,8.000000000000000000e+00,1.000000000000000000e+00,2.000000000000000000e+00,4.000000000000000000e+00,4.464111328125000000e-01,2.003173828125000000e-01,-8.560180664062500000e-01,1.668701171875000000e-01
-1.600000000000000000e+01,-1.600000000000000000e+01,-8.000000000000000000e+00,3.000000000000000000e+00,5.000000000000000000e+00,2.000000000000000000e+00,3.000000000000000000e+00,-1.000000000000000000e+00,4.464111328125000000e-01,2.003173828125000000e-01,-8.560180664062500000e-01,1.668701171875000000e-01
6.000000000000000000e+00,-3.000000000000000000e+00,-2.000000000000000000e+00,-8.000000000000000000e+00,-1.500000000000000000e+01,-5.000000000000000000e+00,-4.000000000000000000e+00,0.000000000000000000e+00,4.464111328125000000e-01,2.003173828125000000e-01,-8.560180664062500000e-01,1.668701171875000000e-01
1.000000000000000000e+00,1.100000000000000000e+01,-1.500000000000000000e+01,-7.000000000000000000e+00,5.000000000000000000e+00,2.000000000000000000e+00,-1.000000000000000000e+00,-1.000000000000000000e+00,4.464111328125000000e-01,2.001342773437500000e-01,-8.559570312500000000e-01,1.672973632812500000e-01
-1.100000000000000000e+01,-9.000000000000000000e+00,2.400000000000000000e+01,6.000000000000000000e+00,4.000000000000000000e+00,-2.000000000000000000e+00,-4.000000000000000000e+00,-1.000000000000000000e+01,4.464111328125000000e-01,2.001342773437500000e-01,-8.559570312500000000e-01,1.672973632812500000e-01
3.000000000000000000e+00,-6.000000000000000000e+00,-1.700000000000000000e+01,-1.000000000000000000e+01,-5.000000000000000000e+00,1.000000000000000000e+00,-1.000000000000000000e+00,6.000000000000000000e+00,4.464111328125000000e-01,2.001342773437500000e-01,-8.559570312500000000e-01,1.672973632812500000e-01
-9.000000000000000000e+00,-3.000000000000000000e+00,7.000000000000000000e+00,1.000000000000000000e+00,-8.000000000000000000e+00,-5.000000000000000000e+00,1.000000000000000000e+00,-4.000000000000000000e+00,4.464111328125000000e-01,2.001342773437500000e-01,-8.559570312500000000e-01,1.672973632812500000e-01
6.000000000000000000e+00,3.000000000000000000e+00,-1.000000000000000000e+00,8.000000000000000000e+00,8.000000000000000000e+00,4.000000000000000000e+00,0.000000000000000000e+00,-2.000000000000000000e+00,4.464111328125000000e-01,2.001953125000000000e-01,-8.558959960937500000e-01,1.676635742187500000e-01
-1.000000000000000000e+00,-1.000000000000000000e+00,-9.000000000000000000e+00,-6.000000000000000000e+00,-1.000000000000000000e+00,-5.000000000000000000e+00,-3.000000000000000000e+00,5.000000000000000000e+00,4.464111328125000000e-01,2.001953125000000000e-01,-8.558959960937500000e-01,1.676635742187500000e-01
2.000000000000000000e+00,3.000000000000000000e+00,1.000000000000000000e+00,6.000000000000000000e+00,1.000000000000000000e+00,-1.000000000000000000e+00,1.000000000000000000e+00,-2.000000000000000000e+00,4.464111328125000000e-01,2.001953125000000000e-01,-8.558959960937500000e-01,1.676635742187500000e-01
1.200000000000000000e+01,-5.000000000000000000e+00,-6.000000000000000000e+00,-9.000000000000000000e+00,-3.000000000000000000e+00,0.000000000000000000e+00,-2.000000000000000000e+00,2.000000000000000000e+00,4.464111328125000000e-01,2.001953125000000000e-01,-8.558959960937500000e-01,1.676635742187500000e-01
-1.000000000000000000e+00,4.000000000000000000e+00,-9.000000000000000000e+00,-6.000000000000000000e+00,-1.200000000000000000e+01,-7.000000000000000000e+00,4.000000000000000000e+00,7.000000000000000000e+00,4.466552734375000000e-01,2.000732421875000000e-01,-8.557739257812500000e-01,1.675415039062500000e-01
-5.000000000000000000e+00,5.000000000000000000e+00,8.000000000000000000e+00,5.000000000000000000e+00,4.000000000000000000e+00,1.000000000000000000e+00,-3.000000000000000000e+00,-2.200000000000000000e+01,4.466552734375000000e-01,2.000732421875000000e-01,-8.557739257812500000e-01,1.675415039062500000e-01
-1.500000000000000000e+01,-2.200000000000000000e+01,-1.400000000000000000e+01,-5.000000000000000000e+00,2.000000000000000000e+00,-1.000000000000000000e+00,-1.000000000000000000e+00,-3.000000000000000000e+00,4.466552734375000000e-01,2.000732421875000000e-01,-8.557739257812500000e-01,1.675415039062500000e-01
1.000000000000000000e+01,6.000000000000000000e+00,-2.000000000000000000e+00,1.000000000000000000e+00,-4.000000000000000000e+00,-1.000000000000000000e+00,1.000000000000000000e+00,-1.000000000000000000e+00,4.466552734375000000e-01,2.000732421875000000e-01,-8.557739257812500000e-01,1.675415039062500000e-01
-8.000000000000000000e+00,7.000000000000000000e+00,-2.000000000000000000e+00,3.000000000000000000e+00,7.000000000000000000e+00,5.000000000000000000e+00,-2.000000000000000000e+00,2.000000000000000000e+00,4.471435546875000000e-01,1.994628906250000000e-01,-8.557128906250000000e-01,1.673583984375000000e-01
2.000000000000000000e+00,7.000000000000000000e+00,1.000000000000000000e+00,1.000000000000000000e+00,1.000000000000000000e+00,-1.000000000000000000e+00,-1.000000000000000000e+00,6.000000000000000000e+00,4.471435546875000000e-01,1.994628906250000000e-01,-8.557128906250000000e-01,1.673583984375000000e-01
1.200000000000000000e+01,6.000000000000000000e+00,4.000000000000000000e+00,-3.000000000000000000e+00,-1.000000000000000000e+01,-7.000000000000000000e+00,-3.000000000000000000e+00,-5.000000000000000000e+00,4.471435546875000000e-01,1.994628906250000000e-01,-8.557128906250000000e-01,1.673583984375000000e-01
-1.400000000000000000e+01,-9.000000000000000000e+00,7.000000000000000000e+00,1.000000000000000000e+00,-1.000000000000000000e+01,-1.100000000000000000e+01,-2.000000000000000000e+00,2.000000000000000000e+00,4.471435546875000000e-01,1.994628906250000000e-01,-8.557128906250000000e-01,1.673583984375000000e-01
-1.500000000000000000e+01,7.000000000000000000e+00,4.000000000000000000e+00,-2.000000000000000000e+00,1.000000000000000000e+00,1.700000000000000000e+01,8.000000000000000000e+00,2.000000000000000000e+00,4.476928710937500000e-01,1.990966796875000000e-01,-8.555297851562500000e-01,1.674804687500000000e-01
-5.000000000000000000e+00,-7.000000000000000000e+00,-2.100000000000000000e+01,0.000000000000000000e+00,2.100000000000000000e+01,4.000000000000000000e+00,-1.000000000000000000e+00,6.000000000000000000e+00,4.476928710937500000e-01,1.990966796875000000e-01,-8.555297851562500000e-01,1.674804687500000000e-01
-6.000000000000000000e+00,-4.000000000000000000e+00,1.000000000000000000e+01,0.000000000000000000e+00,0.000000000000000000e+00,1.000000000000000000e+00,0.000000000000000000e+00,-2.000000000000000000e+00,4.476928710937500000e-01,1.990966796875000000e-01,-8.555297851562500000e-01,1.674804687500000000e-01
6.000000000000000000e+00,-1.000000000000000000e+00,-6.000000000000000000e+00,-2.000000000000000000e+00,-1.000000000000000000e+00,1.000000000000000000e+00,-2.000000000000000000e+00,1.000000000000000000e+00,4.476928710937500000e-01,1.990966796875000000e-01,-8.555297851562500000e-01,1.674804687500000000e-01
6.000000000000000000e+00,8.000000000000000000e+00,3.000000000000000000e+00,4.000000000000000000e+00,-6.000000000000000000e+00,-8.000000000000000000e+00,-2.000000000000000000e+00,-3.000000000000000000e+00,4.477539062500000000e-01,1.993408203125000000e-01,-8.553466796875000000e-01,1.677856445312500000e-01
8.000000000000000000e+00,3.000000000000000000e+00,1.000000000000000000e+00,-6.000000000000000000e+00,-7.000000000000000000e+00,-6.000000000000000000e+00,-3.000000000000000000e+00,2.000000000000000000e+00,4.477539062500000000e-01,1.993408203125000000e-01,-8.553466796875000000e-01,1.677856445312500000e-01
-1.100000000000000000e+01,1.300000000000000000e+01,0.000000000000000000e+00,-2.000000000000000000e+00,-4.000000000000000000e+00,-1.000000000000000000e+00,-1.000000000000000000e+00,2.000000000000000000e+00,4.477539062500000000e-01,1.993408203125000000e-01,-8.553466796875000000e-01,1.677856445312500000e-01
0.000000000000000000e+00,-4.000000000000000000e+00,2.000000000000000000e+00,0.000000000000000000e+00,0.000000000000000000e+00,2.000000000000000000e+00,-1.000000000000000000e+00,-1.000000000000000000e+00,4.477539062500000000e-01,1.993408203125000000e-01,-8.553466796875000000e-01,1.677856445312500000e-01
1.000000000000000000e+00,-1.100000000000000000e+01,7.000000000000000000e+00,-1.000000000000000000e+00,3.000000000000000000e+00,-2.000000000000000000e+00,-5.000000000000000000e+00,-8.000000000000000000e+00,4.477539062500000000e-01,2.000122070312500000e-01,-8.551635742187500000e-01,1.679077148437500000e-01
1.000000000000000000e+00,-1.200000000000000000e+01,-3.100000000000000000e+01,-1.000000000000000000e+01,-4.000000000000000000e+00,0.000000000000000000e+00,1.000000000000000000e+00,1.000000000000000000e+00,4.477539062500000000e-01,2.000122070312500000e-01,-8.551635742187500000e-01,1.679077148437500000e-01
-1.000000000000000000e+01,-1.300000000000000000e+01,1.600000000000000000e+01,-1.000000000000000000e+00,-3.000000000000000000e+00,-8.000000000000000000e+00,-5.000000000000000000e+00,-1.000000000000000000e+00,4.477539062500000000e-01,2.000122070312500000e-01,-8.551635742187500000e-01,1.679077148437500000e-01
4.000000000000000000e+00,9.000000000000000000e+00,1.000000000000000000e+00,0.000000000000000000e+00,-5.000000000000000000e+00,0.000000000000000000e+00,-2.000000000000000000e+00,0.000000000000000000e+00,4.477539062500000000e-01,2.000122070312500000e-01,-8.551635742187500000e-01,1.679077148437500000e-01
1.000000000000000000e+00,2.000000000000000000e+00,-4.000000000000000000e+00,-1.000000000000000000e+00,-1.000000000000000000e+00,-1.000000000000000000e+00,-3.000000000000000000e+00,-5.000000000000000000e+00,4.478149414062500000e-01,2.003784179687500000e-01,-8.551025390625000000e-01,1.678466796875000000e-01
3.000000000000000000e+00,-1.000000000000000000e+00,2.000000000000000000e+00,-4.000000000000000000e+00,-7.000000000000000000e+00,-4.000000000000000000e+00,3.000000000000000000e+00,2.000000000000000000e+00,4.478149414062500000e-01,2.003784179687500000e-01,-8.551025390625000000e-01,1.678466796875000000e-01
3.000000000000000000e+00,2.000000000000000000e+00,-6.000000000000000000e+00,-2.000000000000000000e+00,-5.000000000000000000e+00,-1.000000000000000000e+00,0.000000000000000000e+00,-1.000000000000000000e+00,4.478149414062500000e-01,2.003784179687500000e-01,-8.551025390625000000e-01,1.678466796875000000e-01
6.000000000000000000e+00,9.000000000000000000e+00,9.000000000000000000e+00,7.000000000000000000e+00,1.800000000000000000e+01,8.000000000000000000e+00,3.000000000000000000e+00,1.100000000000000000e+01,4.478149414062500000e-01,2.003784179687500000e-01,-8.551025390625000000e-01,1.678466796875000000e-01
-1.700000000000000000e+01,-1.100000000000000000e+01,1.100000000000000000e+01,-3.000000000000000000e+00,4.000000000000000000e+00,-2.000000000000000000e+00,-4.000000000000000000e+00,-1.200000000000000000e+01,4.478149414062500000e-01,2.002563476562500000e-01,-8.551635742187500000e-01,1.676025390625000000e-01
-4.000000000000000000e+00,0.000000000000000000e+00,-2.000000000000000000e+01,-3.000000000000000000e+00,-5.000000000000000000e+00,-3.000000000000000000e+00,-2.000000000000000000e+00,-2.000000000000000000e+00,4.478149414062500000e-01,2.002563476562500000e-01,-8.551635742187500000e-01,1.676025390625000000e-01
-4.000000000000000000e+00,-7.000000000000000000e+00,2.000000000000000000e+00,-5.000000000000000000e+00,-7.000000000000000000e+00,-4.000000000000000000e+00,-3.000000000000000000e+00,-2.000000000000000000e+00,4.478149414062500000e-01,2.002563476562500000e-01,-8.551635742187500000e-01,1.676025390625000000e-01
-2.000000000000000000e+00,-4.000000000000000000e+00,-5.000000000000000000e+00,-2.000000000000000000e+00,-1.000000000000000000e+01,-6.000000000000000000e+00,-1.000000000000000000e+00,3.000000000000000000e+00,4.478149414062500000e-01,2.002563476562500000e-01,-8.551635742187500000e-01,1.676025390625000000e-01
1.200000000000000000e+01,-5.000000000000000000e+00,-1.000000000000000000e+00,3.000000000000000000e+00,6.000000000000000000e+00,1.000000000000000000e+00,3.000000000000000000e+00,6.000000000000000000e+00,4.476928710937500000e-01,2.006225585937500000e-01,-8.551635742187500000e-01,1.674194335937500000e-01
1.000000000000000000e+00,5.000000000000000000e+00,6.000000000000000000e+00,-4.000000000000000000e+00,-1.300000000000000000e+01,-5.000000000000000000e+00,-8.000000000000000000e+00,-3.000000000000000000e+00,4.476928710937500000e-01,2.006225585937500000e-01,-8.551635742187500000e-01,1.674194335937500000e-01
-7.000000000000000000e+00,-1.000000000000000000e+00,-3.000000000000000000e+00,1.000000000000000000e+00,-1.000000000000000000e+00,-2.000000000000000000e+00,-4.000000000000000000e+00,-1.000000000000000000e+00,4.476928710937500000e-01,2.006225585937500000e-01,-8.551635742187500000e-01,1.674194335937500000e-01
-4.000000000000000000e+00,-7.000000000000000000e+00,-2.000000000000000000e+00,1.000000000000000000e+00,7.000000000000000000e+00,2.000000000000000000e+00,-3.000000000000000000e+00,-6.000000000000000000e+00,4.476928710937500000e-01,2.006225585937500000e-01,-8.551635742187500000e-01,1.674194335937500000e-01
9.000000000000000000e+00,1.100000000000000000e+01,-5.000000000000000000e+00,7.000000000000000000e+00,9.000000000000000000e+00,5.000000000000000000e+00,1.000000000000000000e+00,2.000000000000000000e+00,4.472045898437500000e-01,2.009887695312500000e-01,-8.552856445312500000e-01,1.674804687500000000e-01
1.600000000000000000e+01,1.600000000000000000e+01,8.000000000000000000e+00,8.000000000000000000e+00,5.000000000000000000e+00,5.000000000000000000e+00,3.000000000000000000e+00,1.000000000000000000e+00,4.472045898437500000e-01,2.009887695312500000e-01,-8.552856445312500000e-01,1.674804687500000000e-01
-8.000000000000000000e+00,-2.700000000000000000e+01,0.000000000000000000e+00,-3.000000000000000000e+00,2.000000000000000000e+00,2.000000000000000000e+00,2.000000000000000000e+00,-1.000000000000000000e+00,4.472045898437500000e-01,2.009887695312500000e-01,-8.552856445312500000e-01,1.674804687500000000e-01
-1.000000000000000000e+01,-6.000000000000000000e+00,-8.000000000000000000e+00,-1.300000000000000000e+01,-1.300000000000000000e+01,-7.000000000000000000e+00,-5.000000000000000000e+00,-7.000000000000000000e+00,4.472045898437500000e-01,2.009887695312500000e-01,-8.552856445312500000e-01,1.674804687500000000e-01
1.000000000000000000e+00,-1.000000000000000000e+00,-5.000000000000000000e+00,-8.000000000000000000e+00,-1.800000000000000000e+01,-1.000000000000000000e+01,-6.000000000000000000e+00,-4.000000000000000000e+00,4.466552734375000000e-01,2.016601562500000000e-01,-8.554077148437500000e-01,1.677856445312500000e-01
-1.000000000000000000e+01,-1.000000000000000000e+01,8.000000000000000000e+00,6.000000000000000000e+00,6.000000000000000000e+00,1.000000000000000000e+00,-2.000000000000000000e+00,3.000000000000000000e+00,4.466552734375000000e-01,2.016601562500000000e-01,-8.554077148437500000e-01,1.677856445312500000e-01
6.000000000000000000e+00,1.600000000000000000e+01,2.000000000000000000e+00,6.000000000000000000e+00,1.500000000000000000e+01,6.000000000000000000e+00,-1.000000000000000000e+00,3.000000000000000000e+00,4.466552734375000000e-01,2.016601562500000000e-01,-8.554077148437500000e-01,1.677856445312500000e-01
-4.000000000000000000e+00,-6.000000000000000000e+00,-2.000000000000000000e+00,2.000000000000000000e+00,5.000000000000000000e+00,5.000000000000000000e+00,4.000000000000000000e+00,-1.000000000000000000e+00,4.466552734375000000e-01,2.016601562500000000e-01,-8.554077148437500000e-01,1.677856445312500000e-01
-7.000000000000000000e+00,1.200000000000000000e+01,5.000000000000000000e+00,-2.000000000000000000e+00,-1.000000000000000000e+01,-4.000000000000000000e+00,2.000000000000000000e+00,-1.000000000000000000e+00,4.461059570312500000e-01,2.020874023437500000e-01,-8.555297851562500000e-01,1.678466796875000000e-01
4.800000000000000000e+01,8.000000000000000000e+00,8.000000000000000000e+00,-2.000000000000000000e+00,-3.000000000000000000e+00,-1.000000000000000000e+00,0.000000000000000000e+00,4.000000000000000000e+00,4.461059570312500000e-01,2.020874023437500000e-01,-8.555297851562500000e-01,1.678466796875000000e-01
-4.000000000000000000e+01,-1.500000000000000000e+01,-5.000000000000000000e+00,1.000000000000000000e+00,4.000000000000000000e+00,0.000000000000000000e+00,2.000000000000000000e+00,-2.000000000000000000e+00,4.461059570312500000e-01,2.020874023437500000e-01,-8.555297851562500000e-01,1.678466796875000000e-01
-2.400000000000000000e+01,-1.100000000000000000e+01,-2.000000000000000000e+00,-6.000000000000000000e+00,-6.000000000000000000e+00,-5.000000000000000000e+00,-3.000000000000000000e+00,-5.000000000000000000e+00,4.461059570312500000e-01,2.020874023437500000e-01,-8.555297851562500000e-01,1.678466796875000000e-01
2.000000000000000000e+00,4.000000000000000000e+00,-8.000000000000000000e+00,-1.000000000000000000e+00,-2.000000000000000000e+00,-1.000000000000000000e+00,-3.000000000000000000e+00,-1.000000000000000000e+00,4.460449218750000000e-01,2.021484375000000000e-01,-8.555908203125000000e-01,1.678466796875000000e-01
-8.000000000000000000e+00,-5.000000000000000000e+00,3.000000000000000000e+00,-2.000000000000000000e+00,-2.000000000000000000e+00,-4.000000000000000000e+00,-5.000000000000000000e+00,-3.000000000000000000e+00,4.460449218750000000e-01,2.021484375000000000e-01,-8.555908203125000000e-01,1.678466796875000000e-01
1.100000000000000000e+01,3.000000000000000000e+00,-5.000000000000000000e+00,-7.000000000000000000e+00,-1.300000000000000000e+01,-6.000000000000000000e+00,-2.000000000000000000e+00,-1.000000000000000000e+00,4.460449218750000000e-01,2.021484375000000000e-01,-8.555908203125000000e-01,1.678466796875000000e-01
6.000000000000000000e+00,1.000000000000000000e+01,4.000000000000000000e+00,3.000000000000000000e+00,6.000000000000000000e+00,7.000000000000000000e+00,4.000000000000000000e+00,1.000000000000000000e+00,4.460449218750000000e-01,2.021484375000000000e-01,-8.555908203125000000e-01,1.678466796875000000e-01
5.000000000000000000e+00,-5.000000000000000000e+00,-7.000000000000000000e+00,6.000000000000000000e+00,5.000000000000000000e+00,3.000000000000000000e+00,1.000000000000000000e+00,0.000000000000000000e+00,4.459228515625000000e-01,2.016601562500000000e-01,-8.557739257812500000e-01,1.677856445312500000e-01
-2.600000000000000000e+01,-6.000000000000000000e+00,7.000000000000000000e+00,-6.000000000000000000e+00,1.000000000000000000e+00,1.000000000000000000e+00,2.000000000000000000e+00,-4.000000000000000000e+00,4.459228515625000000e-01,2.016601562500000000e-01,-8.557739257812500000e-01,1.677856445312500000e-01
1.100000000000000000e+01,1.000000000000000000e+00,-3.000000000000000000e+00,-5.000000000000000000e+00,-3.000000000000000000e+00,-3.000000000000000000e+00,-4.000000000000000000e+00,-2.000000000000000000e+00,4.459228515625000000e-01,2.016601562500000000e-01,-8.557739257812500000e-01,1.677856445312500000e-01
-2.000000000000000000e+00,-1.000000000000000000e+01,-3.000000000000000000e+00,0.000000000000000000e+00,-4.000000000000000000e+00,-5.000000000000000000e+00,-3.000000000000000000e+00,6.000000000000000000e+00,4.459228515625000000e-01,2.016601562500000000e-01,-8.557739257812500000e-01,1.677856445312500000e-01
3.000000000000000000e+00,-4.000000000000000000e+00,-1.000000000000000000e+01,-5.000000000000000000e+00,-2.000000000000000000e+00,-1.000000000000000000e+00,-8.000000000000000000e+00,-1.200000000000000000e+01,4.457397460937500000e-01,2.011108398437500000e-01,-8.558959960937500000e-01,1.682128906250000000e-01
-3.000000000000000000e+00,-2.000000000000000000e+00,-2.000000000000000000e+00,6.000000000000000000e+00,9.000000000000000000e+00,5.000000000000000000e+00,6.000000000000000000e+00,1.000000000000000000e+00,4.457397460937500000e-01,2.011108398437500000e-01,-8.558959960937500000e-01,1.682128906250000000e-01
-1.000000000000000000e+01,5.000000000000000000e+00,-3.000000000000000000e+00,1.000000000000000000e+00,0.000000000000000000e+00,-2.000000000000000000e+00,-6.000000000000000000e+00,1.000000000000000000e+01,4.457397460937500000e-01,2.011108398437500000e-01,-8.558959960937500000e-01,1.682128906250000000e-01
1.000000000000000000e+00,5.000000000000000000e+00,3.000000000000000000e+00,-2.000000000000000000e+00,-3.000000000000000000e+00,2.000000000000000000e+00,0.000000000000000000e+00,-2.000000000000000000e+00,4.457397460937500000e-01,2.011108398437500000e-01,-8.558959960937500000e-01,1.682128906250000000e-01
3.000000000000000000e+00,-1.100000000000000000e+01,-2.000000000000000000e+00,-2.000000000000000000e+00,-2.000000000000000000e+00,-4.000000000000000000e+00,3.000000000000000000e+00,4.000000000000000000e+00,4.452514648437500000e-01,2.012939453125000000e-01,-8.560180664062500000e-01,1.688232421875000000e-01
-8.000000000000000000e+00,6.000000000000000000e+00,5.000000000000000000e+00,-3.000000000000000000e+00,-1.100000000000000000e+01,-3.000000000000000000e+00,0.000000000000000000e+00,2.000000000000000000e+00,4.452514648437500000e-01,2.012939453125000000e-01,-8.560180664062500000e-01,1.688232421875000000e-01
2.000000000000000000e+00,5.000000000000000000e+00,-1.500000000000000000e+01,0.000000000000000000e+00,0.000000000000000000e+00,0.000000000000000000e+00,-1.000000000000000000e+00,6.000000000000000000e+00,4.452514648437500000e-01,2.012939453125000000e-01,-8.560180664062500000e-01,1.688232421875000000e-01
5.000000000000000000e+00,-4.000000000000000000e+00,3.000000000000000000e+00,1.000000000000000000e+00,-1.000000000000000000e+00,-1.000000000000000000e+00,-5.000000000000000000e+00,-2.000000000000000000e+01,4.452514648437500000e-01,2.012939453125000000e-01,-8.560180664062500000e-01,1.688232421875000000e-01
-7.000000000000000000e+00,-3.000000000000000000e+00,4.000000000000000000e+00,3.000000000000000000e+00,6.000000000000000000e+00,6.000000000000000000e+00,4.000000000000000000e+00,1.000000000000000000e+00,4.445800781250000000e-01,2.017211914062500000e-01,-8.561401367187500000e-01,1.694946289062500000e-01
-5.000000000000000000e+00,-3.000000000000000000e+00,0.000000000000000000e+00,-3.000000000000000000e+00,-1.000000000000000000e+01,-6.000000000000000000e+00,-4.000000000000000000e+00,-1.000000000000000000e+00,4.445800781250000000e-01,2.017211914062500000e-01,-8.561401367187500000e-01,1.694946289062500000e-01
7.000000000000000000e+00,1.000000000000000000e+00,-1.000000000000000000e+00,2.000000000000000000e+00,0.000000000000000000e+00,-1.000000000000000000e+00,6.000000000000000000e+00,4.000000000000000000e+00,4.445800781250000000e-01,2.017211914062500000e-01,-8.561401367187500000e-01,1.694946289062500000e-01
-4.000000000000000000e+00,-4.000000000000000000e+00,-9.000000000000000000e+00,-4.000000000000000000e+00,-4.000000000000000000e+00,-1.000000000000000000e+00,-1.000000000000000000e+00,2.000000000000000000e+00,4.445800781250000000e-01,2.017211914062500000e-01,-8.561401367187500000e-01,1.694946289062500000e-01
6.000000000000000000e+00,-6.000000000000000000e+00,6.000000000000000000e+00,-4.000000000000000000e+00,-3.000000000000000000e+00,-6.000000000000000000e+00,0.000000000000000000e+00,-2.000000000000000000e+00,4.440307617187500000e-01,2.016601562500000000e-01,-8.563232421875000000e-01,1.697998046875000000e-01
2.000000000000000000e+00,1.400000000000000000e+01,6.000000000000000000e+00,1.000000000000000000e+00,-1.000000000000000000e+00,-2.000000000000000000e+00,-1.000000000000000000e+00,-1.000000000000000000e+00,4.440307617187500000e-01,2.016601562500000000e-01,-8.563232421875000000e-01,1.697998046875000000e-01
1.000000000000000000e+01,-4.000000000000000000e+00,2.000000000000000000e+00,2.000000000000000000e+00,-5.000000000000000000e+00,-1.000000000000000000e+00,0.000000000000000000e+00,-7.000000000000000000e+00,4.440307617187500000e-01,2.016601562500000000e-01,-8.563232421875000000e-01,1.697998046875000000e-01
4.000000000000000000e+00,-7.000000000000000000e+00,-9.000000000000000000e+00,-1.000000000000000000e+00,4.000000000000000000e+00,-1.000000000000000000e+00,-3.000000000000000000e+00,-5.000000000000000000e+00,4.440307617187500000e-01,2.016601562500000000e-01,-8.563232421875000000e-01,1.697998046875000000e-01
-2.400000000000000000e+01,-6.000000000000000000e+00,2.000000000000000000e+00,-1.000000000000000000e+00,-3.000000000000000000e+00,0.000000000000000000e+00,1.000000000000000000e+00,2.000000000000000000e+00,4.434814453125000000e-01,2.011718750000000000e-01,-8.567504882812500000e-01,1.699218750000000000e-01
1.300000000000000000e+01,0.000000000000000000e+00,-1.000000000000000000e+01,0.000000000000000000e+00,-1.000000000000000000e+00,1.000000000000000000e+00,1.000000000000000000e+00,3.000000000000000000e+00,4.434814453125000000e-01,2.011718750000000000e-01,-8.567504882812500000e-01,1.699218750000000000e-01
-1.300000000000000000e+01,1.000000000000000000e+00,7.000000000000000000e+00,4.000000000000000000e+00,2.000000000000000000e+00,-2.000000000000000000e+00,-5.000000000000000000e+00,-8.000000000000000000e+00,4.434814453125000000e-01,2.011718750000000000e-01,-8.567504882812500000e-01,1.699218750000000000e-01
-1.000000000000000000e+00,9.000000000000000000e+00,8.000000000000000000e+00,-2.000000000000000000e+00,0.000000000000000000e+00,-2.000000000000000000e+00,1.000000000000000000e+00,3.000000000000000000e+00,4.434814453125000000e-01,2.011718750000000000e-01,-8.567504882812500000e-01,1.699218750000000000e-01
1.000000000000000000e+01,1.100000000000000000e+01,-2.200000000000000000e+01,-2.000000000000000000e+00,-2.000000000000000000e+00,1.000000000000000000e+00,0.000000000000000000e+00,4.000000000000000000e+00,4.426879882812500000e-01,2.008056640625000000e-01,-8.571777343750000000e-01,1.702270507812500000e-01
-4.000000000000000000e+00,-1.400000000000000000e+01,1.000000000000000000e+00,-1.000000000000000000e+00,4.000000000000000000e+00,2.000000000000000000e+00,-3.000000000000000000e+00,-4.000000000000000000e+00,4.426879882812500000e-01,2.008056640625000000e-01,-8.571777343750000000e-01,1.702270507812500000e-01
5.000000000000000000e+00,-1.600000000000000000e+01,-6.000000000000000000e+00,-1.000000000000000000e+00,4.000000000000000000e+00,2.000000000000000000e+00,3.000000000000000000e+00,-5.000000000000000000e+00,4.426879882812500000e-01,2.008056640625000000e-01,-8.571777343750000000e-01,1.702270507812500000e-01
-8.000000000000000000e+00,8.000000000000000000e+00,6.000000000000000000e+00,2.000000000000000000e+00,-2.000000000000000000e+00,-1.000000000000000000e+00,4.000000000000000000e+00,5.000000000000000000e+00,4.426879882812500000e-01,2.008056640625000000e-01,-8.571777343750000000e-01,1.702270507812500000e-01
-1.000000000000000000e+00,3.000000000000000000e+00,5.000000000000000000e+00,0.000000000000000000e+00,3.000000000000000000e+00,1.000000000000000000e+00,1.000000000000000000e+00,1.900000000000000000e+01,4.415893554687500000e-01,2.012329101562500000e-01,-8.574829101562500000e-01,1.709594726562500000e-01
-8.000000000000000000e+00,2.000000000000000000e+00,-1.600000000000000000e+01,-5.000000000000000000e+00,-9.000000000000000000e+00,-4.000000000000000000e+00,-1.000000000000000000e+00,-6.000000000000000000e+00,4.415893554687500000e-01,2.012329101562500000e-01,-8.574829101562500000e-01,1.709594726562500000e-01
0.000000000000000000e+00,8.000000000000000000e+00,4.000000000000000000e+00,-2.000000000000000000e+00,-6.000000000000000000e+00,-5.000000000000000000e+00,-4.000000000000000000e+00,-1.200000000000000000e+01,4.415893554687500000e-01,2.012329101562500000e-01,-8.574829101562500000e-01,1.709594726562500000e-01
1.000000000000000000e+00,-5.000000000000000000e+00,5.000000000000000000e+00,-2.000000000000000000e+00,3.000000000000000000e+00,-1.000000000000000000e+00,-2.000000000000000000e+00,-1.000000000000000000e+00,4.415893554687500000e-01,2.012329101562500000e-01,-8.574829101562500000e-01,1.709594726562500000e-01
5.000000000000000000e+00,2.000000000000000000e+00,-2.000000000000000000e+00,-2.000000000000000000e+00,-1.000000000000000000e+00,-1.000000000000000000e+00,-2.000000000000000000e+00,1.000000000000000000e+00,4.404296875000000000e-01,2.016601562500000000e-01,-8.578491210937500000e-01,1.716308593750000000e-01
-9.000000000000000000e+00,-2.000000000000000000e+00,-6.000000000000000000e+00,1.000000000000000000e+00,-2.000000000000000000e+00,1.000000000000000000e+00,1.000000000000000000e+00,7.000000000000000000e+00,4.404296875000000000e-01,2.016601562500000000e-01,-8.578491210937500000e-01,1.716308593750000000e-01
6.000000000000000000e+00,-6.000000000000000000e+00,1.000000000000000000e+00,0.000000000000000000e+00,-2.000000000000000000e+00,-4.000000000000000000e+00,-3.000000000000000000e+00,3.000000000000000000e+00,4.404296875000000000e-01,2.016601562500000000e-01,-8.578491210937500000e-01,1.716308593750000000e-01
5.000000000000000000e+00,-8.000000000000000000e+00,-1.300000000000000000e+01,-1.200000000000000000e+01,-6.000000000000000000e+00,-6.000000000000000000e+00,-7.000000000000000000e+00,-9.000000000000000000e+00,4.404296875000000000e-01,2.016601562500000000e-01,-8.578491210937500000e-01,1.716308593750000000e-01
-6.000000000000000000e+00,-2.000000000000000000e+00,-1.400000000000000000e+01,2.000000000000000000e+00,1.000000000000000000e+01,7.000000000000000000e+00,1.000000000000000000e+00,-6.000000000000000000e+00,4.395141601562500000e-01,2.015380859375000000e-01,-8.582763671875000000e-01,1.718750000000000000e-01
-4.000000000000000000e+00,-1.600000000000000000e+01,9.000000000000000000e+00,-3.000000000000000000e+00,-4.000000000000000000e+00,0.000000000000000000e+00,-3.000000000000000000e+00,-2.000000000000000000e+00,4.395141601562500000e-01,2.015380859375000000e-01,-8.582763671875000000e-01,1.718750000000000000e-01
-7.000000000000000000e+00,1.000000000000000000e+00,-3.000000000000000000e+00,-1.000000000000000000e+00,-2.000000000000000000e+00,-3.000000000000000000e+00,-1.000000000000000000e+00,-7.000000000000000000e+00,4.395141601562500000e-01,2.015380859375000000e-01,-8.582763671875000000e-01,1.718750000000000000e-01
2.000000000000000000e+00,3.000000000000000000e+00,0.000000000000000000e+00,4.000000000000000000e+00,5.000000000000000000e+00,-4.000000000000000000e+00,0.000000000000000000e+00,1.000000000000000000e+00,4.395141601562500000e-01,2.015380859375000000e-01,-8.582763671875000000e-01,1.718750000000000000e-01
3.000000000000000000e+00,-1.000000000000000000e+00,-3.000000000000000000e+00,-5.000000000000000000e+00,-1.200000000000000000e+01,-7.000000000000000000e+00,-3.000000000000000000e+00,-5.000000000000000000e+00,4.386596679687500000e-01,2.014770507812500000e-01,-8.587036132812500000e-01,1.719970703125000000e-01
2.200000000000000000e+01,2.200000000000000000e+01,7.000000000000000000e+00,1.000000000000000000e+00,2.000000000000000000e+00,1.000000000000000000e+00,2.000000000000000000e+00,3.000000000000000000e+00,4.386596679687500000e-01,2.014770507812500000e-01,-8.587036132812500000e-01,1.719970703125000000e-01
-3.400000000000000000e+01,-6.000000000000000000e+00,7.000000000000000000e+00,-3.000000000000000000e+00,-8.000000000000000000e+00,0.000000000000000000e+00,2.000000000000000000e+00,3.000000000000000000e+00,4.386596679687500000e-01,2.014770507812500000e-01,-8.587036132812500000e-01,1.719970703125000000e-01
0.000000000000000000e+00,-1.100000000000000000e+01,-5.000000000000000000e+00,3.000000000000000000e+00,2.000000000000000000e+00,2.000000000000000000e+00,-2.000000000000000000e+00,-1.000000000000000000e+00,4.386596679687500000e-01,2.014770507812500000e-01,-8.587036132812500000e-01,1.719970703125000000e-01
1.000000000000000000e+00,-1.000000000000000000e+00,1.000000000000000000e+00,1.000000000000000000e+00,9.000000000000000000e+00,1.000000000000000000e+00,-1.000000000000000000e+00,-5.000000000000000000e+00,4.378662109375000000e-01,2.015991210937500000e-01,-8.590698242187500000e-01,1.722412109375000000e-01
-3.000000000000000000e+00,3.000000000000000000e+00,-8.000000000000000000e+00,1.000000000000000000e+00,2.000000000000000000e+00,-1.000000000000000000e+00,1.000000000000000000e+00,-2.000000000000000000e+00,4.378662109375000000e-01,2.015991210937500000e-01,-8.590698242187500000e-01,1.722412109375000000e-01
2.000000000000000000e+01,1.100000000000000000e+01,2.000000000000000000e+00,0.000000000000000000e+00,-6.000000000000000000e+00,-4.000000000000000000e+00,0.000000000000000000e+00,4.000000000000000000e+00,4.378662109375000000e-01,2.015991210937500000e-01,-8.590698242187500000e-01,1.722412109375000000e-01
-6.000000000000000000e+00,-1.200000000000000000e+01,-4.000000000000000000e+00,-4.000000000000000000e+00,-3.000000000000000000e+00,2.000000000000000000e+00,1.000000000000000000e+00,3.000000000000000000e+00,4.378662109375000000e-01,2.015991210937500000e-01,-8.590698242187500000e-01,1.722412109375000000e-01
-7.000000000000000000e+00,-5.000000000000000000e+00,2.000000000000000000e+00,-7.000000000000000000e+00,-6.000000000000000000e+00,-6.000000000000000000e+00,-3.000000000000000000e+00,3.000000000000000000e+00,4.371948242187500000e-01,2.018432617187500000e-01,-8.591918945312500000e-01,1.728515625000000000e-01
2.000000000000000000e+00,-1.000000000000000000e+00,3.000000000000000000e+00,-2.000000000000000000e+00,-2.000000000000000000e+00,-4.000000000000000000e+00,-6.000000000000000000e+00,-1.200000000000000000e+01,4.371948242187500000e-01,2.018432617187500000e-01,-8.591918945312500000e-01,1.728515625000000000e-01
1.000000000000000000e+00,-1.000000000000000000e+00,-1.400000000000000000e+01,-1.000000000000000000e+00,5.000000000000000000e+00,3.000000000000000000e+00,5.000000000000000000e+00,2.000000000000000000e+00,4.371948242187500000e-01,2.018432617187500000e-01,-8.591918945312500000e-01,1.728515625000000000e-01
-4.000000000000000000e+00,-4.000000000000000000e+00,2.000000000000000000e+00,0.000000000000000000e+00,-2.000000000000000000e+00,-6.000000000000000000e+00,-6.000000000000000000e+00,-3.000000000000000000e+00,4.371948242187500000e-01,2.018432617187500000e-01,-8.591918945312500000e-01,1.728515625000000000e-01
1.700000000000000000e+01,3.000000000000000000e+00,-2.000000000000000000e+00,-2.000000000000000000e+00,-5.000000000000000000e+00,-2.000000000000000000e+00,1.000000000000000000e+00,-2.000000000000000000e+00,4.365844726562500000e-01,2.022094726562500000e-01,-8.593139648437500000e-01,1.734008789062500000e-01
-2.200000000000000000e+01,-7.000000000000000000e+00,0.000000000000000000e+00,0.000000000000000000e+00,-2.000000000000000000e+00,1.000000000000000000e+00,2.000000000000000000e+00,3.000000000000000000e+00,4.365844726562500000e-01,2.022094726562500000e-01,-8.593139648437500000e-01,1.734008789062500000e-01
1.000000000000000000e+00,-1.000000000000000000e+00,-3.000000000000000000e+00,-8.000000000000000000e+00,-2.000000000000000000e+00,-5.000000000000000000e+00,-1.100000000000000000e+01,-7.000000000000000000e+00,4.365844726562500000e-01,2.022094726562500000e-01,-8.593139648437500000e-01,1.734008789062500000e-01
-1.200000000000000000e+01,1.100000000000000000e+01,1.700000000000000000e+01,7.000000000000000000e+00,-4.000000000000000000e+00,-1.000000000000000000e+00,2.000000000000000000e+00,1.000000000000000000e+00,4.365844726562500000e-01,2.022094726562500000e-01,-8.593139648437500000e-01,1.734008789062500000e-01
1.300000000000000000e+01,-6.000000000000000000e+00,6.000000000000000000e+00,-6.000000000000000000e+00,1.000000000000000000e+00,2.000000000000000000e+00,-1.000000000000000000e+00,0.000000000000000000e+00,4.361572265625000000e-01,2.022094726562500000e-01,-8.594970703125000000e-01,1.735839843750000000e-01
-8.000000000000000000e+00,-2.600000000000000000e+01,4.000000000000000000e+00,3.000000000000000000e+00,7.000000000000000000e+00,-1.000000000000000000e+00,-2.000000000000000000e+00,-1.000000000000000000e+00,4.361572265625000000e-01,2.022094726562500000e-01,-8.594970703125000000e-01,1.735839843750000000e-01
0.000000000000000000e+00,-1.000000000000000000e+00,-1.000000000000000000e+00,2.000000000000000000e+00,2.000000000000000000e+00,0.000000000000000000e+00,-2.000000000000000000e+00,-3.000000000000000000e+00,4.361572265625000000e-01,2.022094726562500000e-01,-8.594970703125000000e-01,1.735839843750000000e-01
3.000000000000000000e+00,4.000000000000000000e+00,-5.000000000000000000e+00,-6.000000000000000000e+00,-7.000000000000000000e+00,-3.000000000000000000e+00,-1.000000000000000000e+00,1.000000000000000000e+00,4.361572265625000000e-01,2.022094726562500000e-01,-8.594970703125000000e-01,1.735839843750000000e-01
-2.000000000000000000e+00,7.000000000000000000e+00,1.000000000000000000e+00,-2.000000000000000000e+00,-6.000000000000000000e+00,-2.000000000000000000e+00,-3.000000000000000000e+00,-3.000000000000000000e+00,4.359130859375000000e-01,2.019042968750000000e-01,-8.596191406250000000e-01,1.738891601562500000e-01
-2.000000000000000000e+00,3.000000000000000000e+00,0.000000000000000000e+00,-1.000000000000000000e+00,-3.000000000000000000e+00,0.000000000000000000e+00,0.000000000000000000e+00,-2.000000000000000000e+00,4.359130859375000000e-01,2.019042968750000000e-01,-8.596191406250000000e-01,1.738891601562500000e-01
-4.000000000000000000e+00,2.000000000000000000e+00,-2.000000000000000000e+00,-3.000000000000000000e+00,-8.000000000000000000e+00,-1.000000000000000000e+00,-1.000000000000000000e+00,-1.000000000000000000e+00,4.359130859375000000e-01,2.019042968750000000e-01,-8.596191406250000000e-01,1.738891601562500000e-01
1.400000000000000000e+01,7.000000000000000000e+00,1.000000000000000000e+00,1.700000000000000000e+01,2.000000000000000000e+01,7.000000000000000000e+00,6.000000000000000000e+00,4.000000000000000000e+00,4.359130859375000000e-01,2.019042968750000000e-01,-8.596191406250000000e-01,1.738891601562500000e-01
-9.000000000000000000e+00,-1.600000000000000000e+01,-5.000000000000000000e+00,-5.000000000000000000e+00,2.000000000000000000e+00,0.000000000000000000e+00,0.000000000000000000e+00,-1.000000000000000000e+00,4.356689453125000000e-01,2.016601562500000000e-01,-8.597412109375000000e-01,1.742553710937500000e-01
-1.400000000000000000e+01,-4.000000000000000000e+00,-2.300000000000000000e+01,-1.300000000000000000e+01,-8.000000000000000000e+00,-4.000000000000000000e+00,-4.000000000000000000e+00,-5.000000000000000000e+00,4.356689453125000000e-01,2.016601562500000000e-01,-8.597412109375000000e-01,1.742553710937500000e-01
4.000000000000000000e+00,-4.000000000000000000e+00,1.000000000000000000e+00,1.000000000000000000e+00,1.000000000000000000e+00,0.000000000000000000e+00,2.000000000000000000e+00,2.000000000000000000e+00,4.356689453125000000e-01,2.016601562500000000e-01,-8.597412109375000000e-01,1.742553710937500000e-01
6.000000000000000000e+00,8.000000000000000000e+00,-1.100000000000000000e+01,-5.000000000000000000e+00,-1.000000000000000000e+01,-3.000000000000000000e+00,-5.000000000000000000e+00,-3.000000000000000000e+00,4.356689453125000000e-01,2.016601562500000000e-01,-8.597412109375000000e-01,1.742553710937500000e-01
0.000000000000000000e+00,0.000000000000000000e+00,-3.000000000000000000e+00,5.000000000000000000e+00,4.000000000000000000e+00,0.000000000000000000e+00,1.000000000000000000e+00,-2.000000000000000000e+00,4.354858398437500000e-01,2.019042968750000000e-01,-8.596801757812500000e-01,1.748657226562500000e-01
2.000000000000000000e+00,6.000000000000000000e+00,3.000000000000000000e+00,1.000000000000000000e+00,-1.000000000000000000e+00,-3.000000000000000000e+00,-6.000000000000000000e+00,0.000000000000000000e+00,4.354858398437500000e-01,2.019042968750000000e-01,-8.596801757812500000e-01,1.748657226562500000e-01
-1.000000000000000000e+00,2.000000000000000000e+00,-3.000000000000000000e+00,-5.000000000000000000e+00,-3.000000000000000000e+00,0.000000000000000000e+00,-6.000000000000000000e+00,-2.000000000000000000e+00,4.354858398437500000e-01,2.019042968750000000e-01,-8.596801757812500000e-01,1.748657226562500000e-01
-8.000000000000000000e+00,-3.000000000000000000e+00,5.000000000000000000e+00,2.000000000000000000e+00,5.000000000000000000e+00,3.000000000000000000e+00,2.000000000000000000e+00,0.000000000000000000e+00,4.354858398437500000e-01,2.019042968750000000e-01,-8.596801757812500000e-01,1.748657226562500000e-01
-5.000000000000000000e+00,-5.000000000000000000e+00,-2.000000000000000000e+00,2.000000000000000000e+00,3.000000000000000000e+00,-5.000000000000000000e+00,-3.000000000000000000e+00,-3.000000000000000000e+00,4.354248046875000000e-01,2.019653320312500000e-01,-8.596801757812500000e-01,1.748046875000000000e-01
2.000000000000000000e+00,-1.000000000000000000e+00,-2.000000000000000000e+00,-4.000000000000000000e+00,-2.000000000000000000e+00,0.000000000000000000e+00,1.000000000000000000e+00,1.200000000000000000e+01,4.354248046875000000e-01,2.019653320312500000e-01,-8.596801757812500000e-01,1.748046875000000000e-01
3.000000000000000000e+00,-1.000000000000000000e+00,2.000000000000000000e+00,3.000000000000000000e+00,3.000000000000000000e+00,0.000000000000000000e+00,-5.000000000000000000e+00,-1.700000000000000000e+01,4.354248046875000000e-01,2.019653320312500000e-01,-8.596801757812500000e-01,1.748046875000000000e-01
1.300000000000000000e+01,3.000000000000000000e+00,-3.000000000000000000e+00,-2.000000000000000000e+00,-2.000000000000000000e+00,1.000000000000000000e+00,2.000000000000000000e+00,1.000000000000000000e+00,4.354248046875000000e-01,2.019653320312500000e-01,-8.596801757812500000e-01,1.748046875000000000e-01
-1.000000000000000000e+01,-1.800000000000000000e+01,0.000000000000000000e+00,-1.000000000000000000e+01,-1.100000000000000000e+01,-2.000000000000000000e+00,-2.000000000000000000e+00,-5.000000000000000000e+00,4.354248046875000000e-01,2.019653320312500000e-01,-8.596801757812500000e-01,1.748046875000000000e-01
4.000000000000000000e+00,1.000000000000000000e+00,1.000000000000000000e+00,6.000000000000000000e+00,6.000000000000000000e+00,-1.000000000000000000e+00,1.000000000000000000e+00,1.000000000000000000e+00,4.354248046875000000e-01,2.019653320312500000e-01,-8.596801757812500000e-01,1.748046875000000000e-01
-1.000000000000000000e+00,0.000000000000000000e+00,2.000000000000000000e+00,1.000000000000000000e+00,1.000000000000000000e+00,-1.000000000000000000e+00,3.000000000000000000e+00,4.000000000000000000e+00,4.354248046875000000e-01,2.019653320312500000e-01,-8.596801757812500000e-01,1.748046875000000000e-01
-8.000000000000000000e+00,-1.300000000000000000e+01,-7.000000000000000000e+00,-5.000000000000000000e+00,-2.000000000000000000e+00,1.000000000000000000e+00,-2.000000000000000000e+00,-1.000000000000000000e+00,4.354248046875000000e-01,2.019653320312500000e-01,-8.596801757812500000e-01,1.748046875000000000e-01
-2.000000000000000000e+00,9.000000000000000000e+00,-2.000000000000000000e+00,1.000000000000000000e+00,-5.000000000000000000e+00,-3.000000000000000000e+00,-2.000000000000000000e+00,-1.000000000000000000e+00,4.353637695312500000e-01,2.019042968750000000e-01,-8.596801757812500000e-01,1.749877929687500000e-01
3.000000000000000000e+00,0.000000000000000000e+00,3.000000000000000000e+00,0.000000000000000000e+00,1.000000000000000000e+00,2.000000000000000000e+00,0.000000000000000000e+00,-3.000000000000000000e+00,4.353637695312500000e-01,2.019042968750000000e-01,-8.596801757812500000e-01,1.749877929687500000e-01
1.000000000000000000e+00,1.000000000000000000e+00,-3.000000000000000000e+00,-4.000000000000000000e+00,-2.000000000000000000e+00,-2.000000000000000000e+00,-3.000000000000000000e+00,1.000000000000000000e+00,4.353637695312500000e-01,2.019042968750000000e-01,-8.596801757812500000e-01,1.749877929687500000e-01
-9.000000000000000000e+00,7.000000000000000000e+00,8.000000000000000000e+00,-6.000000000000000000e+00,-4.000000000000000000e+00,-1.000000000000000000e+00,-1.000000000000000000e+00,-5.000000000000000000e+00,4.353637695312500000e-01,2.019042968750000000e-01,-8.596801757812500000e-01,1.749877929687500000e-01
0.000000000000000000e+00,5.000000000000000000e+00,1.000000000000000000e+01,4.000000000000000000e+00,-6.000000000000000000e+00,0.000000000000000000e+00,-1.000000000000000000e+00,3.000000000000000000e+00,4.352416992187500000e-01,2.020263671875000000e-01,-8.596801757812500000e-01,1.753540039062500000e-01
6.000000000000000000e+00,-2.000000000000000000e+01,-1.800000000000000000e+01,-4.000000000000000000e+00,5.000000000000000000e+00,0.000000000000000000e+00,0.000000000000000000e+00,-5.000000000000000000e+00,4.352416992187500000e-01,2.020263671875000000e-01,-8.596801757812500000e-01,1.753540039062500000e-01
-1.300000000000000000e+01,-1.100000000000000000e+01,-1.000000000000000000e+01,-4.000000000000000000e+00,-1.000000000000000000e+00,-1.000000000000000000e+00,4.000000000000000000e+00,-1.000000000000000000e+00,4.352416992187500000e-01,2.020263671875000000e-01,-8.596801757812500000e-01,1.753540039062500000e-01
-2.000000000000000000e+00,-8.000000000000000000e+00,-2.000000000000000000e+00,-3.000000000000000000e+00,-7.000000000000000000e+00,-3.000000000000000000e+00,-6.000000000000000000e+00,-2.000000000000000000e+00,4.352416992187500000e-01,2.020263671875000000e-01,-8.596801757812500000e-01,1.753540039062500000e-01
-6.000000000000000000e+00,1.000000000000000000e+00,2.000000000000000000e+00,1.000000000000000000e+00,-2.000000000000000000e+00,-2.000000000000000000e+00,-1.000000000000000000e+00,-1.000000000000000000e+00,4.349975585937500000e-01,2.023925781250000000e-01,-8.596801757812500000e-01,1.755371093750000000e-01
4.000000000000000000e+00,1.300000000000000000e+01,6.000000000000000000e+00,-2.000000000000000000e+00,0.000000000000000000e+00,-2.000000000000000000e+00,0.000000000000000000e+00,-3.000000000000000000e+00,4.349975585937500000e-01,2.023925781250000000e-01,-8.596801757812500000e-01,1.755371093750000000e-01
-1.000000000000000000e+00,2.000000000000000000e+00,5.000000000000000000e+00,3.000000000000000000e+00,-1.000000000000000000e+00,3.000000000000000000e+00,0.000000000000000000e+00,2.000000000000000000e+00,4.349975585937500000e-01,2.023925781250000000e-01,-8.596801757812500000e-01,1.755371093750000000e-01
-1.000000000000000000e+00,-6.000000000000000000e+00,-6.000000000000000000e+00,3.000000000000000000e+00,4.000000000000000000e+00,0.000000000000000000e+00,1.000000000000000000e+00,1.000000000000000000e+00,4.349975585937500000e-01,2.023925781250000000e-01,-8.596801757812500000e-01,1.755371093750000000e-01
1.000000000000000000e+00,1.100000000000000000e+01,-6.000000000000000000e+00,4.000000000000000000e+00,6.000000000000000000e+00,3.000000000000000000e+00,1.000000000000000000e+00,-2.000000000000000000e+00,4.348144531250000000e-01,2.022094726562500000e-01,-8.598632812500000000e-01,1.752929687500000000e-01
2.900000000000000000e+01,7.000000000000000000e+00,2.100000000000000000e+01,-7.000000000000000000e+00,-1.000000000000000000e+01,-6.000000000000000000e+00,-3.000000000000000000e+00,-1.000000000000000000e+00,4.348144531250000000e-01,2.022094726562500000e-01,-8.598632812500000000e-01,1.752929687500000000e-01
-2.200000000000000000e+01,-1.500000000000000000e+01,-1.500000000000000000e+01,-7.000000000000000000e+00,-2.000000000000000000e+00,-3.000000000000000000e+00,0.000000000000000000e+00,5.000000000000000000e+00,4.348144531250000000e-01,2.022094726562500000e-01,-8.598632812500000000e-01,1.752929687500000000e-01
1.000000000000000000e+00,-1.000000000000000000e+00,3.000000000000000000e+00,-1.000000000000000000e+00,-9.000000000000000000e+00,-1.000000000000000000e+00,0.000000000000000000e+00,0.000000000000000000e+00,4.348144531250000000e-01,2.022094726562500000e-01,-8.598632812500000000e-01,1.752929687500000000e-01
-5.000000000000000000e+00,-1.200000000000000000e+01,-8.000000000000000000e+00,0.000000000000000000e+00,-2.000000000000000000e+00,1.000000000000000000e+00,-2.000000000000000000e+00,-3.000000000000000000e+00,4.349365234375000000e-01,2.017211914062500000e-01,-8.599243164062500000e-01,1.751098632812500000e-01
9.000000000000000000e+00,1.200000000000000000e+01,-5.000000000000000000e+00,6.000000000000000000e+00,1.400000000000000000e+01,2.000000000000000000e+00,1.000000000000000000e+00,0.000000000000000000e+00,4.349365234375000000e-01,2.017211914062500000e-01,-8.599243164062500000e-01,1.751098632812500000e-01
9.000000000000000000e+00,3.000000000000000000e+00,9.000000000000000000e+00,1.000000000000000000e+00,0.000000000000000000e+00,2.000000000000000000e+00,1.000000000000000000e+00,0.000000000000000000e+00,4.349365234375000000e-01,2.017211914062500000e-01,-8.599243164062500000e-01,1.751098632812500000e-01
2.000000000000000000e+00,7.000000000000000000e+00,3.000000000000000000e+00,-4.000000000000000000e+00,-1.000000000000000000e+00,1.000000000000000000e+00,1.000000000000000000e+00,2.000000000000000000e+00,4.349365234375000000e-01,2.017211914062500000e-01,-8.599243164062500000e-01,1.751098632812500000e-01
2.000000000000000000e+00,1.000000000000000000e+00,-5.000000000000000000e+00,0.000000000000000000e+00,4.000000000000000000e+00,1.000000000000000000e+00,2.000000000000000000e+00,-1.000000000000000000e+00,4.348754882812500000e-01,2.017211914062500000e-01,-8.599243164062500000e-01,1.751098632812500000e-01
-1.100000000000000000e+01,3.000000000000000000e+00,4.000000000000000000e+00,1.000000000000000000e+00,-7.000000000000000000e+00,-2.000000000000000000e+00,0.000000000000000000e+00,-2.000000000000000000e+00,4.348754882812500000e-01,2.017211914062500000e-01,-8.599243164062500000e-01,1.751098632812500000e-01
0.000000000000000000e+00,1.300000000000000000e+01,-1.000000000000000000e+01,2.000000000000000000e+00,1.000000000000000000e+00,2.000000000000000000e+00,0.000000000000000000e+00,8.000000000000000000e+00,4.348754882812500000e-01,2.017211914062500000e-01,-8.599243164062500000e-01,1.751098632812500000e-01
4.000000000000000000e+00,-2.400000000000000000e+01,-1.100000000000000000e+01,-8.000000000000000000e+00,-2.000000000000000000e+00,-2.000000000000000000e+00,0.000000000000000000e+00,-4.000000000000000000e+00,4.348754882812500000e-01,2.017211914062500000e-01,-8.599243164062500000e-01,1.751098632812500000e-01
-5.000000000000000000e+00,-1.300000000000000000e+01,-2.000000000000000000e+00,-5.000000000000000000e+00,-7.000000000000000000e+00,-6.000000000000000000e+00,-5.000000000000000000e+00,-7.000000000000000000e+00,4.346923828125000000e-01,2.019042968750000000e-01,-8.599243164062500000e-01,1.754760742187500000e-01
-1.300000000000000000e+01,-8.000000000000000000e+00,-3.000000000000000000e+00,-1.000000000000000000e+00,-3.000000000000000000e+00,-1.000000000000000000e+00,-5.000000000000000000e+00,-1.000000000000000000e+00,4.346923828125000000e-01,2.019042968750000000e-01,-8.599243164062500000e-01,1.754760742187500000e-01
1.000000000000000000e+00,1.000000000000000000e+01,0.000000000000000000e+00,1.000000000000000000e+00,1.000000000000000000e+00,0.000000000000000000e+00,-1.000000000000000000e+00,-2.000000000000000000e+00,4.346923828125000000e-01,2.019042968750000000e-01,-8.599243164062500000e-01,1.754760742187500000e-01
7.000000000000000000e+00,8.000000000000000000e+00,-1.000000000000000000e+00,-1.000000000000000000e+00,-7.000000000000000000e+00,-5.000000000000000000e+00,0.000000000000000000e+00,6.000000000000000000e+00,4.346923828125000000e-01,2.019042968750000000e-01,-8.599243164062500000e-01,1.754760742187500000e-01
-7.000000000000000000e+00,-3.000000000000000000e+00,2.000000000000000000e+00,-1.000000000000000000e+00,-1.000000000000000000e+00,1.000000000000000000e+00,-1.000000000000000000e+00,-2.000000000000000000e+00,4.345703125000000000e-01,2.022094726562500000e-01,-8.599243164062500000e-01,1.755981445312500000e-01
-8.000000000000000000e+00,-3.000000000000000000e+00,1.000000000000000000e+00,1.000000000000000000e+00,8.000000000000000000e+00,4.000000000000000000e+00,2.000000000000000000e+00,-1.000000000000000000e+00,4.345703125000000000e-01,2.022094726562500000e-01,-8.599243164062500000e-01,1.755981445312500000e-01
7.000000000000000000e+00,1.000000000000000000e+00,1.000000000000000000e+00,4.000000000000000000e+00,3.000000000000000000e+00,-2.000000000000000000e+00,1.000000000000000000e+00,2.000000000000000000e+00,4.345703125000000000e-01,2.022094726562500000e-01,-8.599243164062500000e-01,1.755981445312500000e-01
-3.000000000000000000e+00,0.000000000000000000e+00,-4.000000000000000000e+00,-1.000000000000000000e+00,2.000000000000000000e+00,0.000000000000000000e+00,-2.000000000000000000e+00,-2.000000000000000000e+00,4.345703125000000000e-01,2.022094726562500000e-01,-8.599243164062500000e-01,1.755981445312500000e-01
7.000000000000000000e+00,4.000000000000000000e+00,8.000000000000000000e+00,-6.000000000000000000e+00,-6.000000000000000000e+00,-3.000000000000000000e+00,-1.000000000000000000e+00,-1.000000000000000000e+00,4.345703125000000000e-01,2.019653320312500000e-01,-8.600463867187500000e-01,1.751708984375000000e-01
-5.000000000000000000e+00,0.000000000000000000e+00,-2.600000000000000000e+01,-6.000000000000000000e+00,-7.000000000000000000e+00,-6.000000000000000000e+00,-1.000000000000000000e+00,2.000000000000000000e+00,4.345703125000000000e-01,2.019653320312500000e-01,-8.600463867187500000e-01,1.751708984375000000e-01
-2.600000000000000000e+01,-2.200000000000000000e+01,5.000000000000000000e+00,-2.000000000000000000e+00,-3.000000000000000000e+00,0.000000000000000000e+00,-1.000000000000000000e+00,-5.000000000000000000e+00,4.345703125000000000e-01,2.019653320312500000e-01,-8.600463867187500000e-01,1.751708984375000000e-01
-6.000000000000000000e+00,-3.000000000000000000e+00,-2.000000000000000000e+00,-2.000000000000000000e+00,-5.000000000000000000e+00,-1.100000000000000000e+01,-8.000000000000000000e+00,-2.000000000000000000e+00,4.345703125000000000e-01,2.019653320312500000e-01,-8.600463867187500000e-01,1.751708984375000000e-01
-1.000000000000000000e+00,-7.000000000000000000e+00,-2.000000000000000000e+00,3.000000000000000000e+00,0.000000000000000000e+00,6.000000000000000000e+00,4.000000000000000000e+00,2.000000000000000000e+00,4.346923828125000000e-01,2.017211914062500000e-01,-8.601684570312500000e-01,1.746826171875000000e-01
4.000000000000000000e+00,1.600000000000000000e+01,8.000000000000000000e+00,7.000000000000000000e+00,9.000000000000000000e+00,5.000000000000000000e+00,0.000000000000000000e+00,0.000000000000000000e+00,4.346923828125000000e-01,2.017211914062500000e-01,-8.601684570312500000e-01,1.746826171875000000e-01
9.000000000000000000e+00,3.000000000000000000e+00,-4.000000000000000000e+00,2.000000000000000000e+00,5.000000000000000000e+00,5.000000000000000000e+00,1.000000000000000000e+00,-1.000000000000000000e+00,4.346923828125000000e-01,2.017211914062500000e-01,-8.601684570312500000e-01,1.746826171875000000e-01
4.000000000000000000e+00,9.000000000000000000e+00,1.300000000000000000e+01,-1.000000000000000000e+00,0.000000000000000000e+00,-2.000000000000000000e+00,-1.000000000000000000e+00,-3.000000000000000000e+00,4.346923828125000000e-01,2.017211914062500000e-01,-8.601684570312500000e-01,1.746826171875000000e-01
-8.000000000000000000e+00,-2.000000000000000000e+00,-1.400000000000000000e+01,-3.000000000000000000e+00,-6.000000000000000000e+00,-8.000000000000000000e+00,-2.000000000000000000e+00,-1.000000000000000000e+00,4.345092773437500000e-01,2.019042968750000000e-01,-8.601684570312500000e-01,1.748657226562500000e-01
-1.000000000000000000e+01,-9.000000000000000000e+00,2.000000000000000000e+00,-3.000000000000000000e+00,-9.000000000000000000e+00,-2.000000000000000000e+00,-1.000000000000000000e+00,-2.000000000000000000e+00,4.345092773437500000e-01,2.019042968750000000e-01,-8.601684570312500000e-01,1.748657226562500000e-01
6.000000000000000000e+00,-1.100000000000000000e+01,-9.000000000000000000e+00,-2.000000000000000000e+00,-6.000000000000000000e+00,-9.000000000000000000e+00,-5.000000000000000000e+00,-3.000000000000000000e+00,4.345092773437500000e-01,2.019042968750000000e-01,-8.601684570312500000e-01,1.748657226562500000e-01
-7.000000000000000000e+00,7.000000000000000000e+00,0.000000000000000000e+00,-2.000000000000000000e+00,-2.000000000000000000e+00,2.000000000000000000e+00,1.000000000000000000e+00,-3.000000000000000000e+00,4.345092773437500000e-01,2.019042968750000000e-01,-8.601684570312500000e-01,1.748657226562500000e-01
9.000000000000000000e+00,5.000000000000000000e+00,4.000000000000000000e+00,-1.000000000000000000e+00,7.000000000000000000e+00,2.000000000000000000e+00,-1.000000000000000000e+00,0.000000000000000000e+00,4.343261718750000000e-01,2.023925781250000000e-01,-8.600463867187500000e-01,1.753540039062500000e-01
-3.000000000000000000e+00,-3.000000000000000000e+00,-3.000000000000000000e+00,-2.000000000000000000e+00,6.000000000000000000e+00,1.000000000000000000e+00,-1.000000000000000000e+00,-1.000000000000000000e+00,4.343261718750000000e-01,2.023925781250000000e-01,-8.600463867187500000e-01,1.753540039062500000e-01
9.000000000000000000e+00,5.000000000000000000e+00,1.000000000000000000e+01,-1.000000000000000000e+00,2.000000000000000000e+00,0.000000000000000000e+00,1.000000000000000000e+00,0.000000000000000000e+00,4.343261718750000000e-01,2.023925781250000000e-01,-8.600463867187500000e-01,1.753540039062500000e-01
-6.000000000000000000e+00,-1.200000000000000000e+01,-1.400000000000000000e+01,-1.000000000000000000e+00,-5.000000000000000000e+00,-7.000000000000000000e+00,-3.000000000000000000e+00,-1.000000000000000000e+00,4.343261718750000000e-01,2.023925781250000000e-01,-8.600463867187500000e-01,1.753540039062500000e-01
1.000000000000000000e+00,7.000000000000000000e+00,-1.200000000000000000e+01,2.000000000000000000e+00,3.000000000000000000e+00,2.000000000000000000e+00,-2.000000000000000000e+00,0.000000000000000000e+00,4.340820312500000000e-01,2.030029296875000000e-01,-8.599243164062500000e-01,1.755981445312500000e-01
-6.000000000000000000e+00,-2.000000000000000000e+00,-5.000000000000000000e+00,1.000000000000000000e+00,-6.000000000000000000e+00,-4.000000000000000000e+00,-2.000000000000000000e+00,-1.000000000000000000e+00,4.340820312500000000e-01,2.030029296875000000e-01,-8.599243164062500000e-01,1.755981445312500000e-01
9.000000000000000000e+00,3.000000000000000000e+00,1.700000000000000000e+01,-5.000000000000000000e+00,-1.000000000000000000e+00,1.000000000000000000e+00,0.000000000000000000e+00,-1.000000000000000000e+00,4.340820312500000000e-01,2.030029296875000000e-01,-8.599243164062500000e-01,1.755981445312500000e-01
2.000000000000000000e+00,7.000000000000000000e+00,1.400000000000000000e+01,6.000000000000000000e+00,6.000000000000000000e+00,4.000000000000000000e+00,-1.000000000000000000e+00,1.000000000000000000e+00,4.340820312500000000e-01,2.030029296875000000e-01,-8.599243164062500000e-01,1.755981445312500000e-01
0.000000000000000000e+00,-1.000000000000000000e+00,-3.000000000000000000e+00,-2.000000000000000000e+00,-1.000000000000000000e+00,-3.000000000000000000e+00,2.000000000000000000e+00,-1.000000000000000000e+00,4.343261718750000000e-01,2.029418945312500000e-01,-8.599853515625000000e-01,1.749877929687500000e-01
-1.100000000000000000e+01,-3.500000000000000000e+01,-3.000000000000000000e+00,-4.000000000000000000e+00,-6.000000000000000000e+00,-6.000000000000000000e+00,-2.000000000000000000e+00,-2.000000000000000000e+00,4.343261718750000000e-01,2.029418945312500000e-01,-8.599853515625000000e-01,1.749877929687500000e-01
8.000000000000000000e+00,1.500000000000000000e+01,-9.000000000000000000e+00,-4.000000000000000000e+00,-8.000000000000000000e+00,-2.000000000000000000e+00,-2.000000000000000000e+00,-3.000000000000000000e+00,4.343261718750000000e-01,2.029418945312500000e-01,-8.599853515625000000e-01,1.749877929687500000e-01
-2.000000000000000000e+00,-1.000000000000000000e+00,-3.000000000000000000e+00,-3.000000000000000000e+00,2.000000000000000000e+00,0.000000000000000000e+00,2.000000000000000000e+00,-1.000000000000000000e+00,4.343261718750000000e-01,2.029418945312500000e-01,-8.599853515625000000e-01,1.749877929687500000e-01
-3.000000000000000000e+01,-6.000000000000000000e+00,0.000000000000000000e+00,4.000000000000000000e+00,8.000000000000000000e+00,1.000000000000000000e+00,0.000000000000000000e+00,1.000000000000000000e+00,4.346923828125000000e-01,2.021484375000000000e-01,-8.601074218750000000e-01,1.742553710937500000e-01
2.000000000000000000e+00,5.000000000000000000e+00,1.200000000000000000e+01,-2.000000000000000000e+00,-6.000000000000000000e+00,0.000000000000000000e+00,-2.000000000000000000e+00,-1.000000000000000000e+00,4.346923828125000000e-01,2.021484375000000000e-01,-8.601074218750000000e-01,1.742553710937500000e-01
-6.000000000000000000e+00,-1.500000000000000000e+01,-1.200000000000000000e+01,-2.000000000000000000e+00,4.000000000000000000e+00,2.000000000000000000e+00,0.000000000000000000e+00,0.000000000000000000e+00,4.346923828125000000e-01,2.021484375000000000e-01,-8.601074218750000000e-01,1.742553710937500000e-01
3.000000000000000000e+00,7.000000000000000000e+00,-3.000000000000000000e+00,-2.000000000000000000e+00,-2.000000000000000000e+00,1.000000000000000000e+00,-1.000000000000000000e+00,1.000000000000000000e+00,4.346923828125000000e-01,2.021484375000000000e-01,-8.601074218750000000e-01,1.742553710937500000e-01
8.000000000000000000e+00,9.000000000000000000e+00,7.000000000000000000e+00,0.000000000000000000e+00,-5.000000000000000000e+00,-2.000000000000000000e+00,-3.000000000000000000e+00,-4.000000000000000000e+00,4.347534179687500000e-01,2.021484375000000000e-01,-8.601074218750000000e-01,1.742553710937500000e-01
-8.000000000000000000e+00,-8.000000000000000000e+00,-1.000000000000000000e+00,-4.000000000000000000e+00,-4.000000000000000000e+00,-6.000000000000000000e+00,-3.000000000000000000e+00,-3.000000000000000000e+00,4.347534179687500000e-01,2.021484375000000000e-01,-8.601074218750000000e-01,1.742553710937500000e-01
-1.200000000000000000e+01,-5.000000000000000000e+00,6.000000000000000000e+00,1.000000000000000000e+00,2.000000000000000000e+00,0.000000000000000000e+00,-8.000000000000000000e+00,-5.000000000000000000e+00,4.347534179687500000e-01,2.021484375000000000e-01,-8.601074218750000000e-01,1.742553710937500000e-01
-1.000000000000000000e+00,-4.000000000000000000e+00,-8.000000000000000000e+00,-1.000000000000000000e+00,5.000000000000000000e+00,2.000000000000000000e+00,1.000000000000000000e+00,-2.000000000000000000e+00,4.347534179687500000e-01,2.021484375000000000e-01,-8.601074218750000000e-01,1.742553710937500000e-01
7.000000000000000000e+00,1.000000000000000000e+00,-1.000000000000000000e+00,2.000000000000000000e+00,6.000000000000000000e+00,0.000000000000000000e+00,2.000000000000000000e+00,1.000000000000000000e+00,4.342651367187500000e-01,2.028198242187500000e-01,-8.600463867187500000e-01,1.749267578125000000e-01
-5.000000000000000000e+00,3.000000000000000000e+00,1.600000000000000000e+01,2.000000000000000000e+00,-3.000000000000000000e+00,-1.000000000000000000e+00,1.000000000000000000e+00,-2.000000000000000000e+00,4.342651367187500000e-01,2.028198242187500000e-01,-8.600463867187500000e-01,1.749267578125000000e-01
1.500000000000000000e+01,-5.000000000000000000e+00,-1.300000000000000000e+01,1.000000000000000000e+00,-8.000000000000000000e+00,-2.000000000000000000e+00,-2.000000000000000000e+00,-3.000000000000000000e+00,4.342651367187500000e-01,2.028198242187500000e-01,-8.600463867187500000e-01,1.749267578125000000e-01
-1.700000000000000000e+01,7.000000000000000000e+00,4.000000000000000000e+00,-2.000000000000000000e+00,1.000000000000000000e+00,-2.000000000000000000e+00,-2.000000000000000000e+00,-1.000000000000000000e+00,4.342651367187500000e-01,2.028198242187500000e-01,-8.600463867187500000e-01,1.749267578125000000e-01
9.000000000000000000e+00,-1.200000000000000000e+01,4.000000000000000000e+00,-4.000000000000000000e+00,-1.100000000000000000e+01,-6.000000000000000000e+00,-4.000000000000000000e+00,-2.000000000000000000e+00,4.338378906250000000e-01,2.037353515625000000e-01,-8.599853515625000000e-01,1.752929687500000000e-01
-1.300000000000000000e+01,1.100000000000000000e+01,-1.700000000000000000e+01,0.000000000000000000e+00,2.000000000000000000e+00,1.000000000000000000e+00,0.000000000000000000e+00,-1.000000000000000000e+00,4.338378906250000000e-01,2.037353515625000000e-01,-8.599853515625000000e-01,1.752929687500000000e-01
-1.200000000000000000e+01,-3.000000000000000000e+00,-2.000000000000000000e+00,3.000000000000000000e+00,9.000000000000000000e+00,1.000000000000000000e+00,0.000000000000000000e+00,2.000000000000000000e+00,4.338378906250000000e-01,2.037353515625000000e-01,-8.599853515625000000e-01,1.752929687500000000e-01
1.100000000000000000e+01,-3.000000000000000000e+00,0.000000000000000000e+00,3.000000000000000000e+00,4.000000000000000000e+00,3.000000000000000000e+00,-2.000000000000000000e+00,-1.000000000000000000e+00,4.338378906250000000e-01,2.037353515625000000e-01,-8.599853515625000000e-01,1.752929687500000000e-01
-1.000000000000000000e+00,-3.000000000000000000e+00,1.000000000000000000e+00,0.000000000000000000e+00,-4.000000000000000000e+00,-3.000000000000000000e+00,-1.000000000000000000e+00,1.000000000000000000e+00,4.336547851562500000e-01,2.034912109375000000e-01,-8.602294921875000000e-01,1.747436523437500000e-01
2.400000000000000000e+01,1.000000000000000000e+00,-5.000000000000000000e+00,-5.000000000000000000e+00,-6.000000000000000000e+00,-1.000000000000000000e+00,-4.000000000000000000e+00,-2.000000000000000000e+00,4.336547851562500000e-01,2.034912109375000000e-01,-8.602294921875000000e-01,1.747436523437500000e-01
-1.800000000000000000e+01,-8.000000000000000000e+00,1.100000000000000000e+01,-4.000000000000000000e+00,-2.000000000000000000e+00,2.000000000000000000e+00,1.000000000000000000e+00,-1.000000000000000000e+00,4.336547851562500000e-01,2.034912109375000000e-01,-8.602294921875000000e-01,1.747436523437500000e-01
-4.000000000000000000e+00,8.000000000000000000e+00,8.000000000000000000e+00,1.000000000000000000e+00,-1.000000000000000000e+00,-2.000000000000000000e+00,-1.000000000000000000e+00,0.000000000000000000e+00,4.336547851562500000e-01,2.034912109375000000e-01,-8.602294921875000000e-01,1.747436523437500000e-01
0.000000000000000000e+00,-4.000000000000000000e+00,-7.000000000000000000e+00,-1.000000000000000000e+00,-3.000000000000000000e+00,-2.000000000000000000e+00,0.000000000000000000e+00,0.000000000000000000e+00,4.337768554687500000e-01,2.024536132812500000e-01,-8.604736328125000000e-01,1.743774414062500000e-01
1.100000000000000000e+01,5.000000000000000000e+00,2.000000000000000000e+00,0.000000000000000000e+00,0.000000000000000000e+00,3.000000000000000000e+00,0.000000000000000000e+00,0.000000000000000000e+00,4.337768554687500000e-01,2.024536132812500000e-01,-8.604736328125000000e-01,1.743774414062500000e-01
1.000000000000000000e+00,0.000000000000000000e+00,0.000000000000000000e+00,-1.000000000000000000e+00,3.000000000000000000e+00,1.000000000000000000e+00,3.000000000000000000e+00,3.000000000000000000e+00,4.337768554687500000e-01,2.024536132812500000e-01,-8.604736328125000000e-01,1.743774414062500000e-01
0.000000000000000000e+00,-1.100000000000000000e+01,-2.000000000000000000e+00,-1.000000000000000000e+00,-2.000000000000000000e+00,1.000000000000000000e+00,-2.000000000000000000e+00,-3.000000000000000000e+00,4.337768554687500000e-01,2.024536132812500000e-01,-8.604736328125000000e-01,1.743774414062500000e-01
3.000000000000000000e+00,1.000000000000000000e+01,3.000000000000000000e+00,-1.000000000000000000e+00,-4.000000000000000000e+00,-2.000000000000000000e+00,-3.000000000000000000e+00,0.000000000000000000e+00,4.334716796875000000e-01,2.021484375000000000e-01,-8.605346679687500000e-01,1.751708984375000000e-01
-1.000000000000000000e+00,-2.000000000000000000e+00,-1.300000000000000000e+01,1.000000000000000000e+00,1.000000000000000000e+00,-1.000000000000000000e+00,-3.000000000000000000e+00,-1.000000000000000000e+00,4.334716796875000000e-01,2.021484375000000000e-01,-8.605346679687500000e-01,1.751708984375000000e-01
2.000000000000000000e+00,-8.000000000000000000e+00,1.000000000000000000e+00,3.000000000000000000e+00,-2.000000000000000000e+00,-1.000000000000000000e+00,-3.000000000000000000e+00,-2.000000000000000000e+00,4.334716796875000000e-01,2.021484375000000000e-01,-8.605346679687500000e-01,1.751708984375000000e-01
-1.000000000000000000e+00,0.000000000000000000e+00,-3.000000000000000000e+00,-8.000000000000000000e+00,2.000000000000000000e+00,0.000000000000000000e+00,-3.000000000000000000e+00,-4.000000000000000000e+00,4.334716796875000000e-01,2.021484375000000000e-01,-8.605346679687500000e-01,1.751708984375000000e-01
-2.000000000000000000e+00,-8.000000000000000000e+00,3.000000000000000000e+00,6.000000000000000000e+00,1.000000000000000000e+01,-1.000000000000000000e+00,-2.000000000000000000e+00,0.000000000000000000e+00,4.326171875000000000e-01,2.031250000000000000e-01,-8.604736328125000000e-01,1.765136718750000000e-01
-5.000000000000000000e+00,6.000000000000000000e+00,1.500000000000000000e+01,7.000000000000000000e+00,1.000000000000000000e+00,7.000000000000000000e+00,6.000000000000000000e+00,0.000000000000000000e+00,4.326171875000000000e-01,2.031250000000000000e-01,-8.604736328125000000e-01,1.765136718750000000e-01
7.000000000000000000e+00,1.000000000000000000e+00,-9.000000000000000000e+00,-8.000000000000000000e+00,-9.000000000000000000e+00,-7.000000000000000000e+00,-2.000000000000000000e+00,0.000000000000000000e+00,4.326171875000000000e-01,2.031250000000000000e-01,-8.604736328125000000e-01,1.765136718750000000e-01
3.000000000000000000e+00,-3.000000000000000000e+00,-2.000000000000000000e+00,1.000000000000000000e+00,-5.000000000000000000e+00,-3.000000000000000000e+00,-2.000000000000000000e+00,0.000000000000000000e+00,4.326171875000000000e-01,2.031250000000000000e-01,-8.604736328125000000e-01,1.765136718750000000e-01
-5.000000000000000000e+00,-2.000000000000000000e+00,6.000000000000000000e+00,1.000000000000000000e+00,8.000000000000000000e+00,1.000000000000000000e+00,-2.000000000000000000e+00,0.000000000000000000e+00,4.318847656250000000e-01,2.041625976562500000e-01,-8.604736328125000000e-01,1.770629882812500000e-01
3.000000000000000000e+00,1.300000000000000000e+01,-8.000000000000000000e+00,-5.000000000000000000e+00,-3.000000000000000000e+00,-5.000000000000000000e+00,1.000000000000000000e+00,2.000000000000000000e+00,4.318847656250000000e-01,2.041625976562500000e-01,-8.604736328125000000e-01,1.770629882812500000e-01
-1.000000000000000000e+00,-6.000000000000000000e+00,-3.000000000000000000e+00,0.000000000000000000e+00,-4.000000000000000000e+00,-5.000000000000000000e+00,0.000000000000000000e+00,2.000000000000000000e+00,4.318847656250000000e-01,2.041625976562500000e-01,-8.604736328125000000e-01,1.770629882812500000e-01
-3.000000000000000000e+00,-1.000000000000000000e+01,-1.100000000000000000e+01,-4.000000000000000000e+00,0.000000000000000000e+00,2.000000000000000000e+00,2.000000000000000000e+00,-2.000000000000000000e+00,4.318847656250000000e-01,2.041625976562500000e-01,-8.604736328125000000e-01,1.770629882812500000e-01
1.000000000000000000e+00,-2.000000000000000000e+00,0.000000000000000000e+00,-4.000000000000000000e+00,1.000000000000000000e+00,1.000000000000000000e+00,1.000000000000000000e+00,-2.000000000000000000e+00,4.317626953125000000e-01,2.039184570312500000e-01,-8.607177734375000000e-01,1.764526367187500000e-01
-7.000000000000000000e+00,-3.000000000000000000e+00,4.000000000000000000e+00,-2.000000000000000000e+00,0.000000000000000000e+00,2.000000000000000000e+00,-1.000000000000000000e+00,0.000000000000000000e+00,4.317626953125000000e-01,2.039184570312500000e-01,-8.607177734375000000e-01,1.764526367187500000e-01
4.000000000000000000e+00,1.100000000000000000e+01,-9.000000000000000000e+00,2.000000000000000000e+00,-1.000000000000000000e+00,-3.000000000000000000e+00,2.000000000000000000e+00,-2.000000000000000000e+00,4.317626953125000000e-01,2.039184570312500000e-01,-8.607177734375000000e-01,1.764526367187500000e-01
-4.000000000000000000e+00,-3.000000000000000000e+00,3.000000000000000000e+00,0.000000000000000000e+00,-3.000000000000000000e+00,-3.000000000000000000e+00,-3.000000000000000000e+00,-2.000000000000000000e+00,4.317626953125000000e-01,2.039184570312500000e-01,-8.607177734375000000e-01,1.764526367187500000e-01
4.000000000000000000e+00,8.000000000000000000e+00,4.000000000000000000e+00,4.000000000000000000e+00,4.000000000000000000e+00,9.000000000000000000e+00,2.000000000000000000e+00,2.000000000000000000e+00,4.322509765625000000e-01,2.028198242187500000e-01,-8.608398437500000000e-01,1.761474609375000000e-01
-1.000000000000000000e+00,-9.000000000000000000e+00,-2.000000000000000000e+00,-1.000000000000000000e+00,3.000000000000000000e+00,-2.000000000000000000e+00,-5.000000000000000000e+00,-4.000000000000000000e+00,4.322509765625000000e-01,2.028198242187500000e-01,-8.608398437500000000e-01,1.761474609375000000e-01
-1.200000000000000000e+01,-6.000000000000000000e+00,2.000000000000000000e+00,-3.000000000000000000e+00,-6.000000000000000000e+00,-3.000000000000000000e+00,0.000000000000000000e+00,-2.000000000000000000e+00,4.322509765625000000e-01,2.028198242187500000e-01,-8.608398437500000000e-01,1.761474609375000000e-01
-2.000000000000000000e+00,-9.000000000000000000e+00,-1.300000000000000000e+01,0.000000000000000000e+00,-2.000000000000000000e+00,-1.000000000000000000e+00,3.000000000000000000e+00,1.000000000000000000e+00,4.322509765625000000e-01,2.028198242187500000e-01,-8.608398437500000000e-01,1.761474609375000000e-01
-3.000000000000000000e+00,5.000000000000000000e+00,1.000000000000000000e+00,-2.000000000000000000e+00,-9.000000000000000000e+00,-6.000000000000000000e+00,-3.000000000000000000e+00,-3.000000000000000000e+00,4.323120117187500000e-01,2.026367187500000000e-01,-8.606567382812500000e-01,1.769409179687500000e-01
-6.000000000000000000e+00,-7.000000000000000000e+00,-8.000000000000000000e+00,3.000000000000000000e+00,1.000000000000000000e+00,0.000000000000000000e+00,-1.000000000000000000e+00,-2.000000000000000000e+00,4.323120117187500000e-01,2.026367187500000000e-01,-8.606567382812500000e-01,1.769409179687500000e-01
4.000000000000000000e+00,8.000000000000000000e+00,3.000000000000000000e+00,-2.000000000000000000e+00,1.000000000000000000e+00,3.000000000000000000e+00,4.000000000000000000e+00,0.000000000000000000e+00,4.323120117187500000e-01,2.026367187500000000e-01,-8.606567382812500000e-01,1.769409179687500000e-01
-1.200000000000000000e+01,0.000000000000000000e+00,3.000000000000000000e+00,3.000000000000000000e+00,1.000000000000000000e+00,3.000000000000000000e+00,3.000000000000000000e+00,1.000000000000000000e+00,4.323120117187500000e-01,2.026367187500000000e-01,-8.606567382812500000e-01,1.769409179687500000e-01
1.400000000000000000e+01,1.000000000000000000e+01,0.000000000000000000e+00,-3.000000000000000000e+00,2.000000000000000000e+00,-5.000000000000000000e+00,-3.000000000000000000e+00,1.000000000000000000e+00,4.320678710937500000e-01,2.035522460937500000e-01,-8.603515625000000000e-01,1.781005859375000000e-01
-1.700000000000000000e+01,-2.100000000000000000e+01,-3.000000000000000000e+00,-4.000000000000000000e+00,-5.000000000000000000e+00,-4.000000000000000000e+00,-1.000000000000000000e+00,-2.000000000000000000e+00,4.320678710937500000e-01,2.035522460937500000e-01,-8.603515625000000000e-01,1.781005859375000000e-01
-1.100000000000000000e+01,-1.300000000000000000e+01,-5.000000000000000000e+00,-3.000000000000000000e+00,-5.000000000000000000e+00,-6.000000000000000000e+00,-5.000000000000000000e+00,-4.000000000000000000e+00,4.320678710937500000e-01,2.035522460937500000e-01,-8.603515625000000000e-01,1.781005859375000000e-01
5.000000000000000000e+00,1.000000000000000000e+00,-7.000000000000000000e+00,-3.000000000000000000e+00,2.000000000000000000e+00,0.000000000000000000e+00,1.000000000000000000e+00,1.000000000000000000e+00,4.320678710937500000e-01,2.035522460937500000e-01,-8.603515625000000000e-01,1.781005859375000000e-01
-1.000000000000000000e+00,-3.000000000000000000e+00,-1.200000000000000000e+01,-5.000000000000000000e+00,-1.000000000000000000e+00,3.000000000000000000e+00,-1.000000000000000000e+00,-2.000000000000000000e+00,4.321289062500000000e-01,2.040405273437500000e-01,-8.601074218750000000e-01,1.784057617187500000e-01
3.000000000000000000e+00,4.000000000000000000e+00,6.000000000000000000e+00,0.000000000000000000e+00,-1.000000000000000000e+00,-4.000000000000000000e+00,0.000000000000000000e+00,-3.000000000000000000e+00,4.321289062500000000e-01,2.040405273437500000e-01,-8.601074218750000000e-01,1.784057617187500000e-01
