-1.700000000000000000e+01,-1.400000000000000000e+01,-5.600000000000000000e+01,-2.500000000000000000e+01,2.000000000000000000e+00,4.000000000000000000e+00,8.000000000000000000e+00,-1.000000000000000000e+00,3.966674804687500000e-01,2.980346679687500000e-01,-8.379516601562500000e-01,2.273559570312500000e-01
2.000000000000000000e+00,-4.000000000000000000e+00,3.000000000000000000e+00,1.000000000000000000e+00,1.800000000000000000e+01,0.000000000000000000e+00,-1.200000000000000000e+01,-2.000000000000000000e+00,3.966674804687500000e-01,2.980346679687500000e-01,-8.379516601562500000e-01,2.273559570312500000e-01
-8.000000000000000000e+00,-6.000000000000000000e+00,-1.000000000000000000e+01,-3.000000000000000000e+00,-3.000000000000000000e+00,-1.000000000000000000e+00,-1.000000000000000000e+00,1.000000000000000000e+00,3.966674804687500000e-01,2.994995117187500000e-01,-8.374633789062500000e-01,2.271728515625000000e-01
2.000000000000000000e+00,3.000000000000000000e+00,-1.400000000000000000e+01,4.000000000000000000e+00,1.000000000000000000e+00,0.000000000000000000e+00,5.000000000000000000e+00,-1.000000000000000000e+00,3.966674804687500000e-01,2.994995117187500000e-01,-8.374633789062500000e-01,2.271728515625000000e-01
1.100000000000000000e+01,5.000000000000000000e+00,2.900000000000000000e+01,4.000000000000000000e+00,1.000000000000000000e+00,1.000000000000000000e+00,1.300000000000000000e+01,3.000000000000000000e+00,3.966674804687500000e-01,2.994995117187500000e-01,-8.374633789062500000e-01,2.271728515625000000e-01
2.000000000000000000e+00,1.000000000000000000e+00,-1.500000000000000000e+01,1.100000000000000000e+01,-1.400000000000000000e+01,-5.000000000000000000e+00,-3.000000000000000000e+00,-1.000000000000000000e+00,3.966674804687500000e-01,2.994995117187500000e-01,-8.374633789062500000e-01,2.271728515625000000e-01
-2.400000000000000000e+01,-1.300000000000000000e+01,1.100000000000000000e+01,-3.100000000000000000e+01,-5.000000000000000000e+00,-3.000000000000000000e+00,-1.800000000000000000e+01,-3.000000000000000000e+00,3.977661132812500000e-01,2.999877929687500000e-01,-8.366699218750000000e-01,2.274780273437500000e-01
-2.000000000000000000e+00,5.000000000000000000e+00,9.000000000000000000e+00,2.000000000000000000e+00,3.000000000000000000e+00,3.000000000000000000e+00,2.600000000000000000e+01,0.000000000000000000e+00,3.977661132812500000e-01,2.999877929687500000e-01,-8.366699218750000000e-01,2.274780273437500000e-01
2.000000000000000000e+00,0.000000000000000000e+00,-9.000000000000000000e+00,1.000000000000000000e+01,4.000000000000000000e+00,0.000000000000000000e+00,-1.000000000000000000e+00,0.000000000000000000e+00,3.977661132812500000e-01,2.999877929687500000e-01,-8.366699218750000000e-01,2.274780273437500000e-01
-1.000000000000000000e+01,2.000000000000000000e+00,1.100000000000000000e+01,-1.100000000000000000e+01,2.000000000000000000e+00,0.000000000000000000e+00,7.000000000000000000e+00,0.000000000000000000e+00,3.977661132812500000e-01,2.999877929687500000e-01,-8.366699218750000000e-01,2.274780273437500000e-01
8.000000000000000000e+00,3.000000000000000000e+00,5.000000000000000000e+00,0.000000000000000000e+00,-1.000000000000000000e+00,-4.000000000000000000e+00,1.000000000000000000e+00,-1.000000000000000000e+00,3.991088867187500000e-01,3.005371093750000000e-01,-8.357543945312500000e-01,2.277832031250000000e-01
-5.000000000000000000e+00,-3.000000000000000000e+00,-5.000000000000000000e+00,-6.000000000000000000e+00,-7.000000000000000000e+00,-1.400000000000000000e+01,-5.800000000000000000e+01,-7.000000000000000000e+00,3.991088867187500000e-01,3.005371093750000000e-01,-8.357543945312500000e-01,2.277832031250000000e-01
5.000000000000000000e+00,1.200000000000000000e+01,1.000000000000000000e+00,1.400000000000000000e+01,-3.000000000000000000e+00,7.000000000000000000e+00,2.600000000000000000e+01,8.000000000000000000e+00,3.991088867187500000e-01,3.005371093750000000e-01,-8.357543945312500000e-01,2.277832031250000000e-01
-2.000000000000000000e+00,-2.200000000000000000e+01,-2.700000000000000000e+01,-1.900000000000000000e+01,-8.000000000000000000e+00,4.000000000000000000e+00,2.100000000000000000e+01,-3.000000000000000000e+00,3.991088867187500000e-01,3.005371093750000000e-01,-8.357543945312500000e-01,2.277832031250000000e-01
-2.000000000000000000e+00,-2.000000000000000000e+00,-2.000000000000000000e+00,1.100000000000000000e+01,1.000000000000000000e+01,2.000000000000000000e+00,2.000000000000000000e+00,-3.000000000000000000e+00,4.005126953125000000e-01,3.007812500000000000e-01,-8.351440429687500000e-01,2.271728515625000000e-01
-1.000000000000000000e+00,-1.000000000000000000e+00,-2.800000000000000000e+01,-6.000000000000000000e+00,-8.000000000000000000e+00,-4.000000000000000000e+00,-4.000000000000000000e+00,0.000000000000000000e+00,4.005126953125000000e-01,3.007812500000000000e-01,-8.351440429687500000e-01,2.271728515625000000e-01
2.000000000000000000e+00,4.000000000000000000e+00,2.200000000000000000e+01,3.000000000000000000e+00,5.000000000000000000e+00,-6.000000000000000000e+00,-1.400000000000000000e+01,-4.000000000000000000e+00,4.005126953125000000e-01,3.007812500000000000e-01,-8.351440429687500000e-01,2.271728515625000000e-01
6.000000000000000000e+00,1.700000000000000000e+01,1.800000000000000000e+01,9.000000000000000000e+00,-6.000000000000000000e+00,-7.000000000000000000e+00,-1.700000000000000000e+01,-1.000000000000000000e+00,4.005126953125000000e-01,3.007812500000000000e-01,-8.351440429687500000e-01,2.271728515625000000e-01
5.000000000000000000e+00,-8.000000000000000000e+00,-1.100000000000000000e+01,-1.000000000000000000e+00,-8.000000000000000000e+00,8.000000000000000000e+00,3.700000000000000000e+01,0.000000000000000000e+00,4.020996093750000000e-01,3.008422851562500000e-01,-8.345947265625000000e-01,2.264404296875000000e-01
-1.000000000000000000e+01,0.000000000000000000e+00,6.000000000000000000e+00,-6.000000000000000000e+00,-8.000000000000000000e+00,-6.000000000000000000e+00,2.000000000000000000e+00,1.000000000000000000e+00,4.020996093750000000e-01,3.008422851562500000e-01,-8.345947265625000000e-01,2.264404296875000000e-01
4.000000000000000000e+00,2.000000000000000000e+00,1.100000000000000000e+01,-1.800000000000000000e+01,2.400000000000000000e+01,7.000000000000000000e+00,5.000000000000000000e+00,0.000000000000000000e+00,4.020996093750000000e-01,3.008422851562500000e-01,-8.345947265625000000e-01,2.264404296875000000e-01
-8.000000000000000000e+00,-1.500000000000000000e+01,-1.700000000000000000e+01,2.000000000000000000e+01,7.000000000000000000e+00,-1.000000000000000000e+00,-1.300000000000000000e+01,-2.000000000000000000e+00,4.020996093750000000e-01,3.008422851562500000e-01,-8.345947265625000000e-01,2.264404296875000000e-01
-4.000000000000000000e+00,3.000000000000000000e+00,3.000000000000000000e+00,8.000000000000000000e+00,1.000000000000000000e+00,-6.000000000000000000e+00,-6.000000000000000000e+00,-3.000000000000000000e+00,4.034423828125000000e-01,3.008422851562500000e-01,-8.338623046875000000e-01,2.266235351562500000e-01
1.400000000000000000e+01,4.000000000000000000e+00,4.000000000000000000e+00,1.300000000000000000e+01,-1.100000000000000000e+01,1.000000000000000000e+00,-4.000000000000000000e+00,-1.000000000000000000e+00,4.034423828125000000e-01,3.008422851562500000e-01,-8.338623046875000000e-01,2.266235351562500000e-01
-2.000000000000000000e+01,-3.000000000000000000e+00,-2.400000000000000000e+01,-1.800000000000000000e+01,-7.000000000000000000e+00,-3.000000000000000000e+00,1.600000000000000000e+01,-4.000000000000000000e+00,4.034423828125000000e-01,3.008422851562500000e-01,-8.338623046875000000e-01,2.266235351562500000e-01
4.000000000000000000e+00,1.400000000000000000e+01,3.400000000000000000e+01,-1.200000000000000000e+01,-1.000000000000000000e+00,-2.000000000000000000e+00,-1.100000000000000000e+01,-1.000000000000000000e+00,4.034423828125000000e-01,3.008422851562500000e-01,-8.338623046875000000e-01,2.266235351562500000e-01
-2.000000000000000000e+00,-1.400000000000000000e+01,-3.000000000000000000e+01,-1.600000000000000000e+01,-7.000000000000000000e+00,-6.000000000000000000e+00,-2.300000000000000000e+01,0.000000000000000000e+00,4.035644531250000000e-01,3.017578125000000000e-01,-8.333129882812500000e-01,2.271728515625000000e-01
3.000000000000000000e+00,-4.000000000000000000e+00,7.000000000000000000e+00,1.000000000000000000e+00,1.600000000000000000e+01,6.000000000000000000e+00,1.600000000000000000e+01,2.000000000000000000e+00,4.035644531250000000e-01,3.017578125000000000e-01,-8.333129882812500000e-01,2.271728515625000000e-01
8.000000000000000000e+00,-4.000000000000000000e+00,5.000000000000000000e+00,8.000000000000000000e+00,-9.000000000000000000e+00,-6.000000000000000000e+00,-1.800000000000000000e+01,-3.000000000000000000e+00,4.035644531250000000e-01,3.017578125000000000e-01,-8.333129882812500000e-01,2.271728515625000000e-01
-1.200000000000000000e+01,2.000000000000000000e+00,-2.500000000000000000e+01,3.000000000000000000e+00,-5.000000000000000000e+00,-5.000000000000000000e+00,-1.000000000000000000e+01,-3.000000000000000000e+00,4.035644531250000000e-01,3.017578125000000000e-01,-8.333129882812500000e-01,2.271728515625000000e-01
4.000000000000000000e+00,1.400000000000000000e+01,3.300000000000000000e+01,9.000000000000000000e+00,-1.200000000000000000e+01,-7.000000000000000000e+00,-2.000000000000000000e+01,-6.000000000000000000e+00,4.033813476562500000e-01,3.024291992187500000e-01,-8.331298828125000000e-01,2.274169921875000000e-01
-8.000000000000000000e+00,-1.000000000000000000e+00,-4.200000000000000000e+01,-2.000000000000000000e+01,4.000000000000000000e+00,0.000000000000000000e+00,1.400000000000000000e+01,9.000000000000000000e+00,4.033813476562500000e-01,3.024291992187500000e-01,-8.331298828125000000e-01,2.274169921875000000e-01
-2.000000000000000000e+00,-1.300000000000000000e+01,1.000000000000000000e+00,9.000000000000000000e+00,7.000000000000000000e+00,4.000000000000000000e+00,-1.400000000000000000e+01,-7.000000000000000000e+00,4.033813476562500000e-01,3.024291992187500000e-01,-8.331298828125000000e-01,2.274169921875000000e-01
-4.000000000000000000e+00,-9.000000000000000000e+00,5.000000000000000000e+00,1.000000000000000000e+00,1.000000000000000000e+00,-2.000000000000000000e+00,3.000000000000000000e+00,2.000000000000000000e+00,4.033813476562500000e-01,3.024291992187500000e-01,-8.331298828125000000e-01,2.274169921875000000e-01
0.000000000000000000e+00,0.000000000000000000e+00,-8.000000000000000000e+00,4.000000000000000000e+00,3.000000000000000000e+00,5.000000000000000000e+00,1.200000000000000000e+01,0.000000000000000000e+00,4.028320312500000000e-01,3.024902343750000000e-01,-8.334350585937500000e-01,2.272338867187500000e-01
4.000000000000000000e+00,4.000000000000000000e+00,1.800000000000000000e+01,8.000000000000000000e+00,-1.000000000000000000e+00,-4.000000000000000000e+00,-1.100000000000000000e+01,-1.000000000000000000e+00,4.028320312500000000e-01,3.024902343750000000e-01,-8.334350585937500000e-01,2.272338867187500000e-01
3.000000000000000000e+00,1.400000000000000000e+01,-4.000000000000000000e+00,-4.000000000000000000e+00,0.000000000000000000e+00,3.000000000000000000e+00,-3.000000000000000000e+00,1.000000000000000000e+00,4.028320312500000000e-01,3.024902343750000000e-01,-8.334350585937500000e-01,2.272338867187500000e-01
-4.000000000000000000e+00,-1.800000000000000000e+01,-3.700000000000000000e+01,-2.100000000000000000e+01,-1.100000000000000000e+01,-4.000000000000000000e+00,5.000000000000000000e+00,-2.000000000000000000e+00,4.028320312500000000e-01,3.024902343750000000e-01,-8.334350585937500000e-01,2.272338867187500000e-01
-3.000000000000000000e+00,1.000000000000000000e+00,1.300000000000000000e+01,2.000000000000000000e+01,-9.000000000000000000e+00,-1.000000000000000000e+00,7.000000000000000000e+00,0.000000000000000000e+00,4.022827148437500000e-01,3.028564453125000000e-01,-8.336181640625000000e-01,2.269897460937500000e-01
-4.000000000000000000e+00,-7.000000000000000000e+00,6.000000000000000000e+00,-2.400000000000000000e+01,7.000000000000000000e+00,-7.000000000000000000e+00,-6.000000000000000000e+00,-5.000000000000000000e+00,4.022827148437500000e-01,3.028564453125000000e-01,-8.336181640625000000e-01,2.269897460937500000e-01
4.000000000000000000e+00,7.000000000000000000e+00,9.000000000000000000e+00,1.300000000000000000e+01,1.000000000000000000e+01,5.000000000000000000e+00,1.000000000000000000e+00,2.000000000000000000e+00,4.022827148437500000e-01,3.028564453125000000e-01,-8.336181640625000000e-01,2.269897460937500000e-01
0.000000000000000000e+00,3.000000000000000000e+00,3.200000000000000000e+01,-1.000000000000000000e+00,3.000000000000000000e+00,-1.000000000000000000e+00,-1.000000000000000000e+00,-3.000000000000000000e+00,4.022827148437500000e-01,3.028564453125000000e-01,-8.336181640625000000e-01,2.269897460937500000e-01
-1.000000000000000000e+00,-2.000000000000000000e+00,-3.000000000000000000e+00,-3.000000000000000000e+00,-3.000000000000000000e+00,2.000000000000000000e+00,2.000000000000000000e+00,3.000000000000000000e+00,4.015502929687500000e-01,3.038940429687500000e-01,-8.336181640625000000e-01,2.269287109375000000e-01
-1.000000000000000000e+00,5.000000000000000000e+00,2.000000000000000000e+00,1.100000000000000000e+01,-4.000000000000000000e+00,-1.000000000000000000e+00,5.000000000000000000e+00,-2.000000000000000000e+00,4.015502929687500000e-01,3.038940429687500000e-01,-8.336181640625000000e-01,2.269287109375000000e-01
-6.000000000000000000e+00,-1.500000000000000000e+01,-2.900000000000000000e+01,-7.000000000000000000e+00,-1.000000000000000000e+01,-5.000000000000000000e+00,-9.000000000000000000e+00,-4.000000000000000000e+00,4.015502929687500000e-01,3.038940429687500000e-01,-8.336181640625000000e-01,2.269287109375000000e-01
4.000000000000000000e+00,1.000000000000000000e+00,-7.000000000000000000e+00,-2.000000000000000000e+00,-6.000000000000000000e+00,1.000000000000000000e+00,2.400000000000000000e+01,2.000000000000000000e+00,4.015502929687500000e-01,3.038940429687500000e-01,-8.336181640625000000e-01,2.269287109375000000e-01
2.000000000000000000e+00,8.000000000000000000e+00,1.000000000000000000e+01,-3.000000000000000000e+00,-1.600000000000000000e+01,-4.000000000000000000e+00,1.300000000000000000e+01,-5.000000000000000000e+00,4.005126953125000000e-01,3.051147460937500000e-01,-8.337402343750000000e-01,2.267456054687500000e-01
-1.000000000000000000e+00,-1.100000000000000000e+01,-1.700000000000000000e+01,-1.500000000000000000e+01,1.800000000000000000e+01,7.000000000000000000e+00,6.000000000000000000e+00,-3.000000000000000000e+00,4.005126953125000000e-01,3.051147460937500000e-01,-8.337402343750000000e-01,2.267456054687500000e-01
-1.400000000000000000e+01,-9.000000000000000000e+00,4.000000000000000000e+00,1.100000000000000000e+01,1.100000000000000000e+01,-1.000000000000000000e+00,6.000000000000000000e+00,-2.000000000000000000e+00,4.005126953125000000e-01,3.051147460937500000e-01,-8.337402343750000000e-01,2.267456054687500000e-01
5.000000000000000000e+00,5.000000000000000000e+00,5.000000000000000000e+00,9.000000000000000000e+00,0.000000000000000000e+00,4.000000000000000000e+00,1.200000000000000000e+01,1.000000000000000000e+00,4.005126953125000000e-01,3.051147460937500000e-01,-8.337402343750000000e-01,2.267456054687500000e-01
0.000000000000000000e+00,2.000000000000000000e+00,-4.000000000000000000e+00,-3.000000000000000000e+00,3.000000000000000000e+00,-2.000000000000000000e+00,-1.000000000000000000e+01,2.000000000000000000e+00,4.000244140625000000e-01,3.052978515625000000e-01,-8.341064453125000000e-01,2.258911132812500000e-01
6.000000000000000000e+00,7.000000000000000000e+00,1.400000000000000000e+01,1.000000000000000000e+00,-1.000000000000000000e+01,2.000000000000000000e+00,3.000000000000000000e+00,0.000000000000000000e+00,4.000244140625000000e-01,3.052978515625000000e-01,-8.341064453125000000e-01,2.258911132812500000e-01
1.100000000000000000e+01,1.000000000000000000e+01,-7.000000000000000000e+00,5.000000000000000000e+00,-5.000000000000000000e+00,-4.000000000000000000e+00,-1.100000000000000000e+01,-7.000000000000000000e+00,4.000244140625000000e-01,3.052978515625000000e-01,-8.341064453125000000e-01,2.258911132812500000e-01
-1.000000000000000000e+00,-1.600000000000000000e+01,-6.000000000000000000e+00,-2.000000000000000000e+01,-1.300000000000000000e+01,-9.000000000000000000e+00,7.000000000000000000e+00,2.000000000000000000e+00,4.000244140625000000e-01,3.052978515625000000e-01,-8.341064453125000000e-01,2.258911132812500000e-01
-1.200000000000000000e+01,6.000000000000000000e+00,8.000000000000000000e+00,-9.000000000000000000e+00,6.000000000000000000e+00,9.000000000000000000e+00,5.000000000000000000e+00,2.000000000000000000e+00,3.993530273437500000e-01,3.059082031250000000e-01,-8.345336914062500000e-01,2.247924804687500000e-01
-5.000000000000000000e+00,-1.300000000000000000e+01,-3.000000000000000000e+00,8.000000000000000000e+00,-1.300000000000000000e+01,-4.000000000000000000e+00,-1.400000000000000000e+01,-5.000000000000000000e+00,3.993530273437500000e-01,3.059082031250000000e-01,-8.345336914062500000e-01,2.247924804687500000e-01
4.000000000000000000e+00,2.000000000000000000e+00,1.500000000000000000e+01,3.200000000000000000e+01,8.000000000000000000e+00,1.000000000000000000e+00,2.000000000000000000e+00,-1.000000000000000000e+00,3.993530273437500000e-01,3.059082031250000000e-01,-8.345336914062500000e-01,2.247924804687500000e-01
-2.000000000000000000e+00,-2.000000000000000000e+00,-4.000000000000000000e+01,-2.700000000000000000e+01,1.400000000000000000e+01,1.000000000000000000e+00,-1.100000000000000000e+01,-3.000000000000000000e+00,3.993530273437500000e-01,3.059082031250000000e-01,-8.345336914062500000e-01,2.247924804687500000e-01
3.000000000000000000e+00,-7.000000000000000000e+00,-4.000000000000000000e+00,0.000000000000000000e+00,1.100000000000000000e+01,0.000000000000000000e+00,-1.000000000000000000e+00,0.000000000000000000e+00,3.988647460937500000e-01,3.067626953125000000e-01,-8.347167968750000000e-01,2.237548828125000000e-01
-4.000000000000000000e+00,3.000000000000000000e+00,1.000000000000000000e+01,1.000000000000000000e+00,2.000000000000000000e+00,2.000000000000000000e+00,1.000000000000000000e+01,1.000000000000000000e+00,3.988647460937500000e-01,3.067626953125000000e-01,-8.347167968750000000e-01,2.237548828125000000e-01
-2.000000000000000000e+00,4.000000000000000000e+00,1.200000000000000000e+01,3.000000000000000000e+00,-1.100000000000000000e+01,-6.000000000000000000e+00,-5.000000000000000000e+00,1.000000000000000000e+00,3.988647460937500000e-01,3.067626953125000000e-01,-8.347167968750000000e-01,2.237548828125000000e-01
1.000000000000000000e+00,5.000000000000000000e+00,7.000000000000000000e+00,7.000000000000000000e+00,-6.000000000000000000e+00,-1.000000000000000000e+00,-1.200000000000000000e+01,-3.000000000000000000e+00,3.988647460937500000e-01,3.067626953125000000e-01,-8.347167968750000000e-01,2.237548828125000000e-01
0.000000000000000000e+00,-8.000000000000000000e+00,-1.400000000000000000e+01,-7.000000000000000000e+00,1.000000000000000000e+00,-3.000000000000000000e+00,-1.000000000000000000e+00,-2.000000000000000000e+00,3.986206054687500000e-01,3.071289062500000000e-01,-8.349609375000000000e-01,2.227172851562500000e-01
-3.000000000000000000e+00,-3.000000000000000000e+00,-3.000000000000000000e+00,-1.200000000000000000e+01,-1.500000000000000000e+01,-1.700000000000000000e+01,-3.800000000000000000e+01,-2.000000000000000000e+00,3.986206054687500000e-01,3.071289062500000000e-01,-8.349609375000000000e-01,2.227172851562500000e-01
1.000000000000000000e+01,1.200000000000000000e+01,9.000000000000000000e+00,-4.000000000000000000e+00,-1.000000000000000000e+00,8.000000000000000000e+00,2.200000000000000000e+01,6.000000000000000000e+00,3.986206054687500000e-01,3.071289062500000000e-01,-8.349609375000000000e-01,2.227172851562500000e-01
-8.000000000000000000e+00,-1.000000000000000000e+01,9.000000000000000000e+00,1.400000000000000000e+01,1.800000000000000000e+01,7.000000000000000000e+00,-2.400000000000000000e+01,-1.000000000000000000e+00,3.986206054687500000e-01,3.071289062500000000e-01,-8.349609375000000000e-01,2.227172851562500000e-01
-1.700000000000000000e+01,-2.300000000000000000e+01,-1.100000000000000000e+01,-7.000000000000000000e+00,1.000000000000000000e+00,-2.000000000000000000e+00,8.000000000000000000e+00,-3.000000000000000000e+00,3.980712890625000000e-01,3.080444335937500000e-01,-8.350830078125000000e-01,2.219238281250000000e-01
2.000000000000000000e+00,1.000000000000000000e+00,-2.000000000000000000e+00,9.000000000000000000e+00,-1.000000000000000000e+00,-2.000000000000000000e+00,0.000000000000000000e+00,-3.000000000000000000e+00,3.980712890625000000e-01,3.080444335937500000e-01,-8.350830078125000000e-01,2.219238281250000000e-01
-2.000000000000000000e+00,-2.000000000000000000e+00,6.000000000000000000e+00,-1.600000000000000000e+01,-1.400000000000000000e+01,-4.000000000000000000e+00,2.000000000000000000e+00,0.000000000000000000e+00,3.980712890625000000e-01,3.080444335937500000e-01,-8.350830078125000000e-01,2.219238281250000000e-01
0.000000000000000000e+00,1.200000000000000000e+01,1.300000000000000000e+01,3.000000000000000000e+00,-7.000000000000000000e+00,-5.000000000000000000e+00,1.000000000000000000e+00,1.000000000000000000e+00,3.980712890625000000e-01,3.080444335937500000e-01,-8.350830078125000000e-01,2.219238281250000000e-01
5.000000000000000000e+00,6.000000000000000000e+00,-3.000000000000000000e+00,8.000000000000000000e+00,4.000000000000000000e+00,-2.000000000000000000e+00,-4.000000000000000000e+00,0.000000000000000000e+00,3.978881835937500000e-01,3.092651367187500000e-01,-8.350830078125000000e-01,2.206420898437500000e-01
-4.000000000000000000e+00,-3.000000000000000000e+00,-1.000000000000000000e+00,-4.000000000000000000e+00,-3.000000000000000000e+00,1.000000000000000000e+00,-4.000000000000000000e+00,-1.000000000000000000e+00,3.978881835937500000e-01,3.092651367187500000e-01,-8.350830078125000000e-01,2.206420898437500000e-01
-3.000000000000000000e+00,-2.000000000000000000e+00,-8.000000000000000000e+00,-1.000000000000000000e+01,-7.000000000000000000e+00,-8.000000000000000000e+00,-4.000000000000000000e+00,-3.000000000000000000e+00,3.978881835937500000e-01,3.092651367187500000e-01,-8.350830078125000000e-01,2.206420898437500000e-01
0.000000000000000000e+00,3.000000000000000000e+00,0.000000000000000000e+00,9.000000000000000000e+00,-6.000000000000000000e+00,1.000000000000000000e+00,0.000000000000000000e+00,-1.000000000000000000e+00,3.978881835937500000e-01,3.092651367187500000e-01,-8.350830078125000000e-01,2.206420898437500000e-01
5.000000000000000000e+00,-2.000000000000000000e+00,-1.000000000000000000e+00,9.000000000000000000e+00,1.000000000000000000e+01,3.000000000000000000e+00,2.000000000000000000e+00,-4.000000000000000000e+00,3.980102539062500000e-01,3.101196289062500000e-01,-8.350830078125000000e-01,2.191772460937500000e-01
3.000000000000000000e+00,4.000000000000000000e+00,0.000000000000000000e+00,-9.000000000000000000e+00,3.000000000000000000e+00,4.000000000000000000e+00,1.100000000000000000e+01,2.000000000000000000e+00,3.980102539062500000e-01,3.101196289062500000e-01,-8.350830078125000000e-01,2.191772460937500000e-01
-5.000000000000000000e+00,-2.000000000000000000e+00,-1.000000000000000000e+00,2.000000000000000000e+00,1.700000000000000000e+01,4.000000000000000000e+00,8.000000000000000000e+00,4.000000000000000000e+00,3.980102539062500000e-01,3.101196289062500000e-01,-8.350830078125000000e-01,2.191772460937500000e-01
-5.000000000000000000e+00,-1.200000000000000000e+01,-2.400000000000000000e+01,-1.600000000000000000e+01,-1.800000000000000000e+01,-1.000000000000000000e+01,-9.000000000000000000e+00,-3.000000000000000000e+00,3.980102539062500000e-01,3.101196289062500000e-01,-8.350830078125000000e-01,2.191772460937500000e-01
5.000000000000000000e+00,0.000000000000000000e+00,-6.000000000000000000e+00,-1.300000000000000000e+01,2.000000000000000000e+00,3.000000000000000000e+00,1.000000000000000000e+00,-1.000000000000000000e+00,3.982543945312500000e-01,3.108520507812500000e-01,-8.350830078125000000e-01,2.176513671875000000e-01
-4.000000000000000000e+00,-1.000000000000000000e+00,1.200000000000000000e+01,9.000000000000000000e+00,0.000000000000000000e+00,-2.000000000000000000e+00,3.000000000000000000e+00,-2.000000000000000000e+00,3.982543945312500000e-01,3.108520507812500000e-01,-8.350830078125000000e-01,2.176513671875000000e-01
2.000000000000000000e+00,-2.000000000000000000e+00,4.000000000000000000e+00,-3.000000000000000000e+00,-4.000000000000000000e+00,0.000000000000000000e+00,1.100000000000000000e+01,-1.000000000000000000e+00,3.982543945312500000e-01,3.108520507812500000e-01,-8.350830078125000000e-01,2.176513671875000000e-01
2.000000000000000000e+00,3.000000000000000000e+00,7.000000000000000000e+00,1.200000000000000000e+01,0.000000000000000000e+00,-9.000000000000000000e+00,-3.600000000000000000e+01,-2.000000000000000000e+00,3.982543945312500000e-01,3.108520507812500000e-01,-8.350830078125000000e-01,2.176513671875000000e-01
0.000000000000000000e+00,8.000000000000000000e+00,1.000000000000000000e+00,-6.000000000000000000e+00,-6.000000000000000000e+00,-1.000000000000000000e+00,4.000000000000000000e+00,3.000000000000000000e+00,3.984375000000000000e-01,3.118286132812500000e-01,-8.350219726562500000e-01,2.161254882812500000e-01
2.000000000000000000e+00,1.000000000000000000e+00,-4.000000000000000000e+00,1.700000000000000000e+01,1.000000000000000000e+00,0.000000000000000000e+00,1.000000000000000000e+00,-1.000000000000000000e+00,3.984375000000000000e-01,3.118286132812500000e-01,-8.350219726562500000e-01,2.161254882812500000e-01
7.000000000000000000e+00,3.000000000000000000e+00,-2.100000000000000000e+01,-2.200000000000000000e+01,-4.000000000000000000e+00,0.000000000000000000e+00,-1.100000000000000000e+01,0.000000000000000000e+00,3.984375000000000000e-01,3.118286132812500000e-01,-8.350219726562500000e-01,2.161254882812500000e-01
-7.000000000000000000e+00,1.400000000000000000e+01,3.200000000000000000e+01,-1.700000000000000000e+01,1.400000000000000000e+01,8.000000000000000000e+00,2.900000000000000000e+01,0.000000000000000000e+00,3.984375000000000000e-01,3.118286132812500000e-01,-8.350219726562500000e-01,2.161254882812500000e-01
5.000000000000000000e+00,-2.200000000000000000e+01,-1.000000000000000000e+01,-1.300000000000000000e+01,-7.000000000000000000e+00,-3.000000000000000000e+00,-1.500000000000000000e+01,-6.000000000000000000e+00,3.986206054687500000e-01,3.126220703125000000e-01,-8.350219726562500000e-01,2.146606445312500000e-01
-3.200000000000000000e+01,-2.000000000000000000e+01,1.100000000000000000e+01,-5.000000000000000000e+00,1.200000000000000000e+01,6.000000000000000000e+00,2.600000000000000000e+01,-3.000000000000000000e+00,3.986206054687500000e-01,3.126220703125000000e-01,-8.350219726562500000e-01,2.146606445312500000e-01
-4.000000000000000000e+00,2.000000000000000000e+00,-4.000000000000000000e+00,1.100000000000000000e+01,-8.000000000000000000e+00,-5.000000000000000000e+00,-2.300000000000000000e+01,-3.000000000000000000e+00,3.986206054687500000e-01,3.126220703125000000e-01,-8.350219726562500000e-01,2.146606445312500000e-01
1.000000000000000000e+01,8.000000000000000000e+00,-7.000000000000000000e+00,1.200000000000000000e+01,0.000000000000000000e+00,-1.000000000000000000e+00,0.000000000000000000e+00,0.000000000000000000e+00,3.986206054687500000e-01,3.126220703125000000e-01,-8.350219726562500000e-01,2.146606445312500000e-01
8.000000000000000000e+00,1.800000000000000000e+01,7.000000000000000000e+00,-2.000000000000000000e+00,2.000000000000000000e+00,-1.000000000000000000e+00,-5.000000000000000000e+00,4.000000000000000000e+00,3.988037109375000000e-01,3.134155273437500000e-01,-8.350219726562500000e-01,2.130737304687500000e-01
3.000000000000000000e+00,0.000000000000000000e+00,-1.500000000000000000e+01,-4.000000000000000000e+00,-1.200000000000000000e+01,-1.000000000000000000e+00,3.000000000000000000e+00,-2.000000000000000000e+00,3.988037109375000000e-01,3.134155273437500000e-01,-8.350219726562500000e-01,2.130737304687500000e-01
-3.000000000000000000e+00,-7.000000000000000000e+00,8.000000000000000000e+00,1.000000000000000000e+00,3.000000000000000000e+00,-6.000000000000000000e+00,-6.000000000000000000e+00,6.000000000000000000e+00,3.988037109375000000e-01,3.134155273437500000e-01,-8.350219726562500000e-01,2.130737304687500000e-01
3.000000000000000000e+00,1.000000000000000000e+01,9.000000000000000000e+00,-1.000000000000000000e+00,4.000000000000000000e+00,5.000000000000000000e+00,5.000000000000000000e+00,0.000000000000000000e+00,3.988037109375000000e-01,3.134155273437500000e-01,-8.350219726562500000e-01,2.130737304687500000e-01
-5.000000000000000000e+00,-9.000000000000000000e+00,-7.000000000000000000e+00,1.000000000000000000e+01,-2.000000000000000000e+00,1.000000000000000000e+00,1.400000000000000000e+01,-3.000000000000000000e+00,3.988647460937500000e-01,3.137817382812500000e-01,-8.352661132812500000e-01,2.116088867187500000e-01
5.000000000000000000e+00,-7.000000000000000000e+00,-8.000000000000000000e+00,-5.000000000000000000e+00,-2.000000000000000000e+00,-5.000000000000000000e+00,-4.100000000000000000e+01,1.000000000000000000e+00,3.988647460937500000e-01,3.137817382812500000e-01,-8.352661132812500000e-01,2.116088867187500000e-01
-5.000000000000000000e+00,-8.000000000000000000e+00,-1.000000000000000000e+00,-7.000000000000000000e+00,-6.000000000000000000e+00,-4.000000000000000000e+00,-7.000000000000000000e+00,-7.000000000000000000e+00,3.988647460937500000e-01,3.137817382812500000e-01,-8.352661132812500000e-01,2.116088867187500000e-01
-1.000000000000000000e+00,-1.000000000000000000e+01,3.000000000000000000e+00,-4.000000000000000000e+00,-8.000000000000000000e+00,-4.000000000000000000e+00,-3.000000000000000000e+00,-1.000000000000000000e+00,3.988647460937500000e-01,3.137817382812500000e-01,-8.352661132812500000e-01,2.116088867187500000e-01
-9.000000000000000000e+00,3.000000000000000000e+00,0.000000000000000000e+00,2.000000000000000000e+00,-5.000000000000000000e+00,-1.000000000000000000e+00,-1.000000000000000000e+00,2.000000000000000000e+00,3.991699218750000000e-01,3.142700195312500000e-01,-8.352661132812500000e-01,2.101440429687500000e-01
1.000000000000000000e+01,1.600000000000000000e+01,3.000000000000000000e+00,-2.000000000000000000e+00,-2.000000000000000000e+00,0.000000000000000000e+00,-1.400000000000000000e+01,0.000000000000000000e+00,3.991699218750000000e-01,3.142700195312500000e-01,-8.352661132812500000e-01,2.101440429687500000e-01
1.300000000000000000e+01,5.000000000000000000e+00,5.000000000000000000e+00,1.000000000000000000e+01,6.000000000000000000e+00,-2.000000000000000000e+00,-9.000000000000000000e+00,-1.000000000000000000e+00,3.991699218750000000e-01,3.142700195312500000e-01,-8.352661132812500000e-01,2.101440429687500000e-01
-4.700000000000000000e+01,-1.900000000000000000e+01,-4.000000000000000000e+00,2.000000000000000000e+00,2.000000000000000000e+00,7.000000000000000000e+00,2.500000000000000000e+01,-3.000000000000000000e+00,3.991699218750000000e-01,3.142700195312500000e-01,-8.352661132812500000e-01,2.101440429687500000e-01
0.000000000000000000e+00,-8.000000000000000000e+00,3.000000000000000000e+00,3.000000000000000000e+00,4.000000000000000000e+00,-4.000000000000000000e+00,-1.200000000000000000e+01,0.000000000000000000e+00,3.993530273437500000e-01,3.145751953125000000e-01,-8.353881835937500000e-01,2.089233398437500000e-01
-3.000000000000000000e+00,-3.000000000000000000e+00,-1.000000000000000000e+00,-9.000000000000000000e+00,-3.000000000000000000e+00,2.000000000000000000e+00,4.000000000000000000e+00,0.000000000000000000e+00,3.993530273437500000e-01,3.145751953125000000e-01,-8.353881835937500000e-01,2.089233398437500000e-01
7.000000000000000000e+00,1.000000000000000000e+00,2.000000000000000000e+00,-3.000000000000000000e+00,-6.000000000000000000e+00,-1.000000000000000000e+00,6.000000000000000000e+00,-2.000000000000000000e+00,3.993530273437500000e-01,3.145751953125000000e-01,-8.353881835937500000e-01,2.089233398437500000e-01
1.400000000000000000e+01,2.000000000000000000e+00,-1.800000000000000000e+01,-5.000000000000000000e+00,-1.000000000000000000e+01,-5.000000000000000000e+00,-8.000000000000000000e+00,-1.000000000000000000e+00,3.993530273437500000e-01,3.145751953125000000e-01,-8.353881835937500000e-01,2.089233398437500000e-01
-1.100000000000000000e+01,-1.000000000000000000e+00,1.000000000000000000e+00,2.000000000000000000e+00,-8.000000000000000000e+00,-8.000000000000000000e+00,2.000000000000000000e+00,-1.000000000000000000e+00,3.995971679687500000e-01,3.150024414062500000e-01,-8.353881835937500000e-01,2.078247070312500000e-01
-2.000000000000000000e+00,-3.000000000000000000e+00,7.000000000000000000e+00,-1.000000000000000000e+00,9.000000000000000000e+00,5.000000000000000000e+00,1.000000000000000000e+00,-1.000000000000000000e+00,3.995971679687500000e-01,3.150024414062500000e-01,-8.353881835937500000e-01,2.078247070312500000e-01
-4.000000000000000000e+00,-1.000000000000000000e+00,1.100000000000000000e+01,-2.000000000000000000e+00,9.000000000000000000e+00,9.000000000000000000e+00,1.700000000000000000e+01,0.000000000000000000e+00,3.995971679687500000e-01,3.150024414062500000e-01,-8.353881835937500000e-01,2.078247070312500000e-01
8.000000000000000000e+00,2.000000000000000000e+00,-2.500000000000000000e+01,3.000000000000000000e+00,5.000000000000000000e+00,2.000000000000000000e+00,-2.000000000000000000e+00,-2.000000000000000000e+00,3.995971679687500000e-01,3.150024414062500000e-01,-8.353881835937500000e-01,2.078247070312500000e-01
4.000000000000000000e+00,6.000000000000000000e+00,0.000000000000000000e+00,-8.000000000000000000e+00,-3.000000000000000000e+00,-3.000000000000000000e+00,-1.500000000000000000e+01,-4.000000000000000000e+00,3.995971679687500000e-01,3.154907226562500000e-01,-8.354492187500000000e-01,2.067871093750000000e-01
3.000000000000000000e+00,-1.500000000000000000e+01,-3.900000000000000000e+01,-1.700000000000000000e+01,-1.700000000000000000e+01,-1.700000000000000000e+01,-3.500000000000000000e+01,0.000000000000000000e+00,3.995971679687500000e-01,3.154907226562500000e-01,-8.354492187500000000e-01,2.067871093750000000e-01
-2.000000000000000000e+00,6.000000000000000000e+00,1.800000000000000000e+01,2.600000000000000000e+01,-1.000000000000000000e+01,7.000000000000000000e+00,4.000000000000000000e+01,3.000000000000000000e+00,3.995971679687500000e-01,3.154907226562500000e-01,-8.354492187500000000e-01,2.067871093750000000e-01
0.000000000000000000e+00,-1.000000000000000000e+00,5.000000000000000000e+00,-7.000000000000000000e+00,8.000000000000000000e+00,0.000000000000000000e+00,-2.800000000000000000e+01,0.000000000000000000e+00,3.995971679687500000e-01,3.154907226562500000e-01,-8.354492187500000000e-01,2.067871093750000000e-01
1.000000000000000000e+01,1.000000000000000000e+00,-7.000000000000000000e+00,-1.300000000000000000e+01,0.000000000000000000e+00,0.000000000000000000e+00,-1.200000000000000000e+01,1.000000000000000000e+00,3.999023437500000000e-01,3.162841796875000000e-01,-8.352661132812500000e-01,2.058715820312500000e-01
-2.000000000000000000e+00,4.000000000000000000e+00,1.400000000000000000e+01,2.100000000000000000e+01,1.900000000000000000e+01,4.000000000000000000e+00,9.000000000000000000e+00,-1.000000000000000000e+00,3.999023437500000000e-01,3.162841796875000000e-01,-8.352661132812500000e-01,2.058715820312500000e-01
-1.100000000000000000e+01,-4.000000000000000000e+00,9.000000000000000000e+00,-4.000000000000000000e+00,0.000000000000000000e+00,-3.000000000000000000e+00,-6.000000000000000000e+00,-2.000000000000000000e+00,3.999023437500000000e-01,3.162841796875000000e-01,-8.352661132812500000e-01,2.058715820312500000e-01
3.000000000000000000e+00,-3.000000000000000000e+00,-1.400000000000000000e+01,1.000000000000000000e+00,-1.100000000000000000e+01,-8.000000000000000000e+00,6.000000000000000000e+00,-3.000000000000000000e+00,3.999023437500000000e-01,3.162841796875000000e-01,-8.352661132812500000e-01,2.058715820312500000e-01
8.000000000000000000e+00,6.000000000000000000e+00,1.800000000000000000e+01,6.000000000000000000e+00,-1.000000000000000000e+00,1.000000000000000000e+00,-4.000000000000000000e+00,0.000000000000000000e+00,4.002075195312500000e-01,3.170776367187500000e-01,-8.350830078125000000e-01,2.047119140625000000e-01
-7.000000000000000000e+00,-3.000000000000000000e+00,-5.000000000000000000e+00,-1.600000000000000000e+01,-7.000000000000000000e+00,3.000000000000000000e+00,3.000000000000000000e+01,0.000000000000000000e+00,4.002075195312500000e-01,3.170776367187500000e-01,-8.350830078125000000e-01,2.047119140625000000e-01
-3.000000000000000000e+00,-1.700000000000000000e+01,-1.500000000000000000e+01,3.000000000000000000e+00,-5.000000000000000000e+00,-7.000000000000000000e+00,-2.300000000000000000e+01,-3.000000000000000000e+00,4.002075195312500000e-01,3.170776367187500000e-01,-8.350830078125000000e-01,2.047119140625000000e-01
1.100000000000000000e+01,1.000000000000000000e+00,1.300000000000000000e+01,-2.000000000000000000e+01,-7.000000000000000000e+00,7.000000000000000000e+00,7.000000000000000000e+00,-1.000000000000000000e+00,4.002075195312500000e-01,3.170776367187500000e-01,-8.350830078125000000e-01,2.047119140625000000e-01
-5.000000000000000000e+00,5.000000000000000000e+00,4.000000000000000000e+00,1.500000000000000000e+01,9.000000000000000000e+00,0.000000000000000000e+00,-6.000000000000000000e+00,0.000000000000000000e+00,4.007568359375000000e-01,3.179321289062500000e-01,-8.346557617187500000e-01,2.039794921875000000e-01
1.000000000000000000e+01,1.200000000000000000e+01,-9.000000000000000000e+00,3.000000000000000000e+00,3.000000000000000000e+00,0.000000000000000000e+00,1.000000000000000000e+01,3.000000000000000000e+00,4.007568359375000000e-01,3.179321289062500000e-01,-8.346557617187500000e-01,2.039794921875000000e-01
-2.400000000000000000e+01,-1.000000000000000000e+01,1.000000000000000000e+00,-8.000000000000000000e+00,0.000000000000000000e+00,-1.000000000000000000e+00,-1.200000000000000000e+01,-4.000000000000000000e+00,4.007568359375000000e-01,3.179321289062500000e-01,-8.346557617187500000e-01,2.039794921875000000e-01
2.000000000000000000e+00,-4.000000000000000000e+00,-3.600000000000000000e+01,1.000000000000000000e+01,-7.000000000000000000e+00,-1.000000000000000000e+01,-1.800000000000000000e+01,-3.000000000000000000e+00,4.007568359375000000e-01,3.179321289062500000e-01,-8.346557617187500000e-01,2.039794921875000000e-01
-3.000000000000000000e+00,-9.000000000000000000e+00,3.600000000000000000e+01,-1.100000000000000000e+01,-6.000000000000000000e+00,0.000000000000000000e+00,7.000000000000000000e+00,-4.000000000000000000e+00,4.016113281250000000e-01,3.186035156250000000e-01,-8.342285156250000000e-01,2.031860351562500000e-01
-3.000000000000000000e+00,2.000000000000000000e+00,3.000000000000000000e+00,1.700000000000000000e+01,-3.000000000000000000e+00,3.000000000000000000e+00,3.600000000000000000e+01,-1.100000000000000000e+01,4.016113281250000000e-01,3.186035156250000000e-01,-8.342285156250000000e-01,2.031860351562500000e-01
7.000000000000000000e+00,0.000000000000000000e+00,-1.100000000000000000e+01,-3.000000000000000000e+00,3.000000000000000000e+00,-5.000000000000000000e+00,-7.000000000000000000e+00,9.000000000000000000e+00,4.016113281250000000e-01,3.186035156250000000e-01,-8.342285156250000000e-01,2.031860351562500000e-01
2.000000000000000000e+00,0.000000000000000000e+00,-1.000000000000000000e+00,1.000000000000000000e+00,-7.000000000000000000e+00,-8.000000000000000000e+00,-6.000000000000000000e+00,-1.000000000000000000e+00,4.016113281250000000e-01,3.186035156250000000e-01,-8.342285156250000000e-01,2.031860351562500000e-01
1.000000000000000000e+00,7.000000000000000000e+00,0.000000000000000000e+00,-4.000000000000000000e+00,1.300000000000000000e+01,7.000000000000000000e+00,2.200000000000000000e+01,2.000000000000000000e+00,4.024658203125000000e-01,3.190917968750000000e-01,-8.337402343750000000e-01,2.026367187500000000e-01
0.000000000000000000e+00,-2.000000000000000000e+00,4.000000000000000000e+00,-3.000000000000000000e+00,-3.000000000000000000e+00,-1.000000000000000000e+00,-1.500000000000000000e+01,-1.000000000000000000e+00,4.024658203125000000e-01,3.190917968750000000e-01,-8.337402343750000000e-01,2.026367187500000000e-01
-1.000000000000000000e+00,0.000000000000000000e+00,4.000000000000000000e+00,-6.000000000000000000e+00,-2.000000000000000000e+00,2.000000000000000000e+00,-1.000000000000000000e+01,-5.000000000000000000e+00,4.024658203125000000e-01,3.190917968750000000e-01,-8.337402343750000000e-01,2.026367187500000000e-01
3.000000000000000000e+00,-6.000000000000000000e+00,-2.800000000000000000e+01,1.000000000000000000e+00,-1.000000000000000000e+00,2.000000000000000000e+00,2.200000000000000000e+01,-3.000000000000000000e+00,4.024658203125000000e-01,3.190917968750000000e-01,-8.337402343750000000e-01,2.026367187500000000e-01
-8.000000000000000000e+00,-7.000000000000000000e+00,-3.000000000000000000e+00,1.800000000000000000e+01,-9.000000000000000000e+00,-7.000000000000000000e+00,-4.000000000000000000e+00,0.000000000000000000e+00,4.031982421875000000e-01,3.190917968750000000e-01,-8.335571289062500000e-01,2.020263671875000000e-01
-5.000000000000000000e+00,-2.000000000000000000e+00,6.000000000000000000e+00,-3.700000000000000000e+01,-5.000000000000000000e+00,-2.000000000000000000e+00,-1.200000000000000000e+01,-2.000000000000000000e+00,4.031982421875000000e-01,3.190917968750000000e-01,-8.335571289062500000e-01,2.020263671875000000e-01
1.000000000000000000e+00,7.000000000000000000e+00,-3.000000000000000000e+01,-4.000000000000000000e+00,-1.400000000000000000e+01,-4.000000000000000000e+00,1.000000000000000000e+01,-2.000000000000000000e+00,4.031982421875000000e-01,3.190917968750000000e-01,-8.335571289062500000e-01,2.020263671875000000e-01
2.000000000000000000e+00,0.000000000000000000e+00,1.200000000000000000e+01,5.000000000000000000e+00,2.000000000000000000e+01,-7.000000000000000000e+00,-4.600000000000000000e+01,-3.000000000000000000e+00,4.031982421875000000e-01,3.190917968750000000e-01,-8.335571289062500000e-01,2.020263671875000000e-01
0.000000000000000000e+00,-3.000000000000000000e+00,4.000000000000000000e+00,8.000000000000000000e+00,-2.000000000000000000e+00,1.100000000000000000e+01,3.400000000000000000e+01,2.000000000000000000e+00,4.036254882812500000e-01,3.193969726562500000e-01,-8.333129882812500000e-01,2.017211914062500000e-01
4.000000000000000000e+00,-2.000000000000000000e+00,-3.200000000000000000e+01,5.000000000000000000e+00,-3.000000000000000000e+00,-1.000000000000000000e+00,-2.300000000000000000e+01,-1.000000000000000000e+00,4.036254882812500000e-01,3.193969726562500000e-01,-8.333129882812500000e-01,2.017211914062500000e-01
0.000000000000000000e+00,-4.000000000000000000e+00,8.000000000000000000e+00,-2.700000000000000000e+01,-1.100000000000000000e+01,-2.000000000000000000e+00,4.000000000000000000e+00,-1.000000000000000000e+00,4.036254882812500000e-01,3.193969726562500000e-01,-8.333129882812500000e-01,2.017211914062500000e-01
-5.000000000000000000e+00,0.000000000000000000e+00,3.100000000000000000e+01,8.000000000000000000e+00,-3.000000000000000000e+00,-1.000000000000000000e+00,1.600000000000000000e+01,0.000000000000000000e+00,4.036254882812500000e-01,3.193969726562500000e-01,-8.333129882812500000e-01,2.017211914062500000e-01
-4.000000000000000000e+00,-1.000000000000000000e+01,-3.300000000000000000e+01,-3.000000000000000000e+00,9.000000000000000000e+00,-1.000000000000000000e+00,-8.000000000000000000e+00,-3.000000000000000000e+00,4.038085937500000000e-01,3.199462890625000000e-01,-8.330078125000000000e-01,2.017211914062500000e-01
1.000000000000000000e+00,5.000000000000000000e+00,1.500000000000000000e+01,7.000000000000000000e+00,-3.000000000000000000e+00,-2.000000000000000000e+00,4.000000000000000000e+00,2.000000000000000000e+00,4.038085937500000000e-01,3.199462890625000000e-01,-8.330078125000000000e-01,2.017211914062500000e-01
-6.000000000000000000e+00,-5.000000000000000000e+00,-9.000000000000000000e+00,3.000000000000000000e+00,1.100000000000000000e+01,0.000000000000000000e+00,-1.600000000000000000e+01,-2.000000000000000000e+00,4.038085937500000000e-01,3.199462890625000000e-01,-8.330078125000000000e-01,2.017211914062500000e-01
-4.000000000000000000e+00,4.000000000000000000e+00,1.400000000000000000e+01,5.000000000000000000e+00,-2.000000000000000000e+00,9.000000000000000000e+00,4.400000000000000000e+01,2.000000000000000000e+00,4.038085937500000000e-01,3.199462890625000000e-01,-8.330078125000000000e-01,2.017211914062500000e-01
-4.000000000000000000e+00,5.000000000000000000e+00,4.000000000000000000e+00,3.000000000000000000e+00,-3.000000000000000000e+00,-4.000000000000000000e+00,-1.400000000000000000e+01,-2.000000000000000000e+00,4.038085937500000000e-01,3.207397460937500000e-01,-8.327026367187500000e-01,2.017822265625000000e-01
-3.000000000000000000e+00,-7.000000000000000000e+00,-1.500000000000000000e+01,0.000000000000000000e+00,-1.000000000000000000e+01,-8.000000000000000000e+00,-1.000000000000000000e+01,-5.000000000000000000e+00,4.038085937500000000e-01,3.207397460937500000e-01,-8.327026367187500000e-01,2.017822265625000000e-01
-2.000000000000000000e+00,-7.000000000000000000e+00,1.600000000000000000e+01,-1.300000000000000000e+01,-3.000000000000000000e+00,4.000000000000000000e+00,8.000000000000000000e+00,5.000000000000000000e+00,4.038085937500000000e-01,3.207397460937500000e-01,-8.327026367187500000e-01,2.017822265625000000e-01
-2.000000000000000000e+00,-1.000000000000000000e+00,2.000000000000000000e+00,8.000000000000000000e+00,-2.000000000000000000e+01,-9.000000000000000000e+00,-1.600000000000000000e+01,0.000000000000000000e+00,4.038085937500000000e-01,3.207397460937500000e-01,-8.327026367187500000e-01,2.017822265625000000e-01
5.000000000000000000e+00,7.000000000000000000e+00,-5.000000000000000000e+00,-9.000000000000000000e+00,2.400000000000000000e+01,5.000000000000000000e+00,1.600000000000000000e+01,0.000000000000000000e+00,4.038085937500000000e-01,3.214111328125000000e-01,-8.323974609375000000e-01,2.017822265625000000e-01
-1.000000000000000000e+00,0.000000000000000000e+00,1.000000000000000000e+01,5.000000000000000000e+00,1.100000000000000000e+01,5.000000000000000000e+00,1.100000000000000000e+01,1.000000000000000000e+00,4.038085937500000000e-01,3.214111328125000000e-01,-8.323974609375000000e-01,2.017822265625000000e-01
8.000000000000000000e+00,1.000000000000000000e+00,-8.000000000000000000e+00,1.600000000000000000e+01,1.000000000000000000e+01,-2.000000000000000000e+00,-1.200000000000000000e+01,-3.000000000000000000e+00,4.038085937500000000e-01,3.214111328125000000e-01,-8.323974609375000000e-01,2.017822265625000000e-01
-1.100000000000000000e+01,-1.000000000000000000e+00,1.900000000000000000e+01,1.000000000000000000e+01,-1.600000000000000000e+01,0.000000000000000000e+00,3.000000000000000000e+00,0.000000000000000000e+00,4.038085937500000000e-01,3.214111328125000000e-01,-8.323974609375000000e-01,2.017822265625000000e-01
-1.600000000000000000e+01,-6.000000000000000000e+00,-1.000000000000000000e+00,-1.100000000000000000e+01,-2.000000000000000000e+00,5.000000000000000000e+00,2.200000000000000000e+01,3.000000000000000000e+00,4.038085937500000000e-01,3.214721679687500000e-01,-8.323974609375000000e-01,2.017211914062500000e-01
4.000000000000000000e+00,0.000000000000000000e+00,8.000000000000000000e+00,-1.200000000000000000e+01,-1.700000000000000000e+01,-8.000000000000000000e+00,-9.000000000000000000e+00,0.000000000000000000e+00,4.038085937500000000e-01,3.214721679687500000e-01,-8.323974609375000000e-01,2.017211914062500000e-01
-7.000000000000000000e+00,-4.000000000000000000e+00,-1.600000000000000000e+01,1.600000000000000000e+01,1.900000000000000000e+01,3.000000000000000000e+00,0.000000000000000000e+00,-5.000000000000000000e+00,4.038085937500000000e-01,3.214721679687500000e-01,-8.323974609375000000e-01,2.017211914062500000e-01
3.000000000000000000e+00,-9.000000000000000000e+00,2.000000000000000000e+00,1.000000000000000000e+00,0.000000000000000000e+00,-9.000000000000000000e+00,-4.000000000000000000e+00,-1.000000000000000000e+00,4.038085937500000000e-01,3.214721679687500000e-01,-8.323974609375000000e-01,2.017211914062500000e-01
2.000000000000000000e+00,2.000000000000000000e+00,-2.400000000000000000e+01,-1.400000000000000000e+01,-6.000000000000000000e+00,-5.000000000000000000e+00,-1.800000000000000000e+01,-1.000000000000000000e+00,4.038696289062500000e-01,3.213500976562500000e-01,-8.324584960937500000e-01,2.015991210937500000e-01
-1.000000000000000000e+00,0.000000000000000000e+00,2.100000000000000000e+01,3.000000000000000000e+00,4.000000000000000000e+00,4.000000000000000000e+00,2.100000000000000000e+01,1.000000000000000000e+00,4.038696289062500000e-01,3.213500976562500000e-01,-8.324584960937500000e-01,2.015991210937500000e-01
2.000000000000000000e+00,-2.000000000000000000e+00,-3.300000000000000000e+01,-1.600000000000000000e+01,-1.600000000000000000e+01,-8.000000000000000000e+00,-2.900000000000000000e+01,-1.000000000000000000e+00,4.038696289062500000e-01,3.213500976562500000e-01,-8.324584960937500000e-01,2.015991210937500000e-01
-5.000000000000000000e+00,2.000000000000000000e+00,2.700000000000000000e+01,-5.000000000000000000e+00,-7.000000000000000000e+00,-1.000000000000000000e+00,2.000000000000000000e+01,-2.000000000000000000e+00,4.038696289062500000e-01,3.213500976562500000e-01,-8.324584960937500000e-01,2.015991210937500000e-01
3.000000000000000000e+00,0.000000000000000000e+00,-1.000000000000000000e+00,-1.500000000000000000e+01,-5.000000000000000000e+00,-8.000000000000000000e+00,-1.400000000000000000e+01,-2.000000000000000000e+00,4.036254882812500000e-01,3.217163085937500000e-01,-8.325195312500000000e-01,2.012939453125000000e-01
0.000000000000000000e+00,-7.000000000000000000e+00,-3.100000000000000000e+01,1.500000000000000000e+01,4.000000000000000000e+00,8.000000000000000000e+00,1.300000000000000000e+01,-1.000000000000000000e+00,4.036254882812500000e-01,3.217163085937500000e-01,-8.325195312500000000e-01,2.012939453125000000e-01
0.000000000000000000e+00,-3.000000000000000000e+00,6.000000000000000000e+00,-4.000000000000000000e+00,-3.000000000000000000e+00,-3.000000000000000000e+00,-1.000000000000000000e+00,-6.000000000000000000e+00,4.036254882812500000e-01,3.217163085937500000e-01,-8.325195312500000000e-01,2.012939453125000000e-01
1.000000000000000000e+00,2.000000000000000000e+00,-2.000000000000000000e+00,5.000000000000000000e+00,1.000000000000000000e+01,-3.000000000000000000e+00,-1.700000000000000000e+01,5.000000000000000000e+00,4.036254882812500000e-01,3.217163085937500000e-01,-8.325195312500000000e-01,2.012939453125000000e-01
1.000000000000000000e+00,8.000000000000000000e+00,-1.100000000000000000e+01,1.100000000000000000e+01,-1.000000000000000000e+01,-3.000000000000000000e+00,-1.100000000000000000e+01,0.000000000000000000e+00,4.031372070312500000e-01,3.222045898437500000e-01,-8.325805664062500000e-01,2.010498046875000000e-01
3.000000000000000000e+00,-1.000000000000000000e+00,4.600000000000000000e+01,-9.000000000000000000e+00,-5.000000000000000000e+00,-5.000000000000000000e+00,-1.000000000000000000e+00,1.000000000000000000e+00,4.031372070312500000e-01,3.222045898437500000e-01,-8.325805664062500000e-01,2.010498046875000000e-01
-2.300000000000000000e+01,-9.000000000000000000e+00,1.500000000000000000e+01,-6.000000000000000000e+00,2.000000000000000000e+00,4.000000000000000000e+00,1.100000000000000000e+01,-5.000000000000000000e+00,4.031372070312500000e-01,3.222045898437500000e-01,-8.325805664062500000e-01,2.010498046875000000e-01
-1.000000000000000000e+00,-4.000000000000000000e+00,-2.800000000000000000e+01,-1.900000000000000000e+01,2.000000000000000000e+00,7.000000000000000000e+00,1.000000000000000000e+00,-2.000000000000000000e+00,4.031372070312500000e-01,3.222045898437500000e-01,-8.325805664062500000e-01,2.010498046875000000e-01
-1.000000000000000000e+00,0.000000000000000000e+00,0.000000000000000000e+00,-2.000000000000000000e+00,-1.200000000000000000e+01,-4.000000000000000000e+00,0.000000000000000000e+00,-1.000000000000000000e+00,4.030761718750000000e-01,3.223266601562500000e-01,-8.325805664062500000e-01,2.009887695312500000e-01
2.000000000000000000e+00,3.000000000000000000e+00,-6.000000000000000000e+00,1.000000000000000000e+00,7.000000000000000000e+00,0.000000000000000000e+00,-6.000000000000000000e+00,2.000000000000000000e+00,4.030761718750000000e-01,3.223266601562500000e-01,-8.325805664062500000e-01,2.009887695312500000e-01
8.000000000000000000e+00,8.000000000000000000e+00,7.000000000000000000e+00,1.600000000000000000e+01,6.000000000000000000e+00,2.000000000000000000e+00,1.000000000000000000e+00,-1.000000000000000000e+00,4.030761718750000000e-01,3.223266601562500000e-01,-8.325805664062500000e-01,2.009887695312500000e-01
-6.000000000000000000e+00,0.000000000000000000e+00,-3.000000000000000000e+01,-1.800000000000000000e+01,-1.000000000000000000e+01,-1.000000000000000000e+01,-2.900000000000000000e+01,-1.000000000000000000e+00,4.030761718750000000e-01,3.223266601562500000e-01,-8.325805664062500000e-01,2.009887695312500000e-01
3.000000000000000000e+00,-1.000000000000000000e+00,1.400000000000000000e+01,-4.000000000000000000e+00,-9.000000000000000000e+00,8.000000000000000000e+00,1.200000000000000000e+01,-2.000000000000000000e+00,4.030761718750000000e-01,3.223876953125000000e-01,-8.325805664062500000e-01,2.009277343750000000e-01
-5.000000000000000000e+00,-1.000000000000000000e+01,-3.000000000000000000e+01,4.200000000000000000e+01,1.600000000000000000e+01,-5.000000000000000000e+00,-5.000000000000000000e+00,-5.000000000000000000e+00,4.030761718750000000e-01,3.223876953125000000e-01,-8.325805664062500000e-01,2.009277343750000000e-01
1.000000000000000000e+01,9.000000000000000000e+00,7.000000000000000000e+00,-1.800000000000000000e+01,-5.000000000000000000e+00,1.000000000000000000e+00,-1.100000000000000000e+01,2.000000000000000000e+00,4.030761718750000000e-01,3.223876953125000000e-01,-8.325805664062500000e-01,2.009277343750000000e-01
-4.000000000000000000e+00,0.000000000000000000e+00,-1.100000000000000000e+01,-1.100000000000000000e+01,1.300000000000000000e+01,7.000000000000000000e+00,5.000000000000000000e+00,-2.000000000000000000e+00,4.030761718750000000e-01,3.223876953125000000e-01,-8.325805664062500000e-01,2.009277343750000000e-01
2.000000000000000000e+00,-1.400000000000000000e+01,-5.000000000000000000e+00,6.000000000000000000e+00,-6.000000000000000000e+00,0.000000000000000000e+00,-2.600000000000000000e+01,-2.000000000000000000e+00,4.030761718750000000e-01,3.226318359375000000e-01,-8.325805664062500000e-01,2.005615234375000000e-01
-2.000000000000000000e+00,4.000000000000000000e+00,-1.100000000000000000e+01,-1.000000000000000000e+01,-1.200000000000000000e+01,-3.000000000000000000e+00,1.700000000000000000e+01,-2.000000000000000000e+00,4.030761718750000000e-01,3.226318359375000000e-01,-8.325805664062500000e-01,2.005615234375000000e-01
4.000000000000000000e+00,-8.000000000000000000e+00,4.300000000000000000e+01,1.200000000000000000e+01,0.000000000000000000e+00,0.000000000000000000e+00,1.000000000000000000e+00,0.000000000000000000e+00,4.030761718750000000e-01,3.226318359375000000e-01,-8.325805664062500000e-01,2.005615234375000000e-01
-1.000000000000000000e+00,8.000000000000000000e+00,-6.000000000000000000e+00,4.000000000000000000e+00,2.000000000000000000e+00,4.000000000000000000e+00,9.000000000000000000e+00,-1.000000000000000000e+00,4.030761718750000000e-01,3.226318359375000000e-01,-8.325805664062500000e-01,2.005615234375000000e-01
-8.000000000000000000e+00,-1.100000000000000000e+01,9.000000000000000000e+00,1.000000000000000000e+00,-6.000000000000000000e+00,-8.000000000000000000e+00,2.000000000000000000e+00,-3.000000000000000000e+00,4.028930664062500000e-01,3.231201171875000000e-01,-8.325195312500000000e-01,2.003784179687500000e-01
-7.000000000000000000e+00,-1.400000000000000000e+01,-1.100000000000000000e+01,-1.600000000000000000e+01,-1.000000000000000000e+01,4.000000000000000000e+00,-8.000000000000000000e+00,-3.000000000000000000e+00,4.028930664062500000e-01,3.231201171875000000e-01,-8.325195312500000000e-01,2.003784179687500000e-01
1.000000000000000000e+00,1.000000000000000000e+01,-1.300000000000000000e+01,3.000000000000000000e+00,2.000000000000000000e+00,-8.000000000000000000e+00,-4.000000000000000000e+00,-1.000000000000000000e+00,4.028930664062500000e-01,3.231201171875000000e-01,-8.325195312500000000e-01,2.003784179687500000e-01
7.000000000000000000e+00,4.000000000000000000e+00,3.300000000000000000e+01,1.100000000000000000e+01,1.000000000000000000e+01,1.000000000000000000e+00,4.000000000000000000e+00,-1.000000000000000000e+00,4.028930664062500000e-01,3.231201171875000000e-01,-8.325195312500000000e-01,2.003784179687500000e-01
-2.000000000000000000e+00,-8.000000000000000000e+00,-2.400000000000000000e+01,-1.200000000000000000e+01,-7.000000000000000000e+00,1.000000000000000000e+00,-7.000000000000000000e+00,-5.000000000000000000e+00,4.028320312500000000e-01,3.233642578125000000e-01,-8.325195312500000000e-01,2.000732421875000000e-01
-2.000000000000000000e+00,4.000000000000000000e+00,-9.000000000000000000e+00,1.000000000000000000e+00,-2.000000000000000000e+00,0.000000000000000000e+00,0.000000000000000000e+00,0.000000000000000000e+00,4.028320312500000000e-01,3.233642578125000000e-01,-8.325195312500000000e-01,2.000732421875000000e-01
4.000000000000000000e+00,7.000000000000000000e+00,-6.000000000000000000e+00,-6.000000000000000000e+00,-7.000000000000000000e+00,-3.000000000000000000e+00,4.000000000000000000e+00,-3.000000000000000000e+00,4.028320312500000000e-01,3.233642578125000000e-01,-8.325195312500000000e-01,2.000732421875000000e-01
-3.000000000000000000e+00,-1.100000000000000000e+01,-2.000000000000000000e+00,-1.000000000000000000e+01,-6.000000000000000000e+00,-7.000000000000000000e+00,-1.100000000000000000e+01,-3.000000000000000000e+00,4.028320312500000000e-01,3.233642578125000000e-01,-8.325195312500000000e-01,2.000732421875000000e-01
6.000000000000000000e+00,1.000000000000000000e+00,-1.300000000000000000e+01,-1.000000000000000000e+01,-9.000000000000000000e+00,-1.000000000000000000e+00,3.000000000000000000e+00,1.000000000000000000e+00,4.024658203125000000e-01,3.239135742187500000e-01,-8.325805664062500000e-01,1.997070312500000000e-01
-3.000000000000000000e+01,-3.000000000000000000e+00,-1.100000000000000000e+01,2.400000000000000000e+01,2.500000000000000000e+01,0.000000000000000000e+00,-8.000000000000000000e+00,-2.000000000000000000e+00,4.024658203125000000e-01,3.239135742187500000e-01,-8.325805664062500000e-01,1.997070312500000000e-01
-6.000000000000000000e+00,-9.000000000000000000e+00,-4.000000000000000000e+00,-3.000000000000000000e+00,-1.000000000000000000e+00,7.000000000000000000e+00,4.300000000000000000e+01,-1.000000000000000000e+00,4.024658203125000000e-01,3.239135742187500000e-01,-8.325805664062500000e-01,1.997070312500000000e-01
3.000000000000000000e+00,-1.000000000000000000e+00,5.000000000000000000e+00,-2.000000000000000000e+01,-1.600000000000000000e+01,-4.000000000000000000e+00,-8.000000000000000000e+00,1.000000000000000000e+00,4.024658203125000000e-01,3.239135742187500000e-01,-8.325805664062500000e-01,1.997070312500000000e-01
2.000000000000000000e+00,2.000000000000000000e+00,-2.000000000000000000e+00,2.000000000000000000e+01,3.600000000000000000e+01,9.000000000000000000e+00,3.000000000000000000e+00,1.000000000000000000e+00,4.021606445312500000e-01,3.244018554687500000e-01,-8.325805664062500000e-01,1.995849609375000000e-01
7.000000000000000000e+00,6.000000000000000000e+00,7.000000000000000000e+00,-1.300000000000000000e+01,-1.100000000000000000e+01,0.000000000000000000e+00,3.000000000000000000e+00,1.000000000000000000e+00,4.021606445312500000e-01,3.244018554687500000e-01,-8.325805664062500000e-01,1.995849609375000000e-01
3.000000000000000000e+00,1.000000000000000000e+00,-2.400000000000000000e+01,2.000000000000000000e+00,-8.000000000000000000e+00,-2.000000000000000000e+00,-7.000000000000000000e+00,0.000000000000000000e+00,4.021606445312500000e-01,3.244018554687500000e-01,-8.325805664062500000e-01,1.995849609375000000e-01
-5.000000000000000000e+00,-1.000000000000000000e+00,3.000000000000000000e+00,9.000000000000000000e+00,3.000000000000000000e+00,-2.000000000000000000e+00,5.000000000000000000e+00,-7.000000000000000000e+00,4.021606445312500000e-01,3.244018554687500000e-01,-8.325805664062500000e-01,1.995849609375000000e-01
4.000000000000000000e+00,0.000000000000000000e+00,1.500000000000000000e+01,-8.000000000000000000e+00,-1.200000000000000000e+01,-4.000000000000000000e+00,2.100000000000000000e+01,4.000000000000000000e+00,4.014282226562500000e-01,3.250122070312500000e-01,-8.327026367187500000e-01,1.994628906250000000e-01
-2.000000000000000000e+00,5.000000000000000000e+00,2.400000000000000000e+01,-4.000000000000000000e+00,-6.000000000000000000e+00,-6.000000000000000000e+00,-3.700000000000000000e+01,-2.000000000000000000e+00,4.014282226562500000e-01,3.250122070312500000e-01,-8.327026367187500000e-01,1.994628906250000000e-01
-6.000000000000000000e+00,-2.000000000000000000e+01,-3.700000000000000000e+01,-1.700000000000000000e+01,-7.000000000000000000e+00,-2.000000000000000000e+00,-7.000000000000000000e+00,-2.000000000000000000e+00,4.014282226562500000e-01,3.250122070312500000e-01,-8.327026367187500000e-01,1.994628906250000000e-01
4.000000000000000000e+00,1.000000000000000000e+00,-1.800000000000000000e+01,2.000000000000000000e+00,6.000000000000000000e+00,-1.000000000000000000e+00,-4.000000000000000000e+00,-2.000000000000000000e+00,4.014282226562500000e-01,3.250122070312500000e-01,-8.327026367187500000e-01,1.994628906250000000e-01
-3.000000000000000000e+00,2.000000000000000000e+00,4.000000000000000000e+00,3.000000000000000000e+00,4.000000000000000000e+00,-6.000000000000000000e+00,-5.000000000000000000e+00,-1.000000000000000000e+00,4.004516601562500000e-01,3.255004882812500000e-01,-8.329467773437500000e-01,1.995849609375000000e-01
6.000000000000000000e+00,-6.000000000000000000e+00,3.000000000000000000e+00,-4.000000000000000000e+00,4.000000000000000000e+00,6.000000000000000000e+00,9.000000000000000000e+00,0.000000000000000000e+00,4.004516601562500000e-01,3.255004882812500000e-01,-8.329467773437500000e-01,1.995849609375000000e-01
2.000000000000000000e+00,6.000000000000000000e+00,1.700000000000000000e+01,-1.000000000000000000e+00,-2.000000000000000000e+00,-3.000000000000000000e+00,-5.000000000000000000e+00,-1.000000000000000000e+00,4.004516601562500000e-01,3.255004882812500000e-01,-8.329467773437500000e-01,1.995849609375000000e-01
1.000000000000000000e+00,-1.000000000000000000e+00,1.000000000000000000e+00,-1.000000000000000000e+00,0.000000000000000000e+00,4.000000000000000000e+00,-1.000000000000000000e+00,0.000000000000000000e+00,4.004516601562500000e-01,3.255004882812500000e-01,-8.329467773437500000e-01,1.995849609375000000e-01
-4.000000000000000000e+00,6.000000000000000000e+00,5.000000000000000000e+00,7.000000000000000000e+00,-3.000000000000000000e+00,-5.000000000000000000e+00,-1.000000000000000000e+00,-1.000000000000000000e+00,3.995361328125000000e-01,3.257446289062500000e-01,-8.332519531250000000e-01,1.997680664062500000e-01
5.000000000000000000e+00,8.000000000000000000e+00,1.000000000000000000e+01,4.000000000000000000e+00,3.000000000000000000e+00,1.000000000000000000e+00,-1.000000000000000000e+01,3.000000000000000000e+00,3.995361328125000000e-01,3.257446289062500000e-01,-8.332519531250000000e-01,1.997680664062500000e-01
0.000000000000000000e+00,-2.000000000000000000e+00,-2.000000000000000000e+00,-1.300000000000000000e+01,-6.000000000000000000e+00,-1.100000000000000000e+01,-1.400000000000000000e+01,-1.000000000000000000e+00,3.995361328125000000e-01,3.257446289062500000e-01,-8.332519531250000000e-01,1.997680664062500000e-01
6.000000000000000000e+00,0.000000000000000000e+00,1.000000000000000000e+00,-5.000000000000000000e+00,-1.800000000000000000e+01,9.000000000000000000e+00,1.200000000000000000e+01,3.000000000000000000e+00,3.995361328125000000e-01,3.257446289062500000e-01,-8.332519531250000000e-01,1.997680664062500000e-01
-2.300000000000000000e+01,-1.100000000000000000e+01,1.100000000000000000e+01,1.000000000000000000e+01,2.600000000000000000e+01,1.000000000000000000e+00,0.000000000000000000e+00,-3.000000000000000000e+00,3.987426757812500000e-01,3.258056640625000000e-01,-8.335571289062500000e-01,2.000122070312500000e-01
4.000000000000000000e+00,-7.000000000000000000e+00,-5.000000000000000000e+00,3.000000000000000000e+00,-5.000000000000000000e+00,2.000000000000000000e+00,1.400000000000000000e+01,-4.000000000000000000e+00,3.987426757812500000e-01,3.258056640625000000e-01,-8.335571289062500000e-01,2.000122070312500000e-01
-3.000000000000000000e+00,-3.000000000000000000e+00,-4.000000000000000000e+00,1.000000000000000000e+01,2.200000000000000000e+01,8.000000000000000000e+00,-6.000000000000000000e+00,1.000000000000000000e+00,3.987426757812500000e-01,3.258056640625000000e-01,-8.335571289062500000e-01,2.000122070312500000e-01
4.000000000000000000e+00,7.000000000000000000e+00,-9.000000000000000000e+00,0.000000000000000000e+00,-2.000000000000000000e+00,-5.000000000000000000e+00,-4.000000000000000000e+00,1.000000000000000000e+00,3.987426757812500000e-01,3.258056640625000000e-01,-8.335571289062500000e-01,2.000122070312500000e-01
7.000000000000000000e+00,1.000000000000000000e+00,-1.000000000000000000e+00,0.000000000000000000e+00,-1.000000000000000000e+01,-4.000000000000000000e+00,-6.000000000000000000e+00,0.000000000000000000e+00,3.980102539062500000e-01,3.259887695312500000e-01,-8.337402343750000000e-01,2.003784179687500000e-01
0.000000000000000000e+00,-1.000000000000000000e+00,-3.000000000000000000e+00,-1.400000000000000000e+01,-5.000000000000000000e+00,-5.000000000000000000e+00,-8.000000000000000000e+00,-3.000000000000000000e+00,3.980102539062500000e-01,3.259887695312500000e-01,-8.337402343750000000e-01,2.003784179687500000e-01
2.000000000000000000e+00,5.000000000000000000e+00,5.000000000000000000e+00,0.000000000000000000e+00,-3.000000000000000000e+00,-2.000000000000000000e+00,6.000000000000000000e+00,0.000000000000000000e+00,3.980102539062500000e-01,3.259887695312500000e-01,-8.337402343750000000e-01,2.003784179687500000e-01
-3.000000000000000000e+00,-3.000000000000000000e+00,1.000000000000000000e+01,8.000000000000000000e+00,3.000000000000000000e+00,-2.000000000000000000e+00,2.000000000000000000e+00,-1.000000000000000000e+00,3.980102539062500000e-01,3.259887695312500000e-01,-8.337402343750000000e-01,2.003784179687500000e-01
1.000000000000000000e+00,0.000000000000000000e+00,-8.000000000000000000e+00,-5.000000000000000000e+00,-1.000000000000000000e+01,-5.000000000000000000e+00,-6.000000000000000000e+00,-1.000000000000000000e+00,3.972778320312500000e-01,3.261718750000000000e-01,-8.339843750000000000e-01,2.005615234375000000e-01
-3.000000000000000000e+00,-1.000000000000000000e+00,2.000000000000000000e+00,1.200000000000000000e+01,-1.000000000000000000e+01,-5.000000000000000000e+00,9.000000000000000000e+00,-1.000000000000000000e+00,3.972778320312500000e-01,3.261718750000000000e-01,-8.339843750000000000e-01,2.005615234375000000e-01
0.000000000000000000e+00,2.000000000000000000e+00,-1.000000000000000000e+00,-1.200000000000000000e+01,2.600000000000000000e+01,6.000000000000000000e+00,-3.000000000000000000e+00,0.000000000000000000e+00,3.972778320312500000e-01,3.261718750000000000e-01,-8.339843750000000000e-01,2.005615234375000000e-01
1.000000000000000000e+00,6.000000000000000000e+00,1.700000000000000000e+01,-1.000000000000000000e+00,-2.000000000000000000e+00,-2.000000000000000000e+00,2.000000000000000000e+01,6.000000000000000000e+00,3.972778320312500000e-01,3.261718750000000000e-01,-8.339843750000000000e-01,2.005615234375000000e-01
1.000000000000000000e+01,9.000000000000000000e+00,1.300000000000000000e+01,1.900000000000000000e+01,3.000000000000000000e+00,2.000000000000000000e+00,-6.000000000000000000e+00,-1.000000000000000000e+00,3.966674804687500000e-01,3.263549804687500000e-01,-8.341674804687500000e-01,2.008056640625000000e-01
-2.000000000000000000e+01,-2.400000000000000000e+01,-3.800000000000000000e+01,-2.900000000000000000e+01,-9.000000000000000000e+00,-2.000000000000000000e+00,1.600000000000000000e+01,0.000000000000000000e+00,3.966674804687500000e-01,3.263549804687500000e-01,-8.341674804687500000e-01,2.008056640625000000e-01
-4.000000000000000000e+00,-5.000000000000000000e+00,8.000000000000000000e+00,0.000000000000000000e+00,-1.300000000000000000e+01,1.000000000000000000e+00,3.200000000000000000e+01,-3.000000000000000000e+00,3.966674804687500000e-01,3.263549804687500000e-01,-8.341674804687500000e-01,2.008056640625000000e-01
-8.000000000000000000e+00,-9.000000000000000000e+00,-3.000000000000000000e+00,4.000000000000000000e+00,-1.000000000000000000e+00,-8.000000000000000000e+00,-1.100000000000000000e+01,-4.000000000000000000e+00,3.966674804687500000e-01,3.263549804687500000e-01,-8.341674804687500000e-01,2.008056640625000000e-01
2.000000000000000000e+00,9.000000000000000000e+00,8.000000000000000000e+00,-3.000000000000000000e+00,-3.000000000000000000e+00,-2.000000000000000000e+00,-7.000000000000000000e+00,-5.000000000000000000e+00,3.960571289062500000e-01,3.269653320312500000e-01,-8.341674804687500000e-01,2.008666992187500000e-01
1.300000000000000000e+01,1.100000000000000000e+01,3.000000000000000000e+00,3.000000000000000000e+00,3.000000000000000000e+00,7.000000000000000000e+00,3.100000000000000000e+01,7.000000000000000000e+00,3.960571289062500000e-01,3.269653320312500000e-01,-8.341674804687500000e-01,2.008666992187500000e-01
-1.000000000000000000e+00,0.000000000000000000e+00,8.000000000000000000e+00,1.000000000000000000e+00,-1.500000000000000000e+01,-4.000000000000000000e+00,-4.000000000000000000e+00,0.000000000000000000e+00,3.960571289062500000e-01,3.269653320312500000e-01,-8.341674804687500000e-01,2.008666992187500000e-01
-3.000000000000000000e+00,-4.000000000000000000e+00,-1.000000000000000000e+00,5.000000000000000000e+00,2.400000000000000000e+01,4.000000000000000000e+00,-6.000000000000000000e+00,0.000000000000000000e+00,3.960571289062500000e-01,3.269653320312500000e-01,-8.341674804687500000e-01,2.008666992187500000e-01
3.000000000000000000e+00,-1.000000000000000000e+00,-1.300000000000000000e+01,-1.000000000000000000e+00,-4.000000000000000000e+00,-3.000000000000000000e+00,2.000000000000000000e+00,0.000000000000000000e+00,3.954467773437500000e-01,3.275146484375000000e-01,-8.342895507812500000e-01,2.008666992187500000e-01
4.000000000000000000e+00,-2.000000000000000000e+00,1.000000000000000000e+00,4.000000000000000000e+00,6.000000000000000000e+00,-3.000000000000000000e+00,-1.100000000000000000e+01,-3.000000000000000000e+00,3.954467773437500000e-01,3.275146484375000000e-01,-8.342895507812500000e-01,2.008666992187500000e-01
-3.000000000000000000e+00,-2.000000000000000000e+00,-5.000000000000000000e+00,-9.000000000000000000e+00,-6.000000000000000000e+00,-5.000000000000000000e+00,-5.000000000000000000e+00,-3.000000000000000000e+00,3.954467773437500000e-01,3.275146484375000000e-01,-8.342895507812500000e-01,2.008666992187500000e-01
-1.000000000000000000e+00,2.000000000000000000e+00,-1.000000000000000000e+00,-7.000000000000000000e+00,-6.000000000000000000e+00,1.000000000000000000e+00,-4.000000000000000000e+00,-4.000000000000000000e+00,3.954467773437500000e-01,3.275146484375000000e-01,-8.342895507812500000e-01,2.008666992187500000e-01
0.000000000000000000e+00,-3.000000000000000000e+00,-1.000000000000000000e+01,-6.000000000000000000e+00,-9.000000000000000000e+00,-5.000000000000000000e+00,-1.100000000000000000e+01,1.000000000000000000e+00,3.948974609375000000e-01,3.278808593750000000e-01,-8.344116210937500000e-01,2.009277343750000000e-01
1.200000000000000000e+01,1.700000000000000000e+01,1.300000000000000000e+01,2.400000000000000000e+01,2.200000000000000000e+01,8.000000000000000000e+00,-1.000000000000000000e+00,1.000000000000000000e+00,3.948974609375000000e-01,3.278808593750000000e-01,-8.344116210937500000e-01,2.009277343750000000e-01
-1.100000000000000000e+01,-1.300000000000000000e+01,-3.800000000000000000e+01,-2.600000000000000000e+01,-8.000000000000000000e+00,-5.000000000000000000e+00,-1.100000000000000000e+01,-1.000000000000000000e+00,3.948974609375000000e-01,3.278808593750000000e-01,-8.344116210937500000e-01,2.009277343750000000e-01
-1.100000000000000000e+01,-1.400000000000000000e+01,-8.000000000000000000e+00,-3.000000000000000000e+00,-6.000000000000000000e+00,-4.000000000000000000e+00,0.000000000000000000e+00,-2.000000000000000000e+00,3.948974609375000000e-01,3.278808593750000000e-01,-8.344116210937500000e-01,2.009277343750000000e-01
-4.000000000000000000e+00,-1.400000000000000000e+01,0.000000000000000000e+00,-6.000000000000000000e+00,-2.000000000000000000e+00,-2.000000000000000000e+00,4.000000000000000000e+00,-2.000000000000000000e+00,3.944091796875000000e-01,3.280639648437500000e-01,-8.345336914062500000e-01,2.009887695312500000e-01
-2.000000000000000000e+00,-6.000000000000000000e+00,4.000000000000000000e+00,-5.000000000000000000e+00,-1.000000000000000000e+01,-5.000000000000000000e+00,-9.000000000000000000e+00,-3.000000000000000000e+00,3.944091796875000000e-01,3.280639648437500000e-01,-8.345336914062500000e-01,2.009887695312500000e-01
1.000000000000000000e+01,1.600000000000000000e+01,1.000000000000000000e+01,1.800000000000000000e+01,3.000000000000000000e+00,2.000000000000000000e+00,2.000000000000000000e+00,1.000000000000000000e+00,3.944091796875000000e-01,3.280639648437500000e-01,-8.345336914062500000e-01,2.009887695312500000e-01
2.000000000000000000e+00,0.000000000000000000e+00,5.000000000000000000e+00,-6.000000000000000000e+00,6.000000000000000000e+00,1.000000000000000000e+00,-1.100000000000000000e+01,-3.000000000000000000e+00,3.944091796875000000e-01,3.280639648437500000e-01,-8.345336914062500000e-01,2.009887695312500000e-01
-1.000000000000000000e+00,-1.000000000000000000e+00,-1.000000000000000000e+01,-3.000000000000000000e+00,-1.100000000000000000e+01,-9.000000000000000000e+00,-1.900000000000000000e+01,-3.000000000000000000e+00,3.942260742187500000e-01,3.280639648437500000e-01,-8.345947265625000000e-01,2.011108398437500000e-01
-5.000000000000000000e+00,5.000000000000000000e+00,5.000000000000000000e+00,-8.000000000000000000e+00,0.000000000000000000e+00,4.000000000000000000e+00,1.700000000000000000e+01,1.000000000000000000e+00,3.942260742187500000e-01,3.280639648437500000e-01,-8.345947265625000000e-01,2.011108398437500000e-01
0.000000000000000000e+00,-2.000000000000000000e+00,1.000000000000000000e+00,6.000000000000000000e+00,2.000000000000000000e+00,-4.000000000000000000e+00,-1.100000000000000000e+01,0.000000000000000000e+00,3.942260742187500000e-01,3.280639648437500000e-01,-8.345947265625000000e-01,2.011108398437500000e-01
-2.000000000000000000e+00,-1.000000000000000000e+00,-9.000000000000000000e+00,-8.000000000000000000e+00,-1.000000000000000000e+00,-3.000000000000000000e+00,-1.000000000000000000e+00,2.000000000000000000e+00,3.942260742187500000e-01,3.280639648437500000e-01,-8.345947265625000000e-01,2.011108398437500000e-01
2.000000000000000000e+00,1.000000000000000000e+00,1.400000000000000000e+01,1.300000000000000000e+01,8.000000000000000000e+00,4.000000000000000000e+00,1.000000000000000000e+01,3.000000000000000000e+00,3.939208984375000000e-01,3.278198242187500000e-01,-8.347167968750000000e-01,2.014770507812500000e-01
4.000000000000000000e+00,5.000000000000000000e+00,1.000000000000000000e+00,3.000000000000000000e+00,-1.200000000000000000e+01,-6.000000000000000000e+00,-1.100000000000000000e+01,-3.000000000000000000e+00,3.939208984375000000e-01,3.278198242187500000e-01,-8.347167968750000000e-01,2.014770507812500000e-01
-3.000000000000000000e+00,-5.000000000000000000e+00,5.000000000000000000e+00,-2.000000000000000000e+01,-4.000000000000000000e+00,0.000000000000000000e+00,-9.000000000000000000e+00,-2.000000000000000000e+00,3.939208984375000000e-01,3.278198242187500000e-01,-8.347167968750000000e-01,2.014770507812500000e-01
2.000000000000000000e+00,1.000000000000000000e+00,-1.000000000000000000e+01,3.700000000000000000e+01,1.600000000000000000e+01,1.000000000000000000e+00,6.000000000000000000e+00,1.000000000000000000e+00,3.939208984375000000e-01,3.278198242187500000e-01,-8.347167968750000000e-01,2.014770507812500000e-01
