-3.000000000000000000e+00,-2.000000000000000000e+00,7.000000000000000000e+00,-1.000000000000000000e+01,-1.000000000000000000e+00,1.000000000000000000e+00,1.000000000000000000e+00,1.000000000000000000e+00,-3.812255859375000000e-01,3.578491210937500000e-01,4.798583984375000000e-01,7.044067382812500000e-01
0.000000000000000000e+00,5.000000000000000000e+00,1.100000000000000000e+01,7.000000000000000000e+00,-1.000000000000000000e+00,-1.000000000000000000e+00,0.000000000000000000e+00,-2.000000000000000000e+00,-3.812255859375000000e-01,3.578491210937500000e-01,4.798583984375000000e-01,7.044067382812500000e-01
6.000000000000000000e+00,-4.000000000000000000e+00,2.200000000000000000e+01,1.000000000000000000e+00,-4.000000000000000000e+00,1.000000000000000000e+00,-5.000000000000000000e+00,-4.000000000000000000e+00,-3.812866210937500000e-01,3.572387695312500000e-01,4.800415039062500000e-01,7.046508789062500000e-01
3.000000000000000000e+00,0.000000000000000000e+00,-1.100000000000000000e+01,-5.000000000000000000e+00,-1.000000000000000000e+00,6.000000000000000000e+00,3.000000000000000000e+00,5.000000000000000000e+00,-3.812866210937500000e-01,3.572387695312500000e-01,4.800415039062500000e-01,7.046508789062500000e-01
4.000000000000000000e+00,1.000000000000000000e+00,-3.000000000000000000e+00,-9.000000000000000000e+00,-5.000000000000000000e+00,0.000000000000000000e+00,-2.000000000000000000e+00,2.000000000000000000e+00,-3.812866210937500000e-01,3.572387695312500000e-01,4.800415039062500000e-01,7.046508789062500000e-01
1.000000000000000000e+00,-2.000000000000000000e+00,-3.000000000000000000e+00,6.000000000000000000e+00,0.000000000000000000e+00,1.000000000000000000e+00,0.000000000000000000e+00,2.000000000000000000e+00,-3.812866210937500000e-01,3.572387695312500000e-01,4.800415039062500000e-01,7.046508789062500000e-01
-5.000000000000000000e+00,2.000000000000000000e+00,1.100000000000000000e+01,-2.000000000000000000e+00,-1.000000000000000000e+00,2.000000000000000000e+00,0.000000000000000000e+00,-6.000000000000000000e+00,-3.810424804687500000e-01,3.569335937500000000e-01,4.798583984375000000e-01,7.050781250000000000e-01
-1.000000000000000000e+00,-2.000000000000000000e+00,-2.200000000000000000e+01,-1.400000000000000000e+01,1.000000000000000000e+00,0.000000000000000000e+00,2.000000000000000000e+00,1.000000000000000000e+01,-3.810424804687500000e-01,3.569335937500000000e-01,4.798583984375000000e-01,7.050781250000000000e-01
-1.500000000000000000e+01,-1.400000000000000000e+01,-6.000000000000000000e+00,2.800000000000000000e+01,-2.000000000000000000e+00,-2.000000000000000000e+00,-4.000000000000000000e+00,-1.500000000000000000e+01,-3.810424804687500000e-01,3.569335937500000000e-01,4.798583984375000000e-01,7.050781250000000000e-01
8.000000000000000000e+00,6.000000000000000000e+00,9.000000000000000000e+00,-1.600000000000000000e+01,0.000000000000000000e+00,2.000000000000000000e+00,1.000000000000000000e+00,9.000000000000000000e+00,-3.810424804687500000e-01,3.569335937500000000e-01,4.798583984375000000e-01,7.050781250000000000e-01
-1.400000000000000000e+01,-6.000000000000000000e+00,-1.200000000000000000e+01,-6.000000000000000000e+00,-7.000000000000000000e+00,-9.000000000000000000e+00,-6.000000000000000000e+00,-1.100000000000000000e+01,-3.805541992187500000e-01,3.567504882812500000e-01,4.796752929687500000e-01,7.055664062500000000e-01
3.000000000000000000e+00,-5.000000000000000000e+00,-1.000000000000000000e+01,-5.000000000000000000e+00,-6.000000000000000000e+00,-2.000000000000000000e+00,2.000000000000000000e+00,0.000000000000000000e+00,-3.805541992187500000e-01,3.567504882812500000e-01,4.796752929687500000e-01,7.055664062500000000e-01
-1.000000000000000000e+00,2.000000000000000000e+00,-5.000000000000000000e+00,-2.000000000000000000e+00,-1.000000000000000000e+00,-3.000000000000000000e+00,0.000000000000000000e+00,5.000000000000000000e+00,-3.805541992187500000e-01,3.567504882812500000e-01,4.796752929687500000e-01,7.055664062500000000e-01
0.000000000000000000e+00,2.000000000000000000e+00,4.000000000000000000e+00,2.000000000000000000e+01,2.000000000000000000e+00,0.000000000000000000e+00,0.000000000000000000e+00,-6.000000000000000000e+00,-3.805541992187500000e-01,3.567504882812500000e-01,4.796752929687500000e-01,7.055664062500000000e-01
-5.000000000000000000e+00,0.000000000000000000e+00,7.000000000000000000e+00,1.000000000000000000e+00,0.000000000000000000e+00,-1.000000000000000000e+00,-2.000000000000000000e+00,-2.000000000000000000e+00,-3.807983398437500000e-01,3.562011718750000000e-01,4.800415039062500000e-01,7.054443359375000000e-01
0.000000000000000000e+00,1.000000000000000000e+00,1.000000000000000000e+01,-3.000000000000000000e+00,0.000000000000000000e+00,-1.000000000000000000e+00,0.000000000000000000e+00,0.000000000000000000e+00,-3.807983398437500000e-01,3.562011718750000000e-01,4.800415039062500000e-01,7.054443359375000000e-01
-4.000000000000000000e+00,-6.000000000000000000e+00,-3.000000000000000000e+00,-9.000000000000000000e+00,0.000000000000000000e+00,1.000000000000000000e+00,-2.000000000000000000e+00,3.000000000000000000e+00,-3.807983398437500000e-01,3.562011718750000000e-01,4.800415039062500000e-01,7.054443359375000000e-01
-7.000000000000000000e+00,1.000000000000000000e+00,2.400000000000000000e+01,9.000000000000000000e+00,-1.000000000000000000e+00,-4.000000000000000000e+00,-2.000000000000000000e+00,-3.000000000000000000e+00,-3.807983398437500000e-01,3.562011718750000000e-01,4.800415039062500000e-01,7.054443359375000000e-01
3.100000000000000000e+01,1.000000000000000000e+00,-2.700000000000000000e+01,-2.000000000000000000e+00,-2.000000000000000000e+00,-3.000000000000000000e+00,-1.000000000000000000e+00,3.000000000000000000e+00,-3.810424804687500000e-01,3.555297851562500000e-01,4.802246093750000000e-01,7.055053710937500000e-01
-1.600000000000000000e+01,-2.000000000000000000e+00,-1.500000000000000000e+01,0.000000000000000000e+00,0.000000000000000000e+00,-2.000000000000000000e+00,-2.000000000000000000e+00,-7.000000000000000000e+00,-3.810424804687500000e-01,3.555297851562500000e-01,4.802246093750000000e-01,7.055053710937500000e-01
1.200000000000000000e+01,4.000000000000000000e+00,-1.700000000000000000e+01,-4.100000000000000000e+01,-5.000000000000000000e+00,0.000000000000000000e+00,3.000000000000000000e+00,5.000000000000000000e+00,-3.810424804687500000e-01,3.555297851562500000e-01,4.802246093750000000e-01,7.055053710937500000e-01
-9.000000000000000000e+00,-6.000000000000000000e+00,2.200000000000000000e+01,5.900000000000000000e+01,8.000000000000000000e+00,-3.000000000000000000e+00,-5.000000000000000000e+00,-1.000000000000000000e+01,-3.810424804687500000e-01,3.555297851562500000e-01,4.802246093750000000e-01,7.055053710937500000e-01
-8.000000000000000000e+00,0.000000000000000000e+00,8.000000000000000000e+00,-3.100000000000000000e+01,-1.000000000000000000e+01,-2.000000000000000000e+00,3.000000000000000000e+00,0.000000000000000000e+00,-3.811645507812500000e-01,3.548583984375000000e-01,4.803466796875000000e-01,7.056884765625000000e-01
4.000000000000000000e+00,-1.000000000000000000e+00,1.300000000000000000e+01,3.000000000000000000e+00,1.000000000000000000e+00,-1.000000000000000000e+00,-2.000000000000000000e+00,1.000000000000000000e+00,-3.811645507812500000e-01,3.548583984375000000e-01,4.803466796875000000e-01,7.056884765625000000e-01
1.000000000000000000e+00,-1.000000000000000000e+00,-2.500000000000000000e+01,-2.700000000000000000e+01,-7.000000000000000000e+00,-5.000000000000000000e+00,-4.000000000000000000e+00,-2.000000000000000000e+00,-3.811645507812500000e-01,3.548583984375000000e-01,4.803466796875000000e-01,7.056884765625000000e-01
-2.000000000000000000e+00,0.000000000000000000e+00,1.000000000000000000e+00,7.000000000000000000e+00,4.000000000000000000e+00,3.000000000000000000e+00,3.000000000000000000e+00,0.000000000000000000e+00,-3.811645507812500000e-01,3.548583984375000000e-01,4.803466796875000000e-01,7.056884765625000000e-01
-6.000000000000000000e+00,5.000000000000000000e+00,4.000000000000000000e+00,9.000000000000000000e+00,4.000000000000000000e+00,1.000000000000000000e+00,2.000000000000000000e+00,1.000000000000000000e+00,-3.811035156250000000e-01,3.547363281250000000e-01,4.802856445312500000e-01,7.058105468750000000e-01
1.000000000000000000e+00,-1.000000000000000000e+00,1.300000000000000000e+01,5.000000000000000000e+00,-1.000000000000000000e+00,-3.000000000000000000e+00,-4.000000000000000000e+00,-5.000000000000000000e+00,-3.811035156250000000e-01,3.547363281250000000e-01,4.802856445312500000e-01,7.058105468750000000e-01
-1.000000000000000000e+00,2.000000000000000000e+00,-6.000000000000000000e+00,0.000000000000000000e+00,0.000000000000000000e+00,-2.000000000000000000e+00,2.000000000000000000e+00,4.000000000000000000e+00,-3.811035156250000000e-01,3.547363281250000000e-01,4.802856445312500000e-01,7.058105468750000000e-01
6.000000000000000000e+00,-3.000000000000000000e+00,-1.500000000000000000e+01,-1.600000000000000000e+01,-4.000000000000000000e+00,-4.000000000000000000e+00,-2.000000000000000000e+00,-1.000000000000000000e+00,-3.811035156250000000e-01,3.547363281250000000e-01,4.802856445312500000e-01,7.058105468750000000e-01
-3.000000000000000000e+00,-3.000000000000000000e+00,-3.000000000000000000e+00,9.000000000000000000e+00,1.000000000000000000e+00,0.000000000000000000e+00,-1.000000000000000000e+00,0.000000000000000000e+00,-3.804321289062500000e-01,3.549804687500000000e-01,4.797363281250000000e-01,7.064208984375000000e-01
3.000000000000000000e+00,-3.000000000000000000e+00,9.000000000000000000e+00,-1.200000000000000000e+01,-1.000000000000000000e+00,0.000000000000000000e+00,-2.000000000000000000e+00,3.000000000000000000e+00,-3.804321289062500000e-01,3.549804687500000000e-01,4.797363281250000000e-01,7.064208984375000000e-01
-1.300000000000000000e+01,0.000000000000000000e+00,8.000000000000000000e+00,1.500000000000000000e+01,1.000000000000000000e+00,-2.000000000000000000e+00,-2.000000000000000000e+00,-6.000000000000000000e+00,-3.804321289062500000e-01,3.549804687500000000e-01,4.797363281250000000e-01,7.064208984375000000e-01
9.000000000000000000e+00,4.000000000000000000e+00,-1.000000000000000000e+01,-9.000000000000000000e+00,-5.000000000000000000e+00,-3.000000000000000000e+00,-3.000000000000000000e+00,-1.200000000000000000e+01,-3.804321289062500000e-01,3.549804687500000000e-01,4.797363281250000000e-01,7.064208984375000000e-01
-2.000000000000000000e+00,3.000000000000000000e+00,4.000000000000000000e+00,1.700000000000000000e+01,4.000000000000000000e+00,4.000000000000000000e+00,9.000000000000000000e+00,-1.000000000000000000e+00,-3.800048828125000000e-01,3.547363281250000000e-01,4.796752929687500000e-01,7.068481445312500000e-01
-1.000000000000000000e+00,-5.000000000000000000e+00,-3.000000000000000000e+00,-1.100000000000000000e+01,-1.000000000000000000e+00,0.000000000000000000e+00,0.000000000000000000e+00,-3.000000000000000000e+00,-3.800048828125000000e-01,3.547363281250000000e-01,4.796752929687500000e-01,7.068481445312500000e-01
5.000000000000000000e+00,1.000000000000000000e+00,1.600000000000000000e+01,-6.000000000000000000e+00,-5.000000000000000000e+00,-2.000000000000000000e+00,-2.000000000000000000e+00,6.000000000000000000e+00,-3.800048828125000000e-01,3.547363281250000000e-01,4.796752929687500000e-01,7.068481445312500000e-01
-7.000000000000000000e+00,-4.000000000000000000e+00,-2.000000000000000000e+00,-1.000000000000000000e+00,-4.000000000000000000e+00,-2.000000000000000000e+00,-2.000000000000000000e+00,-1.000000000000000000e+00,-3.800048828125000000e-01,3.547363281250000000e-01,4.796752929687500000e-01,7.068481445312500000e-01
-3.000000000000000000e+00,2.000000000000000000e+00,-1.000000000000000000e+00,-9.000000000000000000e+00,-2.000000000000000000e+00,-3.000000000000000000e+00,-5.000000000000000000e+00,-3.000000000000000000e+00,-3.795776367187500000e-01,3.544311523437500000e-01,4.801025390625000000e-01,7.069091796875000000e-01
6.000000000000000000e+00,-2.000000000000000000e+00,-1.600000000000000000e+01,-2.000000000000000000e+00,0.000000000000000000e+00,1.000000000000000000e+00,3.000000000000000000e+00,5.000000000000000000e+00,-3.795776367187500000e-01,3.544311523437500000e-01,4.801025390625000000e-01,7.069091796875000000e-01
-7.000000000000000000e+00,-1.000000000000000000e+00,2.300000000000000000e+01,2.400000000000000000e+01,0.000000000000000000e+00,-3.000000000000000000e+00,-4.000000000000000000e+00,-8.000000000000000000e+00,-3.795776367187500000e-01,3.544311523437500000e-01,4.801025390625000000e-01,7.069091796875000000e-01
-1.000000000000000000e+00,-3.000000000000000000e+00,-2.700000000000000000e+01,-1.200000000000000000e+01,-3.000000000000000000e+00,-2.000000000000000000e+00,-1.000000000000000000e+00,2.000000000000000000e+00,-3.795776367187500000e-01,3.544311523437500000e-01,4.801025390625000000e-01,7.069091796875000000e-01
-4.000000000000000000e+00,-4.000000000000000000e+00,1.000000000000000000e+00,8.000000000000000000e+00,-2.000000000000000000e+00,-3.000000000000000000e+00,-2.000000000000000000e+00,-4.000000000000000000e+00,-3.799438476562500000e-01,3.541259765625000000e-01,4.808959960937500000e-01,7.062988281250000000e-01
-3.000000000000000000e+00,1.000000000000000000e+00,8.000000000000000000e+00,6.000000000000000000e+00,1.000000000000000000e+00,-1.000000000000000000e+00,0.000000000000000000e+00,0.000000000000000000e+00,-3.799438476562500000e-01,3.541259765625000000e-01,4.808959960937500000e-01,7.062988281250000000e-01
2.000000000000000000e+00,1.000000000000000000e+00,-6.000000000000000000e+00,-8.000000000000000000e+00,0.000000000000000000e+00,0.000000000000000000e+00,-1.000000000000000000e+00,0.000000000000000000e+00,-3.799438476562500000e-01,3.541259765625000000e-01,4.808959960937500000e-01,7.062988281250000000e-01
2.000000000000000000e+00,1.000000000000000000e+00,1.000000000000000000e+00,-2.000000000000000000e+00,2.000000000000000000e+00,0.000000000000000000e+00,-1.000000000000000000e+00,-2.000000000000000000e+00,-3.799438476562500000e-01,3.541259765625000000e-01,4.808959960937500000e-01,7.062988281250000000e-01
0.000000000000000000e+00,0.000000000000000000e+00,-7.000000000000000000e+00,-5.000000000000000000e+00,0.000000000000000000e+00,1.000000000000000000e+00,-1.000000000000000000e+00,2.000000000000000000e+00,-3.809204101562500000e-01,3.535766601562500000e-01,4.816284179687500000e-01,7.055664062500000000e-01
1.000000000000000000e+00,2.000000000000000000e+00,2.100000000000000000e+01,-5.000000000000000000e+00,2.000000000000000000e+00,2.000000000000000000e+00,0.000000000000000000e+00,0.000000000000000000e+00,-3.809204101562500000e-01,3.535766601562500000e-01,4.816284179687500000e-01,7.055664062500000000e-01
-3.000000000000000000e+00,-6.000000000000000000e+00,-6.000000000000000000e+00,1.600000000000000000e+01,-4.000000000000000000e+00,-1.000000000000000000e+00,-2.000000000000000000e+00,-6.000000000000000000e+00,-3.809204101562500000e-01,3.535766601562500000e-01,4.816284179687500000e-01,7.055664062500000000e-01
7.000000000000000000e+00,-8.000000000000000000e+00,-3.200000000000000000e+01,-2.000000000000000000e+01,-6.000000000000000000e+00,-6.000000000000000000e+00,-2.000000000000000000e+00,3.000000000000000000e+00,-3.809204101562500000e-01,3.535766601562500000e-01,4.816284179687500000e-01,7.055664062500000000e-01
-2.600000000000000000e+01,-2.000000000000000000e+00,4.000000000000000000e+00,1.000000000000000000e+00,-4.000000000000000000e+00,-5.000000000000000000e+00,-4.000000000000000000e+00,-1.000000000000000000e+01,-3.810424804687500000e-01,3.532714843750000000e-01,4.817504882812500000e-01,7.055664062500000000e-01
9.000000000000000000e+00,1.000000000000000000e+00,-7.000000000000000000e+00,0.000000000000000000e+00,1.000000000000000000e+00,1.000000000000000000e+00,1.000000000000000000e+00,6.000000000000000000e+00,-3.810424804687500000e-01,3.532714843750000000e-01,4.817504882812500000e-01,7.055664062500000000e-01
1.000000000000000000e+00,0.000000000000000000e+00,7.000000000000000000e+00,-2.000000000000000000e+00,0.000000000000000000e+00,-1.000000000000000000e+00,-2.000000000000000000e+00,3.000000000000000000e+00,-3.810424804687500000e-01,3.532714843750000000e-01,4.817504882812500000e-01,7.055664062500000000e-01
8.000000000000000000e+00,-1.000000000000000000e+00,1.200000000000000000e+01,6.000000000000000000e+00,2.000000000000000000e+00,2.000000000000000000e+00,3.000000000000000000e+00,8.000000000000000000e+00,-3.810424804687500000e-01,3.532714843750000000e-01,4.817504882812500000e-01,7.055664062500000000e-01
-2.000000000000000000e+00,-2.000000000000000000e+00,0.000000000000000000e+00,2.400000000000000000e+01,5.000000000000000000e+00,2.000000000000000000e+00,0.000000000000000000e+00,-4.000000000000000000e+00,-3.804931640625000000e-01,3.534545898437500000e-01,4.817504882812500000e-01,7.058105468750000000e-01
-7.000000000000000000e+00,1.000000000000000000e+00,-6.000000000000000000e+00,-3.000000000000000000e+01,-9.000000000000000000e+00,-5.000000000000000000e+00,-3.000000000000000000e+00,-1.200000000000000000e+01,-3.804931640625000000e-01,3.534545898437500000e-01,4.817504882812500000e-01,7.058105468750000000e-01
-4.000000000000000000e+00,-6.000000000000000000e+00,-2.700000000000000000e+01,-2.100000000000000000e+01,-3.000000000000000000e+00,-4.000000000000000000e+00,-6.000000000000000000e+00,-2.000000000000000000e+00,-3.804931640625000000e-01,3.534545898437500000e-01,4.817504882812500000e-01,7.058105468750000000e-01
-5.000000000000000000e+00,-3.000000000000000000e+00,2.400000000000000000e+01,2.300000000000000000e+01,-5.000000000000000000e+00,-1.000000000000000000e+00,-1.000000000000000000e+00,-2.000000000000000000e+00,-3.804931640625000000e-01,3.534545898437500000e-01,4.817504882812500000e-01,7.058105468750000000e-01
4.000000000000000000e+00,1.000000000000000000e+00,0.000000000000000000e+00,-8.000000000000000000e+00,1.000000000000000000e+00,0.000000000000000000e+00,1.000000000000000000e+00,3.000000000000000000e+00,-3.795776367187500000e-01,3.536987304687500000e-01,4.819335937500000000e-01,7.060546875000000000e-01
-3.000000000000000000e+00,-1.000000000000000000e+00,-1.300000000000000000e+01,1.800000000000000000e+01,4.000000000000000000e+00,2.000000000000000000e+00,-1.000000000000000000e+00,-2.000000000000000000e+00,-3.795776367187500000e-01,3.536987304687500000e-01,4.819335937500000000e-01,7.060546875000000000e-01
5.000000000000000000e+00,-1.000000000000000000e+00,-4.000000000000000000e+00,-2.400000000000000000e+01,-2.000000000000000000e+00,0.000000000000000000e+00,3.000000000000000000e+00,3.000000000000000000e+00,-3.795776367187500000e-01,3.536987304687500000e-01,4.819335937500000000e-01,7.060546875000000000e-01
-8.000000000000000000e+00,-1.000000000000000000e+00,2.300000000000000000e+01,1.400000000000000000e+01,1.000000000000000000e+00,-3.000000000000000000e+00,-6.000000000000000000e+00,-7.000000000000000000e+00,-3.795776367187500000e-01,3.536987304687500000e-01,4.819335937500000000e-01,7.060546875000000000e-01
4.000000000000000000e+00,-2.000000000000000000e+00,-2.400000000000000000e+01,-2.300000000000000000e+01,-4.000000000000000000e+00,2.000000000000000000e+00,0.000000000000000000e+00,3.000000000000000000e+00,-3.790893554687500000e-01,3.536987304687500000e-01,4.825439453125000000e-01,7.058715820312500000e-01
-7.000000000000000000e+00,-4.000000000000000000e+00,1.000000000000000000e+01,1.600000000000000000e+01,-1.000000000000000000e+00,-3.000000000000000000e+00,-1.000000000000000000e+00,-2.000000000000000000e+00,-3.790893554687500000e-01,3.536987304687500000e-01,4.825439453125000000e-01,7.058715820312500000e-01
2.000000000000000000e+00,-1.000000000000000000e+00,-1.100000000000000000e+01,-1.300000000000000000e+01,0.000000000000000000e+00,0.000000000000000000e+00,0.000000000000000000e+00,-2.000000000000000000e+00,-3.790893554687500000e-01,3.536987304687500000e-01,4.825439453125000000e-01,7.058715820312500000e-01
-2.000000000000000000e+00,0.000000000000000000e+00,-7.000000000000000000e+00,0.000000000000000000e+00,2.000000000000000000e+00,1.000000000000000000e+00,1.000000000000000000e+00,-4.000000000000000000e+00,-3.790893554687500000e-01,3.536987304687500000e-01,4.825439453125000000e-01,7.058715820312500000e-01
2.000000000000000000e+00,-1.000000000000000000e+00,1.200000000000000000e+01,2.000000000000000000e+01,5.000000000000000000e+00,3.000000000000000000e+00,1.000000000000000000e+00,6.000000000000000000e+00,-3.790283203125000000e-01,3.535156250000000000e-01,4.833984375000000000e-01,7.054443359375000000e-01
8.000000000000000000e+00,2.000000000000000000e+00,5.000000000000000000e+01,-8.000000000000000000e+00,-3.000000000000000000e+00,-4.000000000000000000e+00,-1.000000000000000000e+00,0.000000000000000000e+00,-3.790283203125000000e-01,3.535156250000000000e-01,4.833984375000000000e-01,7.054443359375000000e-01
-2.600000000000000000e+01,-8.000000000000000000e+00,-5.600000000000000000e+01,5.000000000000000000e+00,-4.000000000000000000e+00,-4.000000000000000000e+00,-3.000000000000000000e+00,1.000000000000000000e+00,-3.790283203125000000e-01,3.535156250000000000e-01,4.833984375000000000e-01,7.054443359375000000e-01
1.200000000000000000e+01,-1.000000000000000000e+00,-1.000000000000000000e+00,-1.700000000000000000e+01,-2.000000000000000000e+00,0.000000000000000000e+00,-1.000000000000000000e+00,1.000000000000000000e+00,-3.790283203125000000e-01,3.535156250000000000e-01,4.833984375000000000e-01,7.054443359375000000e-01
-2.000000000000000000e+00,-2.000000000000000000e+00,-4.000000000000000000e+00,-9.000000000000000000e+00,-2.000000000000000000e+00,-2.000000000000000000e+00,-2.000000000000000000e+00,-2.000000000000000000e+00,-3.788452148437500000e-01,3.530883789062500000e-01,4.839477539062500000e-01,7.053833007812500000e-01
1.000000000000000000e+00,2.000000000000000000e+00,3.000000000000000000e+00,2.000000000000000000e+00,0.000000000000000000e+00,0.000000000000000000e+00,2.000000000000000000e+00,-2.000000000000000000e+00,-3.788452148437500000e-01,3.530883789062500000e-01,4.839477539062500000e-01,7.053833007812500000e-01
4.000000000000000000e+00,2.000000000000000000e+00,2.900000000000000000e+01,2.800000000000000000e+01,3.000000000000000000e+00,-1.000000000000000000e+00,-1.000000000000000000e+00,-1.000000000000000000e+00,-3.788452148437500000e-01,3.530883789062500000e-01,4.839477539062500000e-01,7.053833007812500000e-01
-4.000000000000000000e+00,3.000000000000000000e+00,-1.400000000000000000e+01,-9.000000000000000000e+00,0.000000000000000000e+00,4.000000000000000000e+00,6.000000000000000000e+00,1.000000000000000000e+00,-3.788452148437500000e-01,3.530883789062500000e-01,4.839477539062500000e-01,7.053833007812500000e-01
0.000000000000000000e+00,-4.000000000000000000e+00,-1.100000000000000000e+01,-1.600000000000000000e+01,-4.000000000000000000e+00,-1.000000000000000000e+00,-1.000000000000000000e+00,3.000000000000000000e+00,-3.782958984375000000e-01,3.529052734375000000e-01,4.843139648437500000e-01,7.055053710937500000e-01
-1.000000000000000000e+01,-7.000000000000000000e+00,8.000000000000000000e+00,2.200000000000000000e+01,-4.000000000000000000e+00,-5.000000000000000000e+00,-7.000000000000000000e+00,-1.500000000000000000e+01,-3.782958984375000000e-01,3.529052734375000000e-01,4.843139648437500000e-01,7.055053710937500000e-01
2.000000000000000000e+00,3.000000000000000000e+00,1.100000000000000000e+01,5.000000000000000000e+00,-1.000000000000000000e+00,0.000000000000000000e+00,0.000000000000000000e+00,-5.000000000000000000e+00,-3.782958984375000000e-01,3.529052734375000000e-01,4.843139648437500000e-01,7.055053710937500000e-01
0.000000000000000000e+00,-1.000000000000000000e+00,-2.100000000000000000e+01,-1.100000000000000000e+01,-2.000000000000000000e+00,-3.000000000000000000e+00,-3.000000000000000000e+00,1.300000000000000000e+01,-3.782958984375000000e-01,3.529052734375000000e-01,4.843139648437500000e-01,7.055053710937500000e-01
4.000000000000000000e+00,0.000000000000000000e+00,6.000000000000000000e+00,-2.000000000000000000e+00,1.000000000000000000e+00,1.000000000000000000e+00,0.000000000000000000e+00,-1.100000000000000000e+01,-3.775634765625000000e-01,3.530883789062500000e-01,4.846191406250000000e-01,7.056274414062500000e-01
-3.000000000000000000e+00,-1.000000000000000000e+00,-1.800000000000000000e+01,1.000000000000000000e+00,4.000000000000000000e+00,-1.000000000000000000e+00,0.000000000000000000e+00,4.000000000000000000e+00,-3.775634765625000000e-01,3.530883789062500000e-01,4.846191406250000000e-01,7.056274414062500000e-01
7.000000000000000000e+00,7.000000000000000000e+00,2.900000000000000000e+01,-6.000000000000000000e+00,1.000000000000000000e+00,1.000000000000000000e+00,2.000000000000000000e+00,4.000000000000000000e+00,-3.775634765625000000e-01,3.530883789062500000e-01,4.846191406250000000e-01,7.056274414062500000e-01
3.000000000000000000e+00,-1.100000000000000000e+01,-1.500000000000000000e+01,3.100000000000000000e+01,-1.000000000000000000e+00,-2.000000000000000000e+00,-3.000000000000000000e+00,-3.000000000000000000e+00,-3.775634765625000000e-01,3.530883789062500000e-01,4.846191406250000000e-01,7.056274414062500000e-01
-1.800000000000000000e+01,-3.000000000000000000e+00,-8.000000000000000000e+00,-4.200000000000000000e+01,-5.000000000000000000e+00,-5.000000000000000000e+00,-1.000000000000000000e+00,-1.000000000000000000e+00,-3.768920898437500000e-01,3.531494140625000000e-01,4.850463867187500000e-01,7.056274414062500000e-01
-5.000000000000000000e+00,1.000000000000000000e+00,1.000000000000000000e+01,1.000000000000000000e+01,1.000000000000000000e+00,-1.000000000000000000e+00,-1.000000000000000000e+00,3.000000000000000000e+00,-3.768920898437500000e-01,3.531494140625000000e-01,4.850463867187500000e-01,7.056274414062500000e-01
5.000000000000000000e+00,0.000000000000000000e+00,-5.000000000000000000e+00,-1.300000000000000000e+01,-4.000000000000000000e+00,-2.000000000000000000e+00,0.000000000000000000e+00,-3.000000000000000000e+00,-3.768920898437500000e-01,3.531494140625000000e-01,4.850463867187500000e-01,7.056274414062500000e-01
-2.000000000000000000e+00,0.000000000000000000e+00,-8.000000000000000000e+00,-9.000000000000000000e+00,3.000000000000000000e+00,2.000000000000000000e+00,0.000000000000000000e+00,1.000000000000000000e+00,-3.768920898437500000e-01,3.531494140625000000e-01,4.850463867187500000e-01,7.056274414062500000e-01
9.000000000000000000e+00,6.000000000000000000e+00,3.500000000000000000e+01,4.400000000000000000e+01,4.000000000000000000e+00,-2.000000000000000000e+00,-2.000000000000000000e+00,1.000000000000000000e+00,-3.768310546875000000e-01,3.527832031250000000e-01,4.858398437500000000e-01,7.052612304687500000e-01
-1.000000000000000000e+00,-3.000000000000000000e+00,-2.900000000000000000e+01,-2.500000000000000000e+01,-5.000000000000000000e+00,-2.000000000000000000e+00,-3.000000000000000000e+00,-8.000000000000000000e+00,-3.768310546875000000e-01,3.527832031250000000e-01,4.858398437500000000e-01,7.052612304687500000e-01
2.000000000000000000e+00,-1.000000000000000000e+00,5.000000000000000000e+00,4.000000000000000000e+00,0.000000000000000000e+00,1.000000000000000000e+00,0.000000000000000000e+00,7.000000000000000000e+00,-3.768310546875000000e-01,3.527832031250000000e-01,4.858398437500000000e-01,7.052612304687500000e-01
-8.000000000000000000e+00,-2.000000000000000000e+00,7.000000000000000000e+00,-7.000000000000000000e+00,0.000000000000000000e+00,1.000000000000000000e+00,0.000000000000000000e+00,-5.000000000000000000e+00,-3.768310546875000000e-01,3.527832031250000000e-01,4.858398437500000000e-01,7.052612304687500000e-01
-1.000000000000000000e+00,-3.000000000000000000e+00,-1.000000000000000000e+01,1.000000000000000000e+00,-1.000000000000000000e+00,1.000000000000000000e+00,-2.000000000000000000e+00,-1.000000000000000000e+00,-3.768920898437500000e-01,3.523559570312500000e-01,4.865112304687500000e-01,7.050170898437500000e-01
-1.000000000000000000e+00,3.000000000000000000e+00,-5.000000000000000000e+00,-4.000000000000000000e+00,-1.000000000000000000e+00,1.000000000000000000e+00,0.000000000000000000e+00,0.000000000000000000e+00,-3.768920898437500000e-01,3.523559570312500000e-01,4.865112304687500000e-01,7.050170898437500000e-01
0.000000000000000000e+00,-1.000000000000000000e+00,1.200000000000000000e+01,1.700000000000000000e+01,-2.000000000000000000e+00,-3.000000000000000000e+00,-2.000000000000000000e+00,-2.000000000000000000e+00,-3.768920898437500000e-01,3.523559570312500000e-01,4.865112304687500000e-01,7.050170898437500000e-01
-5.000000000000000000e+00,1.000000000000000000e+00,-1.100000000000000000e+01,-7.000000000000000000e+00,0.000000000000000000e+00,-4.000000000000000000e+00,-3.000000000000000000e+00,-3.000000000000000000e+00,-3.768920898437500000e-01,3.523559570312500000e-01,4.865112304687500000e-01,7.050170898437500000e-01
-3.000000000000000000e+00,-2.000000000000000000e+00,-7.000000000000000000e+00,-9.000000000000000000e+00,-3.000000000000000000e+00,-3.000000000000000000e+00,-5.000000000000000000e+00,2.000000000000000000e+00,-3.768920898437500000e-01,3.519287109375000000e-01,4.868774414062500000e-01,7.049560546875000000e-01
2.000000000000000000e+00,-1.000000000000000000e+00,-8.000000000000000000e+00,-1.000000000000000000e+00,1.000000000000000000e+00,2.000000000000000000e+00,4.000000000000000000e+00,1.100000000000000000e+01,-3.768920898437500000e-01,3.519287109375000000e-01,4.868774414062500000e-01,7.049560546875000000e-01
-4.000000000000000000e+00,1.000000000000000000e+00,1.700000000000000000e+01,2.000000000000000000e+00,-3.000000000000000000e+00,-4.000000000000000000e+00,-3.000000000000000000e+00,-2.300000000000000000e+01,-3.768920898437500000e-01,3.519287109375000000e-01,4.868774414062500000e-01,7.049560546875000000e-01
-1.000000000000000000e+00,2.000000000000000000e+00,6.000000000000000000e+00,5.000000000000000000e+00,-2.000000000000000000e+00,-3.000000000000000000e+00,-1.000000000000000000e+00,4.000000000000000000e+00,-3.768920898437500000e-01,3.519287109375000000e-01,4.868774414062500000e-01,7.049560546875000000e-01
6.000000000000000000e+00,-4.000000000000000000e+00,-1.600000000000000000e+01,-1.000000000000000000e+01,1.000000000000000000e+00,0.000000000000000000e+00,-1.000000000000000000e+00,1.000000000000000000e+00,-3.768920898437500000e-01,3.518676757812500000e-01,4.868774414062500000e-01,7.049560546875000000e-01
-1.500000000000000000e+01,-3.000000000000000000e+00,-2.000000000000000000e+01,-1.100000000000000000e+01,-4.000000000000000000e+00,-1.000000000000000000e+00,-2.000000000000000000e+00,-2.000000000000000000e+00,-3.768920898437500000e-01,3.518676757812500000e-01,4.868774414062500000e-01,7.049560546875000000e-01
-1.000000000000000000e+00,-6.000000000000000000e+00,-1.500000000000000000e+01,-1.200000000000000000e+01,-3.000000000000000000e+00,1.000000000000000000e+00,-1.000000000000000000e+00,3.000000000000000000e+00,-3.768920898437500000e-01,3.518676757812500000e-01,4.868774414062500000e-01,7.049560546875000000e-01
-1.000000000000000000e+00,5.000000000000000000e+00,1.700000000000000000e+01,-1.300000000000000000e+01,-1.000000000000000000e+00,-2.000000000000000000e+00,-1.000000000000000000e+00,-4.000000000000000000e+00,-3.768920898437500000e-01,3.518676757812500000e-01,4.868774414062500000e-01,7.049560546875000000e-01
2.000000000000000000e+00,-3.000000000000000000e+00,5.000000000000000000e+00,2.200000000000000000e+01,4.000000000000000000e+00,2.000000000000000000e+00,1.000000000000000000e+00,0.000000000000000000e+00,-3.765869140625000000e-01,3.522338867187500000e-01,4.867553710937500000e-01,7.050170898437500000e-01
1.000000000000000000e+00,-2.000000000000000000e+00,1.700000000000000000e+01,2.300000000000000000e+01,-2.000000000000000000e+00,-3.000000000000000000e+00,-5.000000000000000000e+00,1.000000000000000000e+00,-3.765869140625000000e-01,3.522338867187500000e-01,4.867553710937500000e-01,7.050170898437500000e-01
1.000000000000000000e+00,2.000000000000000000e+00,-4.000000000000000000e+00,-4.000000000000000000e+00,0.000000000000000000e+00,-1.000000000000000000e+00,1.000000000000000000e+00,3.000000000000000000e+00,-3.765869140625000000e-01,3.522338867187500000e-01,4.867553710937500000e-01,7.050170898437500000e-01
-4.000000000000000000e+00,-1.000000000000000000e+00,-1.400000000000000000e+01,-1.000000000000000000e+01,-2.000000000000000000e+00,0.000000000000000000e+00,0.000000000000000000e+00,-2.000000000000000000e+00,-3.765869140625000000e-01,3.522338867187500000e-01,4.867553710937500000e-01,7.050170898437500000e-01
3.000000000000000000e+00,0.000000000000000000e+00,2.300000000000000000e+01,1.100000000000000000e+01,-3.000000000000000000e+00,-2.000000000000000000e+00,-3.000000000000000000e+00,0.000000000000000000e+00,-3.765258789062500000e-01,3.522949218750000000e-01,4.868164062500000000e-01,7.050170898437500000e-01
9.000000000000000000e+00,-3.000000000000000000e+00,-1.500000000000000000e+01,-1.100000000000000000e+01,-4.000000000000000000e+00,-2.000000000000000000e+00,-1.000000000000000000e+00,-3.000000000000000000e+00,-3.765258789062500000e-01,3.522949218750000000e-01,4.868164062500000000e-01,7.050170898437500000e-01
-2.000000000000000000e+00,3.000000000000000000e+00,1.500000000000000000e+01,8.000000000000000000e+00,4.000000000000000000e+00,1.000000000000000000e+00,-1.000000000000000000e+00,1.000000000000000000e+00,-3.765258789062500000e-01,3.522949218750000000e-01,4.868164062500000000e-01,7.050170898437500000e-01
-2.000000000000000000e+00,-2.000000000000000000e+00,-6.000000000000000000e+00,2.000000000000000000e+00,0.000000000000000000e+00,-1.000000000000000000e+00,0.000000000000000000e+00,-4.000000000000000000e+00,-3.765258789062500000e-01,3.522949218750000000e-01,4.868164062500000000e-01,7.050170898437500000e-01
-2.000000000000000000e+00,-2.000000000000000000e+00,-2.700000000000000000e+01,-1.200000000000000000e+01,-4.000000000000000000e+00,-2.000000000000000000e+00,6.000000000000000000e+00,7.000000000000000000e+00,-3.770751953125000000e-01,3.518066406250000000e-01,4.869384765625000000e-01,7.048950195312500000e-01
-3.000000000000000000e+00,0.000000000000000000e+00,1.000000000000000000e+01,7.000000000000000000e+00,0.000000000000000000e+00,-4.000000000000000000e+00,-8.000000000000000000e+00,-4.000000000000000000e+00,-3.770751953125000000e-01,3.518066406250000000e-01,4.869384765625000000e-01,7.048950195312500000e-01
2.000000000000000000e+00,-2.000000000000000000e+00,-6.000000000000000000e+00,-1.000000000000000000e+00,-3.000000000000000000e+00,0.000000000000000000e+00,-2.000000000000000000e+00,4.000000000000000000e+00,-3.770751953125000000e-01,3.518066406250000000e-01,4.869384765625000000e-01,7.048950195312500000e-01
0.000000000000000000e+00,4.000000000000000000e+00,1.000000000000000000e+01,1.300000000000000000e+01,2.000000000000000000e+00,0.000000000000000000e+00,3.000000000000000000e+00,1.000000000000000000e+00,-3.770751953125000000e-01,3.518066406250000000e-01,4.869384765625000000e-01,7.048950195312500000e-01
-2.000000000000000000e+00,-5.000000000000000000e+00,0.000000000000000000e+00,-2.200000000000000000e+01,-5.000000000000000000e+00,-3.000000000000000000e+00,-3.000000000000000000e+00,-1.000000000000000000e+00,-3.776855468750000000e-01,3.513183593750000000e-01,4.866943359375000000e-01,7.049560546875000000e-01
-1.000000000000000000e+01,-4.000000000000000000e+00,-6.000000000000000000e+00,-2.000000000000000000e+00,1.000000000000000000e+00,-1.000000000000000000e+00,-2.000000000000000000e+00,-7.000000000000000000e+00,-3.776855468750000000e-01,3.513183593750000000e-01,4.866943359375000000e-01,7.049560546875000000e-01
2.000000000000000000e+00,2.000000000000000000e+00,-1.000000000000000000e+01,2.100000000000000000e+01,3.000000000000000000e+00,4.000000000000000000e+00,5.000000000000000000e+00,4.000000000000000000e+00,-3.776855468750000000e-01,3.513183593750000000e-01,4.866943359375000000e-01,7.049560546875000000e-01
5.000000000000000000e+00,3.000000000000000000e+00,4.000000000000000000e+00,-3.800000000000000000e+01,-3.000000000000000000e+00,0.000000000000000000e+00,-3.000000000000000000e+00,0.000000000000000000e+00,-3.776855468750000000e-01,3.513183593750000000e-01,4.866943359375000000e-01,7.049560546875000000e-01
-4.000000000000000000e+00,-5.000000000000000000e+00,-1.800000000000000000e+01,2.300000000000000000e+01,-2.000000000000000000e+00,-5.000000000000000000e+00,-4.000000000000000000e+00,-6.000000000000000000e+00,-3.779296875000000000e-01,3.512573242187500000e-01,4.862060546875000000e-01,7.052001953125000000e-01
1.000000000000000000e+00,-1.000000000000000000e+00,-4.000000000000000000e+00,2.000000000000000000e+00,0.000000000000000000e+00,0.000000000000000000e+00,-1.000000000000000000e+00,2.000000000000000000e+00,-3.779296875000000000e-01,3.512573242187500000e-01,4.862060546875000000e-01,7.052001953125000000e-01
6.000000000000000000e+00,-2.000000000000000000e+00,3.000000000000000000e+00,-6.000000000000000000e+00,-1.000000000000000000e+00,-1.000000000000000000e+00,-2.000000000000000000e+00,2.000000000000000000e+00,-3.779296875000000000e-01,3.512573242187500000e-01,4.862060546875000000e-01,7.052001953125000000e-01
-1.200000000000000000e+01,0.000000000000000000e+00,9.000000000000000000e+00,9.000000000000000000e+00,0.000000000000000000e+00,-2.000000000000000000e+00,-2.000000000000000000e+00,-3.000000000000000000e+00,-3.779296875000000000e-01,3.512573242187500000e-01,4.862060546875000000e-01,7.052001953125000000e-01
4.000000000000000000e+00,0.000000000000000000e+00,1.000000000000000000e+00,2.000000000000000000e+00,1.000000000000000000e+00,1.000000000000000000e+00,1.000000000000000000e+00,1.000000000000000000e+00,-3.779296875000000000e-01,3.515014648437500000e-01,4.859619140625000000e-01,7.052612304687500000e-01
6.000000000000000000e+00,-3.000000000000000000e+00,-1.700000000000000000e+01,-1.600000000000000000e+01,-2.000000000000000000e+00,-1.000000000000000000e+00,1.000000000000000000e+00,-2.000000000000000000e+00,-3.779296875000000000e-01,3.515014648437500000e-01,4.859619140625000000e-01,7.052612304687500000e-01
-4.000000000000000000e+00,0.000000000000000000e+00,-1.000000000000000000e+00,4.000000000000000000e+00,-2.000000000000000000e+00,-4.000000000000000000e+00,-2.000000000000000000e+00,-1.000000000000000000e+00,-3.779296875000000000e-01,3.515014648437500000e-01,4.859619140625000000e-01,7.052612304687500000e-01
1.000000000000000000e+00,0.000000000000000000e+00,6.000000000000000000e+00,2.000000000000000000e+00,-2.000000000000000000e+00,0.000000000000000000e+00,0.000000000000000000e+00,0.000000000000000000e+00,-3.779296875000000000e-01,3.515014648437500000e-01,4.859619140625000000e-01,7.052612304687500000e-01
-5.000000000000000000e+00,0.000000000000000000e+00,5.000000000000000000e+00,2.000000000000000000e+00,-2.000000000000000000e+00,-1.000000000000000000e+00,-3.000000000000000000e+00,-1.000000000000000000e+00,-3.779296875000000000e-01,3.515014648437500000e-01,4.860229492187500000e-01,7.052612304687500000e-01
-3.000000000000000000e+00,-2.000000000000000000e+00,-7.000000000000000000e+00,-2.400000000000000000e+01,-3.000000000000000000e+00,1.000000000000000000e+00,0.000000000000000000e+00,1.000000000000000000e+00,-3.779296875000000000e-01,3.515014648437500000e-01,4.860229492187500000e-01,7.052612304687500000e-01
1.000000000000000000e+00,-2.000000000000000000e+00,-4.000000000000000000e+00,-7.000000000000000000e+00,0.000000000000000000e+00,2.000000000000000000e+00,1.000000000000000000e+00,-1.000000000000000000e+00,-3.779296875000000000e-01,3.515014648437500000e-01,4.860229492187500000e-01,7.052612304687500000e-01
-1.000000000000000000e+00,0.000000000000000000e+00,-4.000000000000000000e+00,-3.000000000000000000e+00,-1.000000000000000000e+00,-4.000000000000000000e+00,-4.000000000000000000e+00,0.000000000000000000e+00,-3.779296875000000000e-01,3.515014648437500000e-01,4.860229492187500000e-01,7.052612304687500000e-01
4.000000000000000000e+00,4.000000000000000000e+00,1.400000000000000000e+01,3.000000000000000000e+00,0.000000000000000000e+00,0.000000000000000000e+00,0.000000000000000000e+00,-8.000000000000000000e+00,-3.782348632812500000e-01,3.509521484375000000e-01,4.861450195312500000e-01,7.052001953125000000e-01
-4.000000000000000000e+00,-2.000000000000000000e+00,5.000000000000000000e+00,1.000000000000000000e+00,0.000000000000000000e+00,0.000000000000000000e+00,4.000000000000000000e+00,9.000000000000000000e+00,-3.782348632812500000e-01,3.509521484375000000e-01,4.861450195312500000e-01,7.052001953125000000e-01
-1.000000000000000000e+00,-4.000000000000000000e+00,-5.000000000000000000e+00,1.700000000000000000e+01,1.000000000000000000e+00,-3.000000000000000000e+00,-2.000000000000000000e+00,-3.000000000000000000e+00,-3.782348632812500000e-01,3.509521484375000000e-01,4.861450195312500000e-01,7.052001953125000000e-01
-2.000000000000000000e+00,-6.000000000000000000e+00,-3.000000000000000000e+00,-4.600000000000000000e+01,-7.000000000000000000e+00,-2.000000000000000000e+00,-4.000000000000000000e+00,-1.000000000000000000e+00,-3.782348632812500000e-01,3.509521484375000000e-01,4.861450195312500000e-01,7.052001953125000000e-01
3.000000000000000000e+00,2.000000000000000000e+00,5.000000000000000000e+00,-3.000000000000000000e+00,-2.000000000000000000e+00,0.000000000000000000e+00,0.000000000000000000e+00,-3.000000000000000000e+00,-3.784790039062500000e-01,3.505859375000000000e-01,4.863281250000000000e-01,7.051391601562500000e-01
5.000000000000000000e+00,4.000000000000000000e+00,1.500000000000000000e+01,4.600000000000000000e+01,8.000000000000000000e+00,2.000000000000000000e+00,2.000000000000000000e+00,-2.000000000000000000e+00,-3.784790039062500000e-01,3.505859375000000000e-01,4.863281250000000000e-01,7.051391601562500000e-01
-4.000000000000000000e+00,-3.000000000000000000e+00,-1.300000000000000000e+01,-5.400000000000000000e+01,-1.300000000000000000e+01,-2.000000000000000000e+00,1.000000000000000000e+00,1.000000000000000000e+00,-3.784790039062500000e-01,3.505859375000000000e-01,4.863281250000000000e-01,7.051391601562500000e-01
-6.000000000000000000e+00,-1.100000000000000000e+01,-1.000000000000000000e+00,2.900000000000000000e+01,2.000000000000000000e+00,-2.000000000000000000e+00,-3.000000000000000000e+00,-3.000000000000000000e+00,-3.784790039062500000e-01,3.505859375000000000e-01,4.863281250000000000e-01,7.051391601562500000e-01
-2.000000000000000000e+00,2.000000000000000000e+00,3.000000000000000000e+00,-9.000000000000000000e+00,0.000000000000000000e+00,-1.000000000000000000e+00,-2.000000000000000000e+00,0.000000000000000000e+00,-3.786010742187500000e-01,3.505859375000000000e-01,4.861450195312500000e-01,7.052001953125000000e-01
-5.000000000000000000e+00,-1.000000000000000000e+00,1.000000000000000000e+00,0.000000000000000000e+00,1.000000000000000000e+00,3.000000000000000000e+00,4.000000000000000000e+00,-1.000000000000000000e+00,-3.786010742187500000e-01,3.505859375000000000e-01,4.861450195312500000e-01,7.052001953125000000e-01
9.000000000000000000e+00,-2.000000000000000000e+00,-3.000000000000000000e+00,-3.000000000000000000e+00,0.000000000000000000e+00,-2.000000000000000000e+00,-3.000000000000000000e+00,-1.000000000000000000e+00,-3.786010742187500000e-01,3.505859375000000000e-01,4.861450195312500000e-01,7.052001953125000000e-01
1.200000000000000000e+01,2.000000000000000000e+00,-7.000000000000000000e+00,-3.000000000000000000e+00,1.000000000000000000e+00,2.000000000000000000e+00,0.000000000000000000e+00,7.000000000000000000e+00,-3.786010742187500000e-01,3.505859375000000000e-01,4.861450195312500000e-01,7.052001953125000000e-01
-5.000000000000000000e+00,1.000000000000000000e+00,2.000000000000000000e+00,8.000000000000000000e+00,-1.000000000000000000e+00,-3.000000000000000000e+00,-3.000000000000000000e+00,-1.200000000000000000e+01,-3.781738281250000000e-01,3.509521484375000000e-01,4.859008789062500000e-01,7.054443359375000000e-01
-1.300000000000000000e+01,-4.000000000000000000e+00,-1.100000000000000000e+01,-2.700000000000000000e+01,-3.000000000000000000e+00,-1.000000000000000000e+00,-1.000000000000000000e+00,4.000000000000000000e+00,-3.781738281250000000e-01,3.509521484375000000e-01,4.859008789062500000e-01,7.054443359375000000e-01
-5.000000000000000000e+00,1.000000000000000000e+00,2.000000000000000000e+00,1.500000000000000000e+01,3.000000000000000000e+00,1.000000000000000000e+00,1.000000000000000000e+00,-3.000000000000000000e+00,-3.781738281250000000e-01,3.509521484375000000e-01,4.859008789062500000e-01,7.054443359375000000e-01
3.000000000000000000e+00,0.000000000000000000e+00,1.000000000000000000e+00,2.000000000000000000e+00,-3.000000000000000000e+00,-2.000000000000000000e+00,-1.000000000000000000e+00,5.000000000000000000e+00,-3.781738281250000000e-01,3.509521484375000000e-01,4.859008789062500000e-01,7.054443359375000000e-01
4.000000000000000000e+00,2.000000000000000000e+00,-2.000000000000000000e+00,3.400000000000000000e+01,5.000000000000000000e+00,-2.000000000000000000e+00,-1.000000000000000000e+00,2.000000000000000000e+00,-3.773803710937500000e-01,3.511352539062500000e-01,4.856567382812500000e-01,7.059326171875000000e-01
6.000000000000000000e+00,5.000000000000000000e+00,2.200000000000000000e+01,-4.800000000000000000e+01,-6.000000000000000000e+00,2.000000000000000000e+00,5.000000000000000000e+00,-2.000000000000000000e+00,-3.773803710937500000e-01,3.511352539062500000e-01,4.856567382812500000e-01,7.059326171875000000e-01
-4.000000000000000000e+00,-6.000000000000000000e+00,-1.400000000000000000e+01,-3.000000000000000000e+00,-4.000000000000000000e+00,-2.000000000000000000e+00,-2.000000000000000000e+00,-2.000000000000000000e+00,-3.773803710937500000e-01,3.511352539062500000e-01,4.856567382812500000e-01,7.059326171875000000e-01
-9.000000000000000000e+00,-7.000000000000000000e+00,-2.400000000000000000e+01,-2.000000000000000000e+00,1.000000000000000000e+00,0.000000000000000000e+00,0.000000000000000000e+00,-5.000000000000000000e+00,-3.773803710937500000e-01,3.511352539062500000e-01,4.856567382812500000e-01,7.059326171875000000e-01
1.000000000000000000e+00,0.000000000000000000e+00,-1.000000000000000000e+00,-7.000000000000000000e+00,-2.000000000000000000e+00,2.000000000000000000e+00,-3.000000000000000000e+00,5.000000000000000000e+00,-3.769531250000000000e-01,3.514404296875000000e-01,4.855346679687500000e-01,7.060546875000000000e-01
2.000000000000000000e+00,2.000000000000000000e+00,-3.000000000000000000e+00,1.600000000000000000e+01,1.000000000000000000e+00,-4.000000000000000000e+00,-4.000000000000000000e+00,-5.000000000000000000e+00,-3.769531250000000000e-01,3.514404296875000000e-01,4.855346679687500000e-01,7.060546875000000000e-01
-4.000000000000000000e+00,-1.000000000000000000e+00,1.000000000000000000e+01,-2.000000000000000000e+00,0.000000000000000000e+00,0.000000000000000000e+00,-2.000000000000000000e+00,-3.000000000000000000e+00,-3.769531250000000000e-01,3.514404296875000000e-01,4.855346679687500000e-01,7.060546875000000000e-01
4.000000000000000000e+00,-2.000000000000000000e+00,1.700000000000000000e+01,3.700000000000000000e+01,7.000000000000000000e+00,4.000000000000000000e+00,3.000000000000000000e+00,-1.000000000000000000e+00,-3.769531250000000000e-01,3.514404296875000000e-01,4.855346679687500000e-01,7.060546875000000000e-01
-6.000000000000000000e+00,-4.000000000000000000e+00,-2.000000000000000000e+01,-6.300000000000000000e+01,-1.200000000000000000e+01,-5.000000000000000000e+00,-4.000000000000000000e+00,-3.000000000000000000e+00,-3.769531250000000000e-01,3.519897460937500000e-01,4.857177734375000000e-01,7.056884765625000000e-01
-5.000000000000000000e+00,-1.000000000000000000e+01,-1.700000000000000000e+01,1.500000000000000000e+01,-2.000000000000000000e+00,-1.000000000000000000e+00,-3.000000000000000000e+00,-3.000000000000000000e+00,-3.769531250000000000e-01,3.519897460937500000e-01,4.857177734375000000e-01,7.056884765625000000e-01
6.000000000000000000e+00,5.000000000000000000e+00,6.000000000000000000e+00,-1.000000000000000000e+01,-5.000000000000000000e+00,-3.000000000000000000e+00,-2.000000000000000000e+00,-4.000000000000000000e+00,-3.769531250000000000e-01,3.519897460937500000e-01,4.857177734375000000e-01,7.056884765625000000e-01
-2.000000000000000000e+00,0.000000000000000000e+00,-5.000000000000000000e+00,1.700000000000000000e+01,2.000000000000000000e+00,2.000000000000000000e+00,0.000000000000000000e+00,-1.000000000000000000e+00,-3.769531250000000000e-01,3.519897460937500000e-01,4.857177734375000000e-01,7.056884765625000000e-01
1.000000000000000000e+00,0.000000000000000000e+00,1.100000000000000000e+01,-6.000000000000000000e+00,5.000000000000000000e+00,1.000000000000000000e+00,0.000000000000000000e+00,4.000000000000000000e+00,-3.779907226562500000e-01,3.517456054687500000e-01,4.858398437500000000e-01,7.052001953125000000e-01
-7.000000000000000000e+00,-5.000000000000000000e+00,-2.200000000000000000e+01,-2.500000000000000000e+01,-2.000000000000000000e+00,-2.000000000000000000e+00,-2.000000000000000000e+00,-1.100000000000000000e+01,-3.779907226562500000e-01,3.517456054687500000e-01,4.858398437500000000e-01,7.052001953125000000e-01
6.000000000000000000e+00,2.000000000000000000e+00,1.000000000000000000e+00,9.000000000000000000e+00,2.000000000000000000e+00,0.000000000000000000e+00,-1.000000000000000000e+00,9.000000000000000000e+00,-3.779907226562500000e-01,3.517456054687500000e-01,4.858398437500000000e-01,7.052001953125000000e-01
-1.100000000000000000e+01,-2.000000000000000000e+00,3.000000000000000000e+00,-4.000000000000000000e+00,-2.000000000000000000e+00,-2.000000000000000000e+00,1.000000000000000000e+00,0.000000000000000000e+00,-3.779907226562500000e-01,3.517456054687500000e-01,4.858398437500000000e-01,7.052001953125000000e-01
-2.000000000000000000e+00,1.000000000000000000e+00,6.000000000000000000e+00,2.200000000000000000e+01,2.000000000000000000e+00,-1.000000000000000000e+00,3.000000000000000000e+00,-1.500000000000000000e+01,-3.783569335937500000e-01,3.517456054687500000e-01,4.855346679687500000e-01,7.052001953125000000e-01
5.000000000000000000e+00,-1.000000000000000000e+00,-1.000000000000000000e+00,-1.300000000000000000e+01,-4.000000000000000000e+00,-1.000000000000000000e+00,-6.000000000000000000e+00,-2.000000000000000000e+00,-3.783569335937500000e-01,3.517456054687500000e-01,4.855346679687500000e-01,7.052001953125000000e-01
0.000000000000000000e+00,-2.000000000000000000e+00,5.000000000000000000e+00,-7.000000000000000000e+00,1.000000000000000000e+00,-2.000000000000000000e+00,-2.000000000000000000e+00,1.000000000000000000e+00,-3.783569335937500000e-01,3.517456054687500000e-01,4.855346679687500000e-01,7.052001953125000000e-01
4.000000000000000000e+00,0.000000000000000000e+00,-1.800000000000000000e+01,1.400000000000000000e+01,-1.000000000000000000e+00,-2.000000000000000000e+00,-2.000000000000000000e+00,3.000000000000000000e+00,-3.783569335937500000e-01,3.517456054687500000e-01,4.855346679687500000e-01,7.052001953125000000e-01
-8.000000000000000000e+00,-5.000000000000000000e+00,-6.000000000000000000e+00,2.300000000000000000e+01,0.000000000000000000e+00,0.000000000000000000e+00,-2.000000000000000000e+00,-2.000000000000000000e+00,-3.781127929687500000e-01,3.519897460937500000e-01,4.851074218750000000e-01,7.055053710937500000e-01
3.000000000000000000e+00,1.000000000000000000e+00,1.000000000000000000e+00,-5.000000000000000000e+00,-4.000000000000000000e+00,-7.000000000000000000e+00,-3.000000000000000000e+00,1.000000000000000000e+00,-3.781127929687500000e-01,3.519897460937500000e-01,4.851074218750000000e-01,7.055053710937500000e-01
-6.000000000000000000e+00,-3.000000000000000000e+00,-6.000000000000000000e+00,-7.000000000000000000e+00,-5.000000000000000000e+00,-2.000000000000000000e+00,-1.000000000000000000e+00,-8.000000000000000000e+00,-3.781127929687500000e-01,3.519897460937500000e-01,4.851074218750000000e-01,7.055053710937500000e-01
-4.000000000000000000e+00,5.000000000000000000e+00,2.500000000000000000e+01,0.000000000000000000e+00,-6.000000000000000000e+00,-5.000000000000000000e+00,-3.000000000000000000e+00,-2.000000000000000000e+00,-3.781127929687500000e-01,3.519897460937500000e-01,4.851074218750000000e-01,7.055053710937500000e-01
5.000000000000000000e+00,-3.000000000000000000e+00,-6.000000000000000000e+00,-2.400000000000000000e+01,-7.000000000000000000e+00,-2.000000000000000000e+00,-3.000000000000000000e+00,-3.000000000000000000e+00,-3.778686523437500000e-01,3.523559570312500000e-01,4.852294921875000000e-01,7.053833007812500000e-01
0.000000000000000000e+00,-2.000000000000000000e+00,1.000000000000000000e+00,8.000000000000000000e+00,-2.000000000000000000e+00,-3.000000000000000000e+00,-1.000000000000000000e+00,-2.000000000000000000e+00,-3.778686523437500000e-01,3.523559570312500000e-01,4.852294921875000000e-01,7.053833007812500000e-01
1.000000000000000000e+00,0.000000000000000000e+00,-6.000000000000000000e+00,1.000000000000000000e+00,1.000000000000000000e+00,1.000000000000000000e+00,1.000000000000000000e+00,5.000000000000000000e+00,-3.778686523437500000e-01,3.523559570312500000e-01,4.852294921875000000e-01,7.053833007812500000e-01
-2.000000000000000000e+00,-6.000000000000000000e+00,-2.000000000000000000e+00,-4.000000000000000000e+00,0.000000000000000000e+00,-1.000000000000000000e+00,0.000000000000000000e+00,-6.000000000000000000e+00,-3.778686523437500000e-01,3.523559570312500000e-01,4.852294921875000000e-01,7.053833007812500000e-01
7.000000000000000000e+00,-1.000000000000000000e+00,-2.200000000000000000e+01,-4.000000000000000000e+00,3.000000000000000000e+00,2.000000000000000000e+00,-1.000000000000000000e+00,6.000000000000000000e+00,-3.778076171875000000e-01,3.524780273437500000e-01,4.855346679687500000e-01,7.051391601562500000e-01
-7.000000000000000000e+00,2.000000000000000000e+00,7.000000000000000000e+00,5.000000000000000000e+00,-1.000000000000000000e+00,-3.000000000000000000e+00,-3.000000000000000000e+00,0.000000000000000000e+00,-3.778076171875000000e-01,3.524780273437500000e-01,4.855346679687500000e-01,7.051391601562500000e-01
-8.000000000000000000e+00,-7.000000000000000000e+00,-1.800000000000000000e+01,-1.200000000000000000e+01,-8.000000000000000000e+00,-2.000000000000000000e+00,1.000000000000000000e+00,-7.000000000000000000e+00,-3.778076171875000000e-01,3.524780273437500000e-01,4.855346679687500000e-01,7.051391601562500000e-01
2.000000000000000000e+00,0.000000000000000000e+00,1.200000000000000000e+01,-1.700000000000000000e+01,-8.000000000000000000e+00,-4.000000000000000000e+00,0.000000000000000000e+00,0.000000000000000000e+00,-3.778076171875000000e-01,3.524780273437500000e-01,4.855346679687500000e-01,7.051391601562500000e-01
-3.000000000000000000e+00,1.000000000000000000e+00,7.000000000000000000e+00,2.300000000000000000e+01,2.200000000000000000e+01,7.000000000000000000e+00,2.000000000000000000e+00,-5.000000000000000000e+00,-3.780517578125000000e-01,3.524169921875000000e-01,4.858398437500000000e-01,7.047729492187500000e-01
4.000000000000000000e+00,3.000000000000000000e+00,5.000000000000000000e+00,1.000000000000000000e+00,-1.000000000000000000e+01,0.000000000000000000e+00,1.000000000000000000e+00,6.000000000000000000e+00,-3.780517578125000000e-01,3.524169921875000000e-01,4.858398437500000000e-01,7.047729492187500000e-01
-2.000000000000000000e+00,-1.000000000000000000e+00,-4.000000000000000000e+00,3.500000000000000000e+01,3.700000000000000000e+01,3.000000000000000000e+00,3.000000000000000000e+00,1.000000000000000000e+00,-3.780517578125000000e-01,3.524169921875000000e-01,4.858398437500000000e-01,7.047729492187500000e-01
1.000000000000000000e+00,1.000000000000000000e+00,-5.000000000000000000e+00,-1.200000000000000000e+01,-1.400000000000000000e+01,-5.000000000000000000e+00,-2.000000000000000000e+00,-8.000000000000000000e+00,-3.780517578125000000e-01,3.524169921875000000e-01,4.858398437500000000e-01,7.047729492187500000e-01
-4.000000000000000000e+00,-3.000000000000000000e+00,2.000000000000000000e+00,-2.500000000000000000e+01,-9.000000000000000000e+00,-1.000000000000000000e+00,0.000000000000000000e+00,4.000000000000000000e+00,-3.772583007812500000e-01,3.523559570312500000e-01,4.860839843750000000e-01,7.050781250000000000e-01
-2.000000000000000000e+00,-1.000000000000000000e+00,2.000000000000000000e+00,1.400000000000000000e+01,9.000000000000000000e+00,3.000000000000000000e+00,0.000000000000000000e+00,-4.000000000000000000e+00,-3.772583007812500000e-01,3.523559570312500000e-01,4.860839843750000000e-01,7.050781250000000000e-01
-4.000000000000000000e+00,0.000000000000000000e+00,-4.000000000000000000e+00,5.000000000000000000e+00,-7.000000000000000000e+00,-1.000000000000000000e+00,-3.000000000000000000e+00,-2.000000000000000000e+00,-3.772583007812500000e-01,3.523559570312500000e-01,4.860839843750000000e-01,7.050781250000000000e-01
3.000000000000000000e+00,2.000000000000000000e+00,2.000000000000000000e+00,-1.500000000000000000e+01,2.000000000000000000e+00,2.000000000000000000e+00,1.000000000000000000e+00,2.000000000000000000e+00,-3.772583007812500000e-01,3.523559570312500000e-01,4.860839843750000000e-01,7.050781250000000000e-01
-5.000000000000000000e+00,-5.000000000000000000e+00,8.000000000000000000e+00,-5.000000000000000000e+00,-3.000000000000000000e+00,-7.000000000000000000e+00,1.000000000000000000e+00,-2.000000000000000000e+00,-3.764038085937500000e-01,3.519287109375000000e-01,4.864501953125000000e-01,7.055053710937500000e-01
2.000000000000000000e+00,-2.000000000000000000e+00,0.000000000000000000e+00,3.000000000000000000e+00,-5.000000000000000000e+00,-3.000000000000000000e+00,-4.000000000000000000e+00,-1.000000000000000000e+00,-3.764038085937500000e-01,3.519287109375000000e-01,4.864501953125000000e-01,7.055053710937500000e-01
0.000000000000000000e+00,-2.000000000000000000e+00,-1.700000000000000000e+01,1.500000000000000000e+01,-3.000000000000000000e+00,-2.000000000000000000e+00,-2.000000000000000000e+00,-1.000000000000000000e+00,-3.764038085937500000e-01,3.519287109375000000e-01,4.864501953125000000e-01,7.055053710937500000e-01
-1.000000000000000000e+00,0.000000000000000000e+00,4.000000000000000000e+00,-2.100000000000000000e+01,4.000000000000000000e+00,4.000000000000000000e+00,-1.000000000000000000e+00,-4.000000000000000000e+00,-3.764038085937500000e-01,3.519287109375000000e-01,4.864501953125000000e-01,7.055053710937500000e-01
5.000000000000000000e+00,1.000000000000000000e+00,3.600000000000000000e+01,1.700000000000000000e+01,-6.000000000000000000e+00,-5.000000000000000000e+00,-5.000000000000000000e+00,2.000000000000000000e+00,-3.765869140625000000e-01,3.509521484375000000e-01,4.869384765625000000e-01,7.055664062500000000e-01
-2.300000000000000000e+01,-4.000000000000000000e+00,-4.000000000000000000e+01,1.400000000000000000e+01,1.000000000000000000e+00,-1.000000000000000000e+00,2.000000000000000000e+00,-5.000000000000000000e+00,-3.765869140625000000e-01,3.509521484375000000e-01,4.869384765625000000e-01,7.055664062500000000e-01
8.000000000000000000e+00,1.000000000000000000e+00,1.700000000000000000e+01,-2.200000000000000000e+01,-3.000000000000000000e+00,1.000000000000000000e+00,2.000000000000000000e+00,3.000000000000000000e+00,-3.765869140625000000e-01,3.509521484375000000e-01,4.869384765625000000e-01,7.055664062500000000e-01
-1.000000000000000000e+00,0.000000000000000000e+00,3.000000000000000000e+00,2.000000000000000000e+01,3.000000000000000000e+00,0.000000000000000000e+00,-3.000000000000000000e+00,2.000000000000000000e+00,-3.765869140625000000e-01,3.509521484375000000e-01,4.869384765625000000e-01,7.055664062500000000e-01
-4.000000000000000000e+00,-1.000000000000000000e+00,1.000000000000000000e+00,-6.000000000000000000e+00,-2.000000000000000000e+00,1.000000000000000000e+00,-2.000000000000000000e+00,-1.800000000000000000e+01,-3.770141601562500000e-01,3.500976562500000000e-01,4.873046875000000000e-01,7.055053710937500000e-01
1.000000000000000000e+01,-2.000000000000000000e+00,2.000000000000000000e+00,5.000000000000000000e+01,1.000000000000000000e+01,1.000000000000000000e+00,0.000000000000000000e+00,1.600000000000000000e+01,-3.770141601562500000e-01,3.500976562500000000e-01,4.873046875000000000e-01,7.055053710937500000e-01
-3.000000000000000000e+00,-3.000000000000000000e+00,6.000000000000000000e+00,-5.900000000000000000e+01,-1.000000000000000000e+01,-4.000000000000000000e+00,-2.000000000000000000e+00,-1.000000000000000000e+00,-3.770141601562500000e-01,3.500976562500000000e-01,4.873046875000000000e-01,7.055053710937500000e-01
0.000000000000000000e+00,-2.000000000000000000e+00,-1.200000000000000000e+01,-8.000000000000000000e+00,-4.000000000000000000e+00,-2.000000000000000000e+00,-2.000000000000000000e+00,-7.000000000000000000e+00,-3.770141601562500000e-01,3.500976562500000000e-01,4.873046875000000000e-01,7.055053710937500000e-01
-1.000000000000000000e+01,2.000000000000000000e+00,-3.000000000000000000e+00,1.000000000000000000e+00,-1.000000000000000000e+00,0.000000000000000000e+00,-2.000000000000000000e+00,-5.000000000000000000e+00,-3.771972656250000000e-01,3.497924804687500000e-01,4.874877929687500000e-01,7.054443359375000000e-01
3.000000000000000000e+00,-2.000000000000000000e+00,4.000000000000000000e+00,4.000000000000000000e+00,-2.000000000000000000e+00,-3.000000000000000000e+00,-2.000000000000000000e+00,-5.000000000000000000e+00,-3.771972656250000000e-01,3.497924804687500000e-01,4.874877929687500000e-01,7.054443359375000000e-01
-7.000000000000000000e+00,0.000000000000000000e+00,1.000000000000000000e+00,1.100000000000000000e+01,-4.000000000000000000e+00,-1.000000000000000000e+00,2.000000000000000000e+00,-3.000000000000000000e+00,-3.771972656250000000e-01,3.497924804687500000e-01,4.874877929687500000e-01,7.054443359375000000e-01
8.000000000000000000e+00,2.000000000000000000e+00,2.300000000000000000e+01,0.000000000000000000e+00,2.000000000000000000e+00,1.000000000000000000e+00,-1.000000000000000000e+00,2.000000000000000000e+00,-3.771972656250000000e-01,3.497924804687500000e-01,4.874877929687500000e-01,7.054443359375000000e-01
-5.000000000000000000e+00,-5.000000000000000000e+00,-3.900000000000000000e+01,-1.100000000000000000e+01,-3.000000000000000000e+00,1.000000000000000000e+00,-1.000000000000000000e+00,5.000000000000000000e+00,-3.768920898437500000e-01,3.496704101562500000e-01,4.875488281250000000e-01,7.056884765625000000e-01
5.000000000000000000e+00,5.000000000000000000e+00,2.200000000000000000e+01,-2.000000000000000000e+00,0.000000000000000000e+00,1.000000000000000000e+00,-2.000000000000000000e+00,-3.000000000000000000e+00,-3.768920898437500000e-01,3.496704101562500000e-01,4.875488281250000000e-01,7.056884765625000000e-01
2.000000000000000000e+00,-1.000000000000000000e+00,4.000000000000000000e+00,2.200000000000000000e+01,3.000000000000000000e+00,1.000000000000000000e+00,1.000000000000000000e+00,4.000000000000000000e+00,-3.768920898437500000e-01,3.496704101562500000e-01,4.875488281250000000e-01,7.056884765625000000e-01
-4.000000000000000000e+00,0.000000000000000000e+00,-3.000000000000000000e+00,-4.000000000000000000e+00,1.000000000000000000e+00,-2.000000000000000000e+00,-3.000000000000000000e+00,-6.000000000000000000e+00,-3.768920898437500000e-01,3.496704101562500000e-01,4.875488281250000000e-01,7.056884765625000000e-01
-2.000000000000000000e+00,-5.000000000000000000e+00,-7.000000000000000000e+00,2.000000000000000000e+01,5.000000000000000000e+00,1.000000000000000000e+00,1.000000000000000000e+00,3.000000000000000000e+00,-3.770141601562500000e-01,3.491821289062500000e-01,4.879760742187500000e-01,7.055053710937500000e-01
3.000000000000000000e+00,3.000000000000000000e+00,2.000000000000000000e+00,-3.200000000000000000e+01,0.000000000000000000e+00,-1.000000000000000000e+00,-1.000000000000000000e+00,1.000000000000000000e+00,-3.770141601562500000e-01,3.491821289062500000e-01,4.879760742187500000e-01,7.055053710937500000e-01
-1.000000000000000000e+00,1.000000000000000000e+00,4.000000000000000000e+01,4.000000000000000000e+00,-6.000000000000000000e+00,-3.000000000000000000e+00,-3.000000000000000000e+00,-3.000000000000000000e+00,-3.770141601562500000e-01,3.491821289062500000e-01,4.879760742187500000e-01,7.055053710937500000e-01
-6.000000000000000000e+00,-9.000000000000000000e+00,-5.500000000000000000e+01,2.900000000000000000e+01,6.000000000000000000e+00,2.000000000000000000e+00,1.000000000000000000e+00,0.000000000000000000e+00,-3.770141601562500000e-01,3.491821289062500000e-01,4.879760742187500000e-01,7.055053710937500000e-01
2.000000000000000000e+00,0.000000000000000000e+00,1.500000000000000000e+01,-2.600000000000000000e+01,-1.000000000000000000e+01,-3.000000000000000000e+00,1.000000000000000000e+00,3.000000000000000000e+00,-3.771972656250000000e-01,3.486938476562500000e-01,4.886474609375000000e-01,7.051391601562500000e-01
-3.000000000000000000e+00,1.000000000000000000e+00,-2.000000000000000000e+00,-6.000000000000000000e+00,1.000000000000000000e+00,-1.000000000000000000e+00,-3.000000000000000000e+00,-5.000000000000000000e+00,-3.771972656250000000e-01,3.486938476562500000e-01,4.886474609375000000e-01,7.051391601562500000e-01
-3.000000000000000000e+00,-1.000000000000000000e+00,-1.000000000000000000e+00,-5.000000000000000000e+00,-2.000000000000000000e+00,1.000000000000000000e+00,-1.000000000000000000e+00,-3.000000000000000000e+00,-3.771972656250000000e-01,3.486938476562500000e-01,4.886474609375000000e-01,7.051391601562500000e-01
0.000000000000000000e+00,0.000000000000000000e+00,1.300000000000000000e+01,7.000000000000000000e+00,2.000000000000000000e+00,-3.000000000000000000e+00,-1.000000000000000000e+00,1.000000000000000000e+00,-3.771972656250000000e-01,3.486938476562500000e-01,4.886474609375000000e-01,7.051391601562500000e-01
5.000000000000000000e+00,1.000000000000000000e+00,2.000000000000000000e+00,5.000000000000000000e+00,-2.000000000000000000e+00,-3.000000000000000000e+00,0.000000000000000000e+00,5.000000000000000000e+00,-3.781127929687500000e-01,3.476562500000000000e-01,4.893188476562500000e-01,7.047729492187500000e-01
6.000000000000000000e+00,-3.000000000000000000e+00,-2.000000000000000000e+01,-1.900000000000000000e+01,-2.000000000000000000e+00,0.000000000000000000e+00,1.000000000000000000e+00,8.000000000000000000e+00,-3.781127929687500000e-01,3.476562500000000000e-01,4.893188476562500000e-01,7.047729492187500000e-01
-1.000000000000000000e+00,4.000000000000000000e+00,2.000000000000000000e+00,-8.000000000000000000e+00,2.000000000000000000e+00,0.000000000000000000e+00,-1.000000000000000000e+00,-2.000000000000000000e+01,-3.781127929687500000e-01,3.476562500000000000e-01,4.893188476562500000e-01,7.047729492187500000e-01
-7.000000000000000000e+00,-1.000000000000000000e+00,1.200000000000000000e+01,2.300000000000000000e+01,1.000000000000000000e+00,1.000000000000000000e+00,0.000000000000000000e+00,6.000000000000000000e+00,-3.781127929687500000e-01,3.476562500000000000e-01,4.893188476562500000e-01,7.047729492187500000e-01
7.000000000000000000e+00,1.000000000000000000e+00,1.200000000000000000e+01,-2.000000000000000000e+00,-4.000000000000000000e+00,-4.000000000000000000e+00,-4.000000000000000000e+00,0.000000000000000000e+00,-3.786010742187500000e-01,3.466796875000000000e-01,4.895629882812500000e-01,7.047729492187500000e-01
-1.000000000000000000e+00,0.000000000000000000e+00,4.000000000000000000e+00,1.200000000000000000e+01,0.000000000000000000e+00,2.000000000000000000e+00,1.000000000000000000e+00,0.000000000000000000e+00,-3.786010742187500000e-01,3.466796875000000000e-01,4.895629882812500000e-01,7.047729492187500000e-01
-6.000000000000000000e+00,-3.000000000000000000e+00,-1.600000000000000000e+01,-2.200000000000000000e+01,-6.000000000000000000e+00,-2.000000000000000000e+00,0.000000000000000000e+00,1.000000000000000000e+00,-3.786010742187500000e-01,3.466796875000000000e-01,4.895629882812500000e-01,7.047729492187500000e-01
0.000000000000000000e+00,-1.000000000000000000e+00,-1.500000000000000000e+01,-1.700000000000000000e+01,-6.000000000000000000e+00,-1.000000000000000000e+00,0.000000000000000000e+00,-1.000000000000000000e+00,-3.786010742187500000e-01,3.466796875000000000e-01,4.895629882812500000e-01,7.047729492187500000e-01
-1.000000000000000000e+00,0.000000000000000000e+00,-6.000000000000000000e+00,-2.000000000000000000e+00,-1.000000000000000000e+00,-2.000000000000000000e+00,0.000000000000000000e+00,1.000000000000000000e+00,-3.780517578125000000e-01,3.464965820312500000e-01,4.893798828125000000e-01,7.053222656250000000e-01
-1.000000000000000000e+00,-2.000000000000000000e+00,9.000000000000000000e+00,1.500000000000000000e+01,-1.000000000000000000e+00,-3.000000000000000000e+00,-3.000000000000000000e+00,-4.000000000000000000e+00,-3.780517578125000000e-01,3.464965820312500000e-01,4.893798828125000000e-01,7.053222656250000000e-01
-3.000000000000000000e+00,-4.000000000000000000e+00,-9.000000000000000000e+00,1.000000000000000000e+01,2.000000000000000000e+00,-3.000000000000000000e+00,-2.000000000000000000e+00,5.000000000000000000e+00,-3.780517578125000000e-01,3.464965820312500000e-01,4.893798828125000000e-01,7.053222656250000000e-01
1.000000000000000000e+00,-2.000000000000000000e+00,-1.000000000000000000e+00,-9.000000000000000000e+00,-4.000000000000000000e+00,-2.000000000000000000e+00,1.000000000000000000e+00,-3.000000000000000000e+00,-3.780517578125000000e-01,3.464965820312500000e-01,4.893798828125000000e-01,7.053222656250000000e-01
-1.000000000000000000e+00,4.000000000000000000e+00,-3.000000000000000000e+00,6.000000000000000000e+00,8.000000000000000000e+00,0.000000000000000000e+00,-5.000000000000000000e+00,2.000000000000000000e+00,-3.777465820312500000e-01,3.462524414062500000e-01,4.891357421875000000e-01,7.057495117187500000e-01
-2.000000000000000000e+00,-1.000000000000000000e+00,-9.000000000000000000e+00,-3.400000000000000000e+01,-8.000000000000000000e+00,0.000000000000000000e+00,2.000000000000000000e+00,-5.000000000000000000e+00,-3.777465820312500000e-01,3.462524414062500000e-01,4.891357421875000000e-01,7.057495117187500000e-01
-1.000000000000000000e+00,-6.000000000000000000e+00,-2.500000000000000000e+01,7.000000000000000000e+00,0.000000000000000000e+00,-1.000000000000000000e+00,-1.000000000000000000e+00,-1.000000000000000000e+00,-3.777465820312500000e-01,3.462524414062500000e-01,4.891357421875000000e-01,7.057495117187500000e-01
-2.000000000000000000e+00,-1.000000000000000000e+00,-5.000000000000000000e+00,-1.000000000000000000e+00,-1.000000000000000000e+00,0.000000000000000000e+00,-3.000000000000000000e+00,0.000000000000000000e+00,-3.777465820312500000e-01,3.462524414062500000e-01,4.891357421875000000e-01,7.057495117187500000e-01
-1.000000000000000000e+00,-1.000000000000000000e+00,7.000000000000000000e+00,-3.400000000000000000e+01,-5.000000000000000000e+00,1.000000000000000000e+00,0.000000000000000000e+00,-2.000000000000000000e+00,-3.781127929687500000e-01,3.458251953125000000e-01,4.887084960937500000e-01,7.060546875000000000e-01
0.000000000000000000e+00,-4.000000000000000000e+00,-2.000000000000000000e+01,1.100000000000000000e+01,2.000000000000000000e+00,0.000000000000000000e+00,1.000000000000000000e+00,-3.000000000000000000e+00,-3.781127929687500000e-01,3.458251953125000000e-01,4.887084960937500000e-01,7.060546875000000000e-01
2.000000000000000000e+00,2.000000000000000000e+00,1.500000000000000000e+01,-1.200000000000000000e+01,-3.000000000000000000e+00,-2.000000000000000000e+00,0.000000000000000000e+00,-1.000000000000000000e+00,-3.781127929687500000e-01,3.458251953125000000e-01,4.887084960937500000e-01,7.060546875000000000e-01
-1.300000000000000000e+01,-5.000000000000000000e+00,-1.000000000000000000e+01,1.400000000000000000e+01,-1.000000000000000000e+00,-2.000000000000000000e+00,-2.000000000000000000e+00,0.000000000000000000e+00,-3.781127929687500000e-01,3.458251953125000000e-01,4.887084960937500000e-01,7.060546875000000000e-01
5.000000000000000000e+00,-1.000000000000000000e+00,2.800000000000000000e+01,2.400000000000000000e+01,3.000000000000000000e+00,0.000000000000000000e+00,1.000000000000000000e+00,-2.000000000000000000e+00,-3.781738281250000000e-01,3.457641601562500000e-01,4.882202148437500000e-01,7.063598632812500000e-01
-1.000000000000000000e+00,-1.000000000000000000e+00,-7.000000000000000000e+00,-9.000000000000000000e+00,-6.000000000000000000e+00,-2.000000000000000000e+00,-3.000000000000000000e+00,0.000000000000000000e+00,-3.781738281250000000e-01,3.457641601562500000e-01,4.882202148437500000e-01,7.063598632812500000e-01
-3.000000000000000000e+00,2.000000000000000000e+00,3.000000000000000000e+00,1.200000000000000000e+01,1.000000000000000000e+00,0.000000000000000000e+00,1.000000000000000000e+00,4.000000000000000000e+00,-3.781738281250000000e-01,3.457641601562500000e-01,4.882202148437500000e-01,7.063598632812500000e-01
6.000000000000000000e+00,1.000000000000000000e+00,-6.000000000000000000e+00,-7.000000000000000000e+00,3.000000000000000000e+00,1.000000000000000000e+00,1.000000000000000000e+00,-4.000000000000000000e+00,-3.781738281250000000e-01,3.457641601562500000e-01,4.882202148437500000e-01,7.063598632812500000e-01
-4.000000000000000000e+00,-5.000000000000000000e+00,-1.400000000000000000e+01,-8.000000000000000000e+00,-2.000000000000000000e+00,0.000000000000000000e+00,-1.000000000000000000e+00,-1.000000000000000000e+00,-3.781127929687500000e-01,3.455200195312500000e-01,4.879760742187500000e-01,7.067260742187500000e-01
5.000000000000000000e+00,3.000000000000000000e+00,5.000000000000000000e+00,-4.000000000000000000e+00,-1.000000000000000000e+00,-1.000000000000000000e+00,1.000000000000000000e+00,1.000000000000000000e+00,-3.781127929687500000e-01,3.455200195312500000e-01,4.879760742187500000e-01,7.067260742187500000e-01
-1.500000000000000000e+01,-9.000000000000000000e+00,-7.000000000000000000e+00,4.000000000000000000e+00,-5.000000000000000000e+00,-6.000000000000000000e+00,-5.000000000000000000e+00,-2.000000000000000000e+00,-3.781127929687500000e-01,3.455200195312500000e-01,4.879760742187500000e-01,7.067260742187500000e-01
3.000000000000000000e+00,2.000000000000000000e+00,-7.000000000000000000e+00,-1.900000000000000000e+01,-5.000000000000000000e+00,-4.000000000000000000e+00,-3.000000000000000000e+00,-8.000000000000000000e+00,-3.781127929687500000e-01,3.455200195312500000e-01,4.879760742187500000e-01,7.067260742187500000e-01
-6.000000000000000000e+00,0.000000000000000000e+00,-4.000000000000000000e+00,-3.000000000000000000e+00,-3.000000000000000000e+00,2.000000000000000000e+00,3.000000000000000000e+00,0.000000000000000000e+00,-3.781738281250000000e-01,3.449096679687500000e-01,4.879150390625000000e-01,7.070922851562500000e-01
2.000000000000000000e+00,-3.000000000000000000e+00,4.000000000000000000e+00,2.900000000000000000e+01,8.000000000000000000e+00,3.000000000000000000e+00,-3.000000000000000000e+00,-3.000000000000000000e+00,-3.781738281250000000e-01,3.449096679687500000e-01,4.879150390625000000e-01,7.070922851562500000e-01
-3.000000000000000000e+00,-1.000000000000000000e+00,-1.300000000000000000e+01,-1.700000000000000000e+01,-5.000000000000000000e+00,-4.000000000000000000e+00,-2.000000000000000000e+00,0.000000000000000000e+00,-3.781738281250000000e-01,3.449096679687500000e-01,4.879150390625000000e-01,7.070922851562500000e-01
-1.000000000000000000e+00,-2.000000000000000000e+00,1.500000000000000000e+01,-3.000000000000000000e+00,-4.000000000000000000e+00,-3.000000000000000000e+00,0.000000000000000000e+00,0.000000000000000000e+00,-3.781738281250000000e-01,3.449096679687500000e-01,4.879150390625000000e-01,7.070922851562500000e-01
-3.000000000000000000e+00,-1.000000000000000000e+00,-6.000000000000000000e+00,6.000000000000000000e+00,0.000000000000000000e+00,-2.000000000000000000e+00,0.000000000000000000e+00,1.000000000000000000e+00,-3.783569335937500000e-01,3.441772460937500000e-01,4.878540039062500000e-01,7.073364257812500000e-01
-3.000000000000000000e+00,-4.000000000000000000e+00,-6.000000000000000000e+00,-4.000000000000000000e+00,-4.000000000000000000e+00,-4.000000000000000000e+00,-6.000000000000000000e+00,-1.000000000000000000e+00,-3.783569335937500000e-01,3.441772460937500000e-01,4.878540039062500000e-01,7.073364257812500000e-01
4.000000000000000000e+00,3.000000000000000000e+00,1.100000000000000000e+01,3.100000000000000000e+01,9.000000000000000000e+00,1.000000000000000000e+00,-2.000000000000000000e+00,0.000000000000000000e+00,-3.783569335937500000e-01,3.441772460937500000e-01,4.878540039062500000e-01,7.073364257812500000e-01
-1.000000000000000000e+00,2.000000000000000000e+00,1.000000000000000000e+01,-2.000000000000000000e+00,0.000000000000000000e+00,0.000000000000000000e+00,0.000000000000000000e+00,-1.000000000000000000e+00,-3.783569335937500000e-01,3.441772460937500000e-01,4.878540039062500000e-01,7.073364257812500000e-01
