-1.500000000000000000e+01,1.000000000000000000e+00,7.000000000000000000e+00,-3.000000000000000000e+00,-4.000000000000000000e+00,2.000000000000000000e+00,1.000000000000000000e+01,-2.000000000000000000e+00,4.371948242187500000e-01,2.054443359375000000e-01,-8.607788085937500000e-01,1.605834960937500000e-01
3.000000000000000000e+00,-2.000000000000000000e+00,3.000000000000000000e+00,-1.000000000000000000e+00,1.000000000000000000e+01,3.000000000000000000e+00,1.000000000000000000e+00,3.000000000000000000e+00,4.371948242187500000e-01,2.054443359375000000e-01,-8.607788085937500000e-01,1.605834960937500000e-01
-2.100000000000000000e+01,-1.900000000000000000e+01,-2.500000000000000000e+01,-4.000000000000000000e+00,-8.000000000000000000e+00,-5.000000000000000000e+00,-3.000000000000000000e+00,-5.000000000000000000e+00,4.362182617187500000e-01,2.056274414062500000e-01,-8.612060546875000000e-01,1.606445312500000000e-01
1.400000000000000000e+01,-1.400000000000000000e+01,-6.000000000000000000e+00,3.000000000000000000e+00,1.000000000000000000e+00,3.000000000000000000e+00,-1.000000000000000000e+00,-1.000000000000000000e+00,4.362182617187500000e-01,2.056274414062500000e-01,-8.612060546875000000e-01,1.606445312500000000e-01
-1.800000000000000000e+01,3.000000000000000000e+00,5.000000000000000000e+00,-1.000000000000000000e+00,3.000000000000000000e+00,-4.000000000000000000e+00,-5.000000000000000000e+00,-1.000000000000000000e+00,4.362182617187500000e-01,2.056274414062500000e-01,-8.612060546875000000e-01,1.606445312500000000e-01
-4.000000000000000000e+00,-5.000000000000000000e+00,-7.000000000000000000e+00,-3.000000000000000000e+00,-9.000000000000000000e+00,-3.000000000000000000e+00,-2.000000000000000000e+00,-2.000000000000000000e+00,4.362182617187500000e-01,2.056274414062500000e-01,-8.612060546875000000e-01,1.606445312500000000e-01
7.000000000000000000e+00,9.000000000000000000e+00,7.000000000000000000e+00,-1.000000000000000000e+00,2.000000000000000000e+00,2.000000000000000000e+00,1.000000000000000000e+00,1.000000000000000000e+00,4.354248046875000000e-01,2.059936523437500000e-01,-8.614501953125000000e-01,1.608886718750000000e-01
-8.000000000000000000e+00,0.000000000000000000e+00,-2.000000000000000000e+00,-3.000000000000000000e+00,-7.000000000000000000e+00,-4.000000000000000000e+00,-3.000000000000000000e+00,-2.000000000000000000e+00,4.354248046875000000e-01,2.059936523437500000e-01,-8.614501953125000000e-01,1.608886718750000000e-01
5.000000000000000000e+00,1.000000000000000000e+00,2.000000000000000000e+00,-3.000000000000000000e+00,0.000000000000000000e+00,1.000000000000000000e+00,1.000000000000000000e+00,-1.000000000000000000e+00,4.354248046875000000e-01,2.059936523437500000e-01,-8.614501953125000000e-01,1.608886718750000000e-01
-7.000000000000000000e+00,-4.000000000000000000e+00,3.000000000000000000e+00,-2.000000000000000000e+00,3.000000000000000000e+00,1.000000000000000000e+00,-2.000000000000000000e+00,-2.000000000000000000e+00,4.354248046875000000e-01,2.059936523437500000e-01,-8.614501953125000000e-01,1.608886718750000000e-01
4.000000000000000000e+00,0.000000000000000000e+00,0.000000000000000000e+00,1.600000000000000000e+01,1.000000000000000000e+01,0.000000000000000000e+00,0.000000000000000000e+00,-2.000000000000000000e+00,4.346923828125000000e-01,2.061767578125000000e-01,-8.617553710937500000e-01,1.608886718750000000e-01
0.000000000000000000e+00,2.200000000000000000e+01,7.000000000000000000e+00,-8.000000000000000000e+00,2.000000000000000000e+00,-2.000000000000000000e+00,-1.000000000000000000e+00,-1.000000000000000000e+00,4.346923828125000000e-01,2.061767578125000000e-01,-8.617553710937500000e-01,1.608886718750000000e-01
9.000000000000000000e+00,-1.400000000000000000e+01,0.000000000000000000e+00,1.000000000000000000e+00,-8.000000000000000000e+00,-2.000000000000000000e+00,0.000000000000000000e+00,2.000000000000000000e+00,4.346923828125000000e-01,2.061767578125000000e-01,-8.617553710937500000e-01,1.608886718750000000e-01
-1.300000000000000000e+01,-2.100000000000000000e+01,-1.700000000000000000e+01,-9.000000000000000000e+00,-3.000000000000000000e+00,-5.000000000000000000e+00,-4.000000000000000000e+00,-7.000000000000000000e+00,4.346923828125000000e-01,2.061767578125000000e-01,-8.617553710937500000e-01,1.608886718750000000e-01
0.000000000000000000e+00,-5.000000000000000000e+00,1.200000000000000000e+01,-8.000000000000000000e+00,-4.000000000000000000e+00,1.000000000000000000e+00,-1.000000000000000000e+00,0.000000000000000000e+00,4.342041015625000000e-01,2.063598632812500000e-01,-8.619384765625000000e-01,1.611328125000000000e-01
-6.000000000000000000e+00,-6.000000000000000000e+00,-1.000000000000000000e+01,4.000000000000000000e+00,-2.000000000000000000e+00,0.000000000000000000e+00,-1.000000000000000000e+00,-2.000000000000000000e+00,4.342041015625000000e-01,2.063598632812500000e-01,-8.619384765625000000e-01,1.611328125000000000e-01
3.000000000000000000e+00,1.000000000000000000e+01,6.000000000000000000e+00,3.000000000000000000e+00,0.000000000000000000e+00,-1.000000000000000000e+00,-2.000000000000000000e+00,-2.000000000000000000e+00,4.342041015625000000e-01,2.063598632812500000e-01,-8.619384765625000000e-01,1.611328125000000000e-01
-5.000000000000000000e+00,5.000000000000000000e+00,0.000000000000000000e+00,0.000000000000000000e+00,0.000000000000000000e+00,-4.000000000000000000e+00,-2.000000000000000000e+00,0.000000000000000000e+00,4.342041015625000000e-01,2.063598632812500000e-01,-8.619384765625000000e-01,1.611328125000000000e-01
3.000000000000000000e+00,-7.000000000000000000e+00,-5.000000000000000000e+00,-3.000000000000000000e+00,-2.000000000000000000e+00,-4.000000000000000000e+00,-6.000000000000000000e+00,-3.000000000000000000e+00,4.338989257812500000e-01,2.066040039062500000e-01,-8.619995117187500000e-01,1.612548828125000000e-01
-5.000000000000000000e+00,3.000000000000000000e+00,9.000000000000000000e+00,6.000000000000000000e+00,-1.200000000000000000e+01,-3.000000000000000000e+00,2.000000000000000000e+00,-2.000000000000000000e+00,4.338989257812500000e-01,2.066040039062500000e-01,-8.619995117187500000e-01,1.612548828125000000e-01
6.000000000000000000e+00,5.000000000000000000e+00,-1.000000000000000000e+00,-7.000000000000000000e+00,1.600000000000000000e+01,1.000000000000000000e+01,6.000000000000000000e+00,4.000000000000000000e+00,4.338989257812500000e-01,2.066040039062500000e-01,-8.619995117187500000e-01,1.612548828125000000e-01
1.000000000000000000e+00,-6.000000000000000000e+00,-1.000000000000000000e+00,5.000000000000000000e+00,1.000000000000000000e+00,-4.000000000000000000e+00,2.000000000000000000e+00,1.000000000000000000e+00,4.338989257812500000e-01,2.066040039062500000e-01,-8.619995117187500000e-01,1.612548828125000000e-01
1.000000000000000000e+01,1.200000000000000000e+01,-8.000000000000000000e+00,-6.000000000000000000e+00,6.000000000000000000e+00,3.000000000000000000e+00,4.000000000000000000e+00,2.000000000000000000e+00,4.334716796875000000e-01,2.064819335937500000e-01,-8.621826171875000000e-01,1.616210937500000000e-01
-3.000000000000000000e+00,-1.100000000000000000e+01,-4.000000000000000000e+00,-3.000000000000000000e+00,1.000000000000000000e+00,-4.000000000000000000e+00,-2.000000000000000000e+00,0.000000000000000000e+00,4.334716796875000000e-01,2.064819335937500000e-01,-8.621826171875000000e-01,1.616210937500000000e-01
-2.600000000000000000e+01,-2.200000000000000000e+01,-1.900000000000000000e+01,-5.000000000000000000e+00,-1.800000000000000000e+01,-9.000000000000000000e+00,-5.000000000000000000e+00,-6.000000000000000000e+00,4.334716796875000000e-01,2.064819335937500000e-01,-8.621826171875000000e-01,1.616210937500000000e-01
3.000000000000000000e+00,6.000000000000000000e+00,2.000000000000000000e+00,-1.000000000000000000e+00,-8.000000000000000000e+00,-4.000000000000000000e+00,-1.000000000000000000e+00,-2.000000000000000000e+00,4.334716796875000000e-01,2.064819335937500000e-01,-8.621826171875000000e-01,1.616210937500000000e-01
3.000000000000000000e+00,6.000000000000000000e+00,4.000000000000000000e+00,1.000000000000000000e+00,-1.000000000000000000e+00,1.000000000000000000e+00,-1.000000000000000000e+00,1.000000000000000000e+00,4.331054687500000000e-01,2.072143554687500000e-01,-8.621826171875000000e-01,1.618041992187500000e-01
-1.000000000000000000e+00,5.000000000000000000e+00,-5.000000000000000000e+00,-1.000000000000000000e+00,5.000000000000000000e+00,5.000000000000000000e+00,1.000000000000000000e+00,-1.000000000000000000e+00,4.331054687500000000e-01,2.072143554687500000e-01,-8.621826171875000000e-01,1.618041992187500000e-01
4.000000000000000000e+00,-1.000000000000000000e+00,4.000000000000000000e+00,0.000000000000000000e+00,-7.000000000000000000e+00,-8.000000000000000000e+00,-2.000000000000000000e+00,1.000000000000000000e+00,4.331054687500000000e-01,2.072143554687500000e-01,-8.621826171875000000e-01,1.618041992187500000e-01
-5.000000000000000000e+00,4.000000000000000000e+00,-1.000000000000000000e+00,-5.000000000000000000e+00,-2.000000000000000000e+00,2.000000000000000000e+00,0.000000000000000000e+00,-3.000000000000000000e+00,4.331054687500000000e-01,2.072143554687500000e-01,-8.621826171875000000e-01,1.618041992187500000e-01
-9.000000000000000000e+00,-1.000000000000000000e+00,-2.000000000000000000e+00,4.000000000000000000e+00,2.000000000000000000e+00,3.000000000000000000e+00,0.000000000000000000e+00,-1.000000000000000000e+00,4.329223632812500000e-01,2.072143554687500000e-01,-8.623046875000000000e-01,1.613769531250000000e-01
3.000000000000000000e+01,2.200000000000000000e+01,6.000000000000000000e+00,6.000000000000000000e+00,8.000000000000000000e+00,5.000000000000000000e+00,1.000000000000000000e+00,2.000000000000000000e+00,4.329223632812500000e-01,2.072143554687500000e-01,-8.623046875000000000e-01,1.613769531250000000e-01
-4.000000000000000000e+00,-1.400000000000000000e+01,-1.000000000000000000e+01,0.000000000000000000e+00,6.000000000000000000e+00,-2.000000000000000000e+00,-4.000000000000000000e+00,-3.000000000000000000e+00,4.329223632812500000e-01,2.072143554687500000e-01,-8.623046875000000000e-01,1.613769531250000000e-01
-2.300000000000000000e+01,-2.400000000000000000e+01,-2.000000000000000000e+00,-1.000000000000000000e+00,-4.000000000000000000e+00,-3.000000000000000000e+00,-3.000000000000000000e+00,-2.000000000000000000e+00,4.329223632812500000e-01,2.072143554687500000e-01,-8.623046875000000000e-01,1.613769531250000000e-01
-6.000000000000000000e+00,-3.000000000000000000e+00,1.000000000000000000e+00,-7.000000000000000000e+00,-7.000000000000000000e+00,0.000000000000000000e+00,-2.000000000000000000e+00,-2.000000000000000000e+00,4.328613281250000000e-01,2.064819335937500000e-01,-8.626098632812500000e-01,1.611328125000000000e-01
-7.000000000000000000e+00,-9.000000000000000000e+00,-8.000000000000000000e+00,2.000000000000000000e+00,-2.000000000000000000e+00,0.000000000000000000e+00,0.000000000000000000e+00,-1.000000000000000000e+00,4.328613281250000000e-01,2.064819335937500000e-01,-8.626098632812500000e-01,1.611328125000000000e-01
2.100000000000000000e+01,2.200000000000000000e+01,5.000000000000000000e+00,2.000000000000000000e+00,1.000000000000000000e+00,-1.000000000000000000e+00,-1.000000000000000000e+00,1.000000000000000000e+00,4.328613281250000000e-01,2.064819335937500000e-01,-8.626098632812500000e-01,1.611328125000000000e-01
5.000000000000000000e+00,8.000000000000000000e+00,0.000000000000000000e+00,-5.000000000000000000e+00,-5.000000000000000000e+00,-1.000000000000000000e+00,-1.000000000000000000e+00,-2.000000000000000000e+00,4.328613281250000000e-01,2.064819335937500000e-01,-8.626098632812500000e-01,1.611328125000000000e-01
-3.000000000000000000e+00,-1.200000000000000000e+01,2.000000000000000000e+00,1.000000000000000000e+00,2.000000000000000000e+00,-2.000000000000000000e+00,-1.000000000000000000e+00,1.000000000000000000e+00,4.327392578125000000e-01,2.062988281250000000e-01,-8.626708984375000000e-01,1.612548828125000000e-01
-8.000000000000000000e+00,1.000000000000000000e+00,-4.000000000000000000e+00,1.000000000000000000e+00,-1.000000000000000000e+00,-2.000000000000000000e+00,-4.000000000000000000e+00,-2.000000000000000000e+00,4.327392578125000000e-01,2.062988281250000000e-01,-8.626708984375000000e-01,1.612548828125000000e-01
3.000000000000000000e+00,9.000000000000000000e+00,6.000000000000000000e+00,2.000000000000000000e+00,2.000000000000000000e+00,3.000000000000000000e+00,-1.000000000000000000e+00,1.000000000000000000e+00,4.327392578125000000e-01,2.062988281250000000e-01,-8.626708984375000000e-01,1.612548828125000000e-01
5.000000000000000000e+00,3.000000000000000000e+00,0.000000000000000000e+00,3.000000000000000000e+00,3.000000000000000000e+00,1.000000000000000000e+00,-4.000000000000000000e+00,-2.000000000000000000e+00,4.327392578125000000e-01,2.062988281250000000e-01,-8.626708984375000000e-01,1.612548828125000000e-01
-5.000000000000000000e+00,-1.000000000000000000e+01,-1.000000000000000000e+00,-3.000000000000000000e+00,-9.000000000000000000e+00,-6.000000000000000000e+00,1.000000000000000000e+00,-2.000000000000000000e+00,4.324340820312500000e-01,2.067260742187500000e-01,-8.626098632812500000e-01,1.618652343750000000e-01
-6.000000000000000000e+00,-1.000000000000000000e+00,-4.000000000000000000e+00,-5.000000000000000000e+00,2.000000000000000000e+00,-2.000000000000000000e+00,-1.000000000000000000e+00,-2.000000000000000000e+00,4.324340820312500000e-01,2.067260742187500000e-01,-8.626098632812500000e-01,1.618652343750000000e-01
1.000000000000000000e+01,-2.000000000000000000e+00,-2.000000000000000000e+00,-1.400000000000000000e+01,-5.000000000000000000e+00,-2.000000000000000000e+00,-6.000000000000000000e+00,-3.000000000000000000e+00,4.324340820312500000e-01,2.067260742187500000e-01,-8.626098632812500000e-01,1.618652343750000000e-01
0.000000000000000000e+00,2.000000000000000000e+00,-2.000000000000000000e+00,1.100000000000000000e+01,-2.000000000000000000e+00,0.000000000000000000e+00,7.000000000000000000e+00,2.000000000000000000e+00,4.324340820312500000e-01,2.067260742187500000e-01,-8.626098632812500000e-01,1.618652343750000000e-01
-1.400000000000000000e+01,-7.000000000000000000e+00,2.400000000000000000e+01,7.000000000000000000e+00,7.000000000000000000e+00,-2.000000000000000000e+00,4.000000000000000000e+00,2.000000000000000000e+00,4.321899414062500000e-01,2.070312500000000000e-01,-8.625488281250000000e-01,1.622314453125000000e-01
5.000000000000000000e+00,-2.100000000000000000e+01,-1.300000000000000000e+01,-4.000000000000000000e+00,-3.000000000000000000e+00,-1.000000000000000000e+00,0.000000000000000000e+00,-3.000000000000000000e+00,4.321899414062500000e-01,2.070312500000000000e-01,-8.625488281250000000e-01,1.622314453125000000e-01
3.000000000000000000e+00,-4.000000000000000000e+00,-7.000000000000000000e+00,0.000000000000000000e+00,-2.000000000000000000e+00,-1.000000000000000000e+00,0.000000000000000000e+00,0.000000000000000000e+00,4.321899414062500000e-01,2.070312500000000000e-01,-8.625488281250000000e-01,1.622314453125000000e-01
6.000000000000000000e+00,1.200000000000000000e+01,-1.000000000000000000e+01,-3.000000000000000000e+00,-4.000000000000000000e+00,-3.000000000000000000e+00,-2.000000000000000000e+00,0.000000000000000000e+00,4.321899414062500000e-01,2.070312500000000000e-01,-8.625488281250000000e-01,1.622314453125000000e-01
6.000000000000000000e+00,1.100000000000000000e+01,-1.000000000000000000e+00,-1.300000000000000000e+01,-7.000000000000000000e+00,0.000000000000000000e+00,0.000000000000000000e+00,0.000000000000000000e+00,4.319458007812500000e-01,2.069091796875000000e-01,-8.627319335937500000e-01,1.621704101562500000e-01
-1.100000000000000000e+01,-1.000000000000000000e+01,4.000000000000000000e+00,9.000000000000000000e+00,1.700000000000000000e+01,8.000000000000000000e+00,4.000000000000000000e+00,1.000000000000000000e+00,4.319458007812500000e-01,2.069091796875000000e-01,-8.627319335937500000e-01,1.621704101562500000e-01
-5.000000000000000000e+00,-1.000000000000000000e+00,1.000000000000000000e+01,4.000000000000000000e+00,1.000000000000000000e+00,2.000000000000000000e+00,-2.000000000000000000e+00,0.000000000000000000e+00,4.319458007812500000e-01,2.069091796875000000e-01,-8.627319335937500000e-01,1.621704101562500000e-01
7.000000000000000000e+00,4.000000000000000000e+00,1.300000000000000000e+01,2.000000000000000000e+00,6.000000000000000000e+00,1.000000000000000000e+00,-1.000000000000000000e+00,1.000000000000000000e+00,4.319458007812500000e-01,2.069091796875000000e-01,-8.627319335937500000e-01,1.621704101562500000e-01
8.000000000000000000e+00,-4.000000000000000000e+00,-1.300000000000000000e+01,-3.000000000000000000e+00,-9.000000000000000000e+00,-4.000000000000000000e+00,-2.000000000000000000e+00,-1.000000000000000000e+00,4.318847656250000000e-01,2.065429687500000000e-01,-8.629150390625000000e-01,1.618652343750000000e-01
-9.000000000000000000e+00,4.000000000000000000e+00,-3.000000000000000000e+00,-6.000000000000000000e+00,-4.000000000000000000e+00,-3.000000000000000000e+00,-3.000000000000000000e+00,-2.000000000000000000e+00,4.318847656250000000e-01,2.065429687500000000e-01,-8.629150390625000000e-01,1.618652343750000000e-01
6.000000000000000000e+00,4.000000000000000000e+00,-6.000000000000000000e+00,-2.000000000000000000e+00,-6.000000000000000000e+00,-5.000000000000000000e+00,-3.000000000000000000e+00,-2.000000000000000000e+00,4.318847656250000000e-01,2.065429687500000000e-01,-8.629150390625000000e-01,1.618652343750000000e-01
-4.000000000000000000e+00,-1.700000000000000000e+01,5.000000000000000000e+00,-3.000000000000000000e+00,-5.000000000000000000e+00,-3.000000000000000000e+00,-2.000000000000000000e+00,-3.000000000000000000e+00,4.318847656250000000e-01,2.065429687500000000e-01,-8.629150390625000000e-01,1.618652343750000000e-01
4.000000000000000000e+00,-1.000000000000000000e+01,-9.000000000000000000e+00,-2.000000000000000000e+00,3.000000000000000000e+00,0.000000000000000000e+00,0.000000000000000000e+00,-1.000000000000000000e+00,4.317626953125000000e-01,2.062377929687500000e-01,-8.630371093750000000e-01,1.618041992187500000e-01
0.000000000000000000e+00,3.000000000000000000e+00,1.900000000000000000e+01,-1.000000000000000000e+00,2.000000000000000000e+00,5.000000000000000000e+00,2.000000000000000000e+00,3.000000000000000000e+00,4.317626953125000000e-01,2.062377929687500000e-01,-8.630371093750000000e-01,1.618041992187500000e-01
-9.000000000000000000e+00,1.000000000000000000e+00,-1.000000000000000000e+01,-1.000000000000000000e+00,2.000000000000000000e+00,1.000000000000000000e+00,0.000000000000000000e+00,-3.000000000000000000e+00,4.317626953125000000e-01,2.062377929687500000e-01,-8.630371093750000000e-01,1.618041992187500000e-01
3.000000000000000000e+00,-1.000000000000000000e+00,-3.000000000000000000e+00,1.000000000000000000e+00,1.000000000000000000e+00,-1.000000000000000000e+00,-2.000000000000000000e+00,-1.000000000000000000e+00,4.317626953125000000e-01,2.062377929687500000e-01,-8.630371093750000000e-01,1.618041992187500000e-01
-1.000000000000000000e+00,1.000000000000000000e+00,-4.000000000000000000e+00,-3.000000000000000000e+00,0.000000000000000000e+00,-1.000000000000000000e+00,0.000000000000000000e+00,0.000000000000000000e+00,4.312744140625000000e-01,2.061767578125000000e-01,-8.632812500000000000e-01,1.621704101562500000e-01
-1.000000000000000000e+00,-2.000000000000000000e+00,-8.000000000000000000e+00,-6.000000000000000000e+00,-1.300000000000000000e+01,-4.000000000000000000e+00,-1.000000000000000000e+00,-1.000000000000000000e+00,4.312744140625000000e-01,2.061767578125000000e-01,-8.632812500000000000e-01,1.621704101562500000e-01
0.000000000000000000e+00,4.000000000000000000e+00,7.000000000000000000e+00,-2.000000000000000000e+00,-3.000000000000000000e+00,-1.000000000000000000e+00,0.000000000000000000e+00,1.000000000000000000e+00,4.312744140625000000e-01,2.061767578125000000e-01,-8.632812500000000000e-01,1.621704101562500000e-01
-4.000000000000000000e+00,0.000000000000000000e+00,-3.000000000000000000e+00,9.000000000000000000e+00,1.000000000000000000e+01,3.000000000000000000e+00,-1.000000000000000000e+00,-1.000000000000000000e+00,4.312744140625000000e-01,2.061767578125000000e-01,-8.632812500000000000e-01,1.621704101562500000e-01
1.000000000000000000e+00,1.500000000000000000e+01,2.000000000000000000e+00,1.300000000000000000e+01,0.000000000000000000e+00,-1.000000000000000000e+00,-2.000000000000000000e+00,-2.000000000000000000e+00,4.305419921875000000e-01,2.066040039062500000e-01,-8.634643554687500000e-01,1.625366210937500000e-01
-2.000000000000000000e+00,-1.600000000000000000e+01,6.000000000000000000e+00,-1.200000000000000000e+01,-5.000000000000000000e+00,-5.000000000000000000e+00,-2.000000000000000000e+00,-1.000000000000000000e+00,4.305419921875000000e-01,2.066040039062500000e-01,-8.634643554687500000e-01,1.625366210937500000e-01
-5.000000000000000000e+00,-9.000000000000000000e+00,-1.100000000000000000e+01,-6.000000000000000000e+00,-6.000000000000000000e+00,-4.000000000000000000e+00,-1.000000000000000000e+00,2.000000000000000000e+00,4.305419921875000000e-01,2.066040039062500000e-01,-8.634643554687500000e-01,1.625366210937500000e-01
-2.000000000000000000e+01,-7.000000000000000000e+00,-1.200000000000000000e+01,-1.400000000000000000e+01,-5.000000000000000000e+00,-2.000000000000000000e+00,-1.000000000000000000e+00,-3.000000000000000000e+00,4.305419921875000000e-01,2.066040039062500000e-01,-8.634643554687500000e-01,1.625366210937500000e-01
0.000000000000000000e+00,4.000000000000000000e+00,9.000000000000000000e+00,4.000000000000000000e+00,1.000000000000000000e+00,0.000000000000000000e+00,0.000000000000000000e+00,-1.000000000000000000e+00,4.301757812500000000e-01,2.068481445312500000e-01,-8.636474609375000000e-01,1.622924804687500000e-01
1.000000000000000000e+00,7.000000000000000000e+00,1.000000000000000000e+00,8.000000000000000000e+00,4.000000000000000000e+00,2.000000000000000000e+00,-2.000000000000000000e+00,-2.000000000000000000e+00,4.301757812500000000e-01,2.068481445312500000e-01,-8.636474609375000000e-01,1.622924804687500000e-01
-1.000000000000000000e+00,1.000000000000000000e+00,5.000000000000000000e+00,0.000000000000000000e+00,-5.000000000000000000e+00,-2.000000000000000000e+00,-1.000000000000000000e+00,-2.000000000000000000e+00,4.301757812500000000e-01,2.068481445312500000e-01,-8.636474609375000000e-01,1.622924804687500000e-01
2.000000000000000000e+00,0.000000000000000000e+00,2.000000000000000000e+00,-3.000000000000000000e+00,3.000000000000000000e+00,0.000000000000000000e+00,-3.000000000000000000e+00,-2.000000000000000000e+00,4.301757812500000000e-01,2.068481445312500000e-01,-8.636474609375000000e-01,1.622924804687500000e-01
2.000000000000000000e+00,2.000000000000000000e+00,3.000000000000000000e+00,2.000000000000000000e+00,-1.000000000000000000e+00,3.000000000000000000e+00,-2.000000000000000000e+00,0.000000000000000000e+00,4.300537109375000000e-01,2.064208984375000000e-01,-8.638916015625000000e-01,1.619262695312500000e-01
0.000000000000000000e+00,-8.000000000000000000e+00,-1.100000000000000000e+01,-6.000000000000000000e+00,-2.000000000000000000e+00,-4.000000000000000000e+00,-1.000000000000000000e+00,0.000000000000000000e+00,4.300537109375000000e-01,2.064208984375000000e-01,-8.638916015625000000e-01,1.619262695312500000e-01
-8.000000000000000000e+00,-1.200000000000000000e+01,1.500000000000000000e+01,3.000000000000000000e+00,-1.000000000000000000e+00,-2.000000000000000000e+00,0.000000000000000000e+00,-2.000000000000000000e+00,4.300537109375000000e-01,2.064208984375000000e-01,-8.638916015625000000e-01,1.619262695312500000e-01
2.000000000000000000e+00,5.000000000000000000e+00,-2.000000000000000000e+00,1.000000000000000000e+00,-4.000000000000000000e+00,-5.000000000000000000e+00,-6.000000000000000000e+00,-3.000000000000000000e+00,4.300537109375000000e-01,2.064208984375000000e-01,-8.638916015625000000e-01,1.619262695312500000e-01
3.000000000000000000e+00,-2.000000000000000000e+00,6.000000000000000000e+00,0.000000000000000000e+00,2.000000000000000000e+00,3.000000000000000000e+00,2.000000000000000000e+00,-2.000000000000000000e+00,4.299316406250000000e-01,2.061157226562500000e-01,-8.640136718750000000e-01,1.619262695312500000e-01
5.000000000000000000e+00,1.500000000000000000e+01,-4.000000000000000000e+00,0.000000000000000000e+00,-1.000000000000000000e+00,-1.000000000000000000e+00,-2.000000000000000000e+00,-3.000000000000000000e+00,4.299316406250000000e-01,2.061157226562500000e-01,-8.640136718750000000e-01,1.619262695312500000e-01
4.000000000000000000e+00,-1.200000000000000000e+01,-1.700000000000000000e+01,0.000000000000000000e+00,-4.000000000000000000e+00,-2.000000000000000000e+00,0.000000000000000000e+00,-1.000000000000000000e+00,4.299316406250000000e-01,2.061157226562500000e-01,-8.640136718750000000e-01,1.619262695312500000e-01
7.000000000000000000e+00,4.000000000000000000e+00,4.000000000000000000e+00,-2.000000000000000000e+00,-7.000000000000000000e+00,-2.000000000000000000e+00,-1.000000000000000000e+00,0.000000000000000000e+00,4.299316406250000000e-01,2.061157226562500000e-01,-8.640136718750000000e-01,1.619262695312500000e-01
-7.000000000000000000e+00,-1.100000000000000000e+01,-1.100000000000000000e+01,-8.000000000000000000e+00,-3.000000000000000000e+00,0.000000000000000000e+00,-1.000000000000000000e+00,-3.000000000000000000e+00,4.297485351562500000e-01,2.064208984375000000e-01,-8.639526367187500000e-01,1.622314453125000000e-01
-4.000000000000000000e+00,5.000000000000000000e+00,6.000000000000000000e+00,5.000000000000000000e+00,2.000000000000000000e+00,0.000000000000000000e+00,0.000000000000000000e+00,0.000000000000000000e+00,4.297485351562500000e-01,2.064208984375000000e-01,-8.639526367187500000e-01,1.622314453125000000e-01
1.000000000000000000e+01,1.300000000000000000e+01,1.100000000000000000e+01,7.000000000000000000e+00,3.000000000000000000e+00,-2.000000000000000000e+00,-8.000000000000000000e+00,-2.000000000000000000e+00,4.297485351562500000e-01,2.064208984375000000e-01,-8.639526367187500000e-01,1.622314453125000000e-01
-2.100000000000000000e+01,-9.000000000000000000e+00,-1.300000000000000000e+01,-1.100000000000000000e+01,-3.000000000000000000e+00,4.000000000000000000e+00,6.000000000000000000e+00,-3.000000000000000000e+00,4.297485351562500000e-01,2.064208984375000000e-01,-8.639526367187500000e-01,1.622314453125000000e-01
1.000000000000000000e+00,0.000000000000000000e+00,-5.000000000000000000e+00,-5.000000000000000000e+00,-4.000000000000000000e+00,-7.000000000000000000e+00,-6.000000000000000000e+00,-3.000000000000000000e+00,4.295654296875000000e-01,2.067260742187500000e-01,-8.638916015625000000e-01,1.625976562500000000e-01
9.000000000000000000e+00,6.000000000000000000e+00,-6.000000000000000000e+00,-2.000000000000000000e+00,0.000000000000000000e+00,1.000000000000000000e+00,-1.000000000000000000e+00,0.000000000000000000e+00,4.295654296875000000e-01,2.067260742187500000e-01,-8.638916015625000000e-01,1.625976562500000000e-01
-2.200000000000000000e+01,-1.200000000000000000e+01,1.800000000000000000e+01,1.000000000000000000e+00,1.000000000000000000e+00,1.000000000000000000e+00,2.000000000000000000e+00,-1.000000000000000000e+00,4.295654296875000000e-01,2.067260742187500000e-01,-8.638916015625000000e-01,1.625976562500000000e-01
2.000000000000000000e+01,1.100000000000000000e+01,5.000000000000000000e+00,-3.000000000000000000e+00,-5.000000000000000000e+00,-5.000000000000000000e+00,-1.000000000000000000e+00,1.000000000000000000e+00,4.295654296875000000e-01,2.067260742187500000e-01,-8.638916015625000000e-01,1.625976562500000000e-01
-2.300000000000000000e+01,-1.300000000000000000e+01,-1.100000000000000000e+01,-1.000000000000000000e+00,4.000000000000000000e+00,3.000000000000000000e+00,-1.000000000000000000e+00,1.000000000000000000e+00,4.295043945312500000e-01,2.068481445312500000e-01,-8.638305664062500000e-01,1.629638671875000000e-01
1.000000000000000000e+00,2.000000000000000000e+00,-6.000000000000000000e+00,4.000000000000000000e+00,6.000000000000000000e+00,-1.000000000000000000e+00,-1.000000000000000000e+00,-2.000000000000000000e+00,4.295043945312500000e-01,2.068481445312500000e-01,-8.638305664062500000e-01,1.629638671875000000e-01
5.000000000000000000e+00,-4.000000000000000000e+00,3.000000000000000000e+00,-6.000000000000000000e+00,-7.000000000000000000e+00,-5.000000000000000000e+00,-5.000000000000000000e+00,-5.000000000000000000e+00,4.295043945312500000e-01,2.068481445312500000e-01,-8.638305664062500000e-01,1.629638671875000000e-01
1.000000000000000000e+00,3.000000000000000000e+00,6.000000000000000000e+00,-2.000000000000000000e+00,-9.000000000000000000e+00,-2.000000000000000000e+00,-1.000000000000000000e+00,1.000000000000000000e+00,4.295043945312500000e-01,2.068481445312500000e-01,-8.638305664062500000e-01,1.629638671875000000e-01
2.000000000000000000e+00,1.200000000000000000e+01,6.000000000000000000e+00,-5.000000000000000000e+00,-1.000000000000000000e+00,-2.000000000000000000e+00,2.000000000000000000e+00,1.000000000000000000e+00,4.293823242187500000e-01,2.069091796875000000e-01,-8.638916015625000000e-01,1.630249023437500000e-01
-7.000000000000000000e+00,-1.300000000000000000e+01,-7.000000000000000000e+00,-7.000000000000000000e+00,-4.000000000000000000e+00,1.000000000000000000e+00,-3.000000000000000000e+00,-5.000000000000000000e+00,4.293823242187500000e-01,2.069091796875000000e-01,-8.638916015625000000e-01,1.630249023437500000e-01
1.000000000000000000e+00,4.000000000000000000e+00,-1.000000000000000000e+01,1.200000000000000000e+01,1.400000000000000000e+01,9.000000000000000000e+00,1.000000000000000000e+00,3.000000000000000000e+00,4.293823242187500000e-01,2.069091796875000000e-01,-8.638916015625000000e-01,1.630249023437500000e-01
-1.000000000000000000e+01,1.000000000000000000e+00,1.000000000000000000e+00,-2.000000000000000000e+00,-4.000000000000000000e+00,-4.000000000000000000e+00,-1.000000000000000000e+00,-3.000000000000000000e+00,4.293823242187500000e-01,2.069091796875000000e-01,-8.638916015625000000e-01,1.630249023437500000e-01
1.100000000000000000e+01,9.000000000000000000e+00,-4.000000000000000000e+00,1.000000000000000000e+00,-2.000000000000000000e+00,0.000000000000000000e+00,-2.000000000000000000e+00,1.000000000000000000e+00,4.293823242187500000e-01,2.069091796875000000e-01,-8.638916015625000000e-01,1.630249023437500000e-01
0.000000000000000000e+00,5.000000000000000000e+00,1.000000000000000000e+01,0.000000000000000000e+00,-6.000000000000000000e+00,-5.000000000000000000e+00,-3.000000000000000000e+00,0.000000000000000000e+00,4.293823242187500000e-01,2.069091796875000000e-01,-8.638916015625000000e-01,1.630249023437500000e-01
4.000000000000000000e+00,-1.000000000000000000e+00,-7.000000000000000000e+00,-5.000000000000000000e+00,-7.000000000000000000e+00,-4.000000000000000000e+00,-1.000000000000000000e+00,1.000000000000000000e+00,4.293823242187500000e-01,2.069091796875000000e-01,-8.638916015625000000e-01,1.630249023437500000e-01
-2.000000000000000000e+00,-7.000000000000000000e+00,-1.600000000000000000e+01,2.000000000000000000e+00,1.000000000000000000e+00,0.000000000000000000e+00,-1.000000000000000000e+00,2.000000000000000000e+00,4.293823242187500000e-01,2.069091796875000000e-01,-8.638916015625000000e-01,1.630249023437500000e-01
5.000000000000000000e+00,-6.000000000000000000e+00,9.000000000000000000e+00,-2.000000000000000000e+00,-4.000000000000000000e+00,-5.000000000000000000e+00,-6.000000000000000000e+00,-3.000000000000000000e+00,4.293823242187500000e-01,2.069091796875000000e-01,-8.638916015625000000e-01,1.630249023437500000e-01
-1.100000000000000000e+01,7.000000000000000000e+00,3.000000000000000000e+00,7.000000000000000000e+00,1.300000000000000000e+01,5.000000000000000000e+00,6.000000000000000000e+00,2.000000000000000000e+00,4.293823242187500000e-01,2.069091796875000000e-01,-8.638916015625000000e-01,1.630249023437500000e-01
3.000000000000000000e+01,0.000000000000000000e+00,-1.100000000000000000e+01,-6.000000000000000000e+00,-3.000000000000000000e+00,-1.000000000000000000e+00,1.000000000000000000e+00,0.000000000000000000e+00,4.290771484375000000e-01,2.067260742187500000e-01,-8.640136718750000000e-01,1.632690429687500000e-01
-2.400000000000000000e+01,-1.000000000000000000e+01,4.000000000000000000e+00,-1.000000000000000000e+00,1.000000000000000000e+00,0.000000000000000000e+00,-3.000000000000000000e+00,-6.000000000000000000e+00,4.290771484375000000e-01,2.067260742187500000e-01,-8.640136718750000000e-01,1.632690429687500000e-01
-4.000000000000000000e+00,-8.000000000000000000e+00,-3.000000000000000000e+00,-4.000000000000000000e+00,-2.000000000000000000e+00,-3.000000000000000000e+00,-4.000000000000000000e+00,-2.000000000000000000e+00,4.290771484375000000e-01,2.067260742187500000e-01,-8.640136718750000000e-01,1.632690429687500000e-01
-2.000000000000000000e+00,-2.000000000000000000e+01,-7.000000000000000000e+00,-2.000000000000000000e+00,-8.000000000000000000e+00,-5.000000000000000000e+00,-3.000000000000000000e+00,-1.000000000000000000e+00,4.290771484375000000e-01,2.067260742187500000e-01,-8.640136718750000000e-01,1.632690429687500000e-01
7.000000000000000000e+00,1.000000000000000000e+01,-7.000000000000000000e+00,3.000000000000000000e+00,0.000000000000000000e+00,-5.000000000000000000e+00,0.000000000000000000e+00,1.000000000000000000e+00,4.287719726562500000e-01,2.068481445312500000e-01,-8.640747070312500000e-01,1.636352539062500000e-01
1.200000000000000000e+01,3.000000000000000000e+00,2.000000000000000000e+00,0.000000000000000000e+00,7.000000000000000000e+00,6.000000000000000000e+00,0.000000000000000000e+00,3.000000000000000000e+00,4.287719726562500000e-01,2.068481445312500000e-01,-8.640747070312500000e-01,1.636352539062500000e-01
2.000000000000000000e+00,5.000000000000000000e+00,0.000000000000000000e+00,0.000000000000000000e+00,-5.000000000000000000e+00,-2.000000000000000000e+00,2.000000000000000000e+00,-2.000000000000000000e+00,4.287719726562500000e-01,2.068481445312500000e-01,-8.640747070312500000e-01,1.636352539062500000e-01
-1.700000000000000000e+01,-4.000000000000000000e+00,5.000000000000000000e+00,3.000000000000000000e+00,2.000000000000000000e+00,-2.000000000000000000e+00,-1.000000000000000000e+00,-2.000000000000000000e+00,4.287719726562500000e-01,2.068481445312500000e-01,-8.640747070312500000e-01,1.636352539062500000e-01
-1.600000000000000000e+01,-1.000000000000000000e+01,1.000000000000000000e+00,-9.000000000000000000e+00,-7.000000000000000000e+00,-2.000000000000000000e+00,0.000000000000000000e+00,-2.000000000000000000e+00,4.282226562500000000e-01,2.070312500000000000e-01,-8.642578125000000000e-01,1.640014648437500000e-01
8.000000000000000000e+00,0.000000000000000000e+00,7.000000000000000000e+00,6.000000000000000000e+00,1.000000000000000000e+00,-3.000000000000000000e+00,-2.000000000000000000e+00,-2.000000000000000000e+00,4.282226562500000000e-01,2.070312500000000000e-01,-8.642578125000000000e-01,1.640014648437500000e-01
-4.000000000000000000e+00,-1.000000000000000000e+00,-1.200000000000000000e+01,-6.000000000000000000e+00,-1.000000000000000000e+00,-3.000000000000000000e+00,-3.000000000000000000e+00,-1.000000000000000000e+00,4.282226562500000000e-01,2.070312500000000000e-01,-8.642578125000000000e-01,1.640014648437500000e-01
1.300000000000000000e+01,1.100000000000000000e+01,5.000000000000000000e+00,2.000000000000000000e+00,-1.000000000000000000e+00,5.000000000000000000e+00,2.000000000000000000e+00,3.000000000000000000e+00,4.282226562500000000e-01,2.070312500000000000e-01,-8.642578125000000000e-01,1.640014648437500000e-01
-9.000000000000000000e+00,-8.000000000000000000e+00,-1.000000000000000000e+01,-2.000000000000000000e+00,1.000000000000000000e+00,-4.000000000000000000e+00,-3.000000000000000000e+00,0.000000000000000000e+00,4.277954101562500000e-01,2.072143554687500000e-01,-8.643798828125000000e-01,1.641235351562500000e-01
-7.000000000000000000e+00,8.000000000000000000e+00,1.200000000000000000e+01,5.000000000000000000e+00,-2.000000000000000000e+00,1.000000000000000000e+00,4.000000000000000000e+00,0.000000000000000000e+00,4.277954101562500000e-01,2.072143554687500000e-01,-8.643798828125000000e-01,1.641235351562500000e-01
4.000000000000000000e+00,-5.000000000000000000e+00,0.000000000000000000e+00,2.000000000000000000e+00,5.000000000000000000e+00,8.000000000000000000e+00,3.000000000000000000e+00,1.000000000000000000e+00,4.277954101562500000e-01,2.072143554687500000e-01,-8.643798828125000000e-01,1.641235351562500000e-01
-2.000000000000000000e+00,-1.000000000000000000e+01,-1.500000000000000000e+01,-1.000000000000000000e+01,-1.400000000000000000e+01,-1.000000000000000000e+01,-2.000000000000000000e+00,-3.000000000000000000e+00,4.277954101562500000e-01,2.072143554687500000e-01,-8.643798828125000000e-01,1.641235351562500000e-01
-6.000000000000000000e+00,9.000000000000000000e+00,-1.000000000000000000e+00,6.000000000000000000e+00,1.200000000000000000e+01,5.000000000000000000e+00,0.000000000000000000e+00,-2.000000000000000000e+00,4.273681640625000000e-01,2.071533203125000000e-01,-8.646240234375000000e-01,1.638793945312500000e-01
8.000000000000000000e+00,4.000000000000000000e+00,3.000000000000000000e+00,-7.000000000000000000e+00,-8.000000000000000000e+00,0.000000000000000000e+00,-4.000000000000000000e+00,-1.000000000000000000e+00,4.273681640625000000e-01,2.071533203125000000e-01,-8.646240234375000000e-01,1.638793945312500000e-01
1.000000000000000000e+00,-1.000000000000000000e+00,-8.000000000000000000e+00,4.000000000000000000e+00,0.000000000000000000e+00,-2.000000000000000000e+00,0.000000000000000000e+00,-1.000000000000000000e+00,4.273681640625000000e-01,2.071533203125000000e-01,-8.646240234375000000e-01,1.638793945312500000e-01
-5.000000000000000000e+00,3.000000000000000000e+00,7.000000000000000000e+00,-8.000000000000000000e+00,0.000000000000000000e+00,0.000000000000000000e+00,-3.000000000000000000e+00,0.000000000000000000e+00,4.273681640625000000e-01,2.071533203125000000e-01,-8.646240234375000000e-01,1.638793945312500000e-01
-2.000000000000000000e+00,-3.000000000000000000e+00,2.000000000000000000e+00,2.000000000000000000e+00,4.000000000000000000e+00,2.000000000000000000e+00,2.000000000000000000e+00,-1.000000000000000000e+00,4.269409179687500000e-01,2.069091796875000000e-01,-8.649291992187500000e-01,1.636352539062500000e-01
1.300000000000000000e+01,1.000000000000000000e+00,-9.000000000000000000e+00,-4.000000000000000000e+00,2.000000000000000000e+00,-3.000000000000000000e+00,-2.000000000000000000e+00,0.000000000000000000e+00,4.269409179687500000e-01,2.069091796875000000e-01,-8.649291992187500000e-01,1.636352539062500000e-01
4.000000000000000000e+00,1.000000000000000000e+01,1.700000000000000000e+01,-1.000000000000000000e+00,-5.000000000000000000e+00,-4.000000000000000000e+00,-3.000000000000000000e+00,-1.000000000000000000e+00,4.269409179687500000e-01,2.069091796875000000e-01,-8.649291992187500000e-01,1.636352539062500000e-01
-1.000000000000000000e+01,-2.600000000000000000e+01,-1.700000000000000000e+01,-4.000000000000000000e+00,-5.000000000000000000e+00,0.000000000000000000e+00,0.000000000000000000e+00,-3.000000000000000000e+00,4.269409179687500000e-01,2.069091796875000000e-01,-8.649291992187500000e-01,1.636352539062500000e-01
-1.400000000000000000e+01,2.000000000000000000e+00,1.700000000000000000e+01,-2.000000000000000000e+00,-5.000000000000000000e+00,2.000000000000000000e+00,0.000000000000000000e+00,-3.000000000000000000e+00,4.265136718750000000e-01,2.068481445312500000e-01,-8.651733398437500000e-01,1.637573242187500000e-01
-5.000000000000000000e+00,-4.000000000000000000e+00,-1.500000000000000000e+01,1.000000000000000000e+00,1.000000000000000000e+00,0.000000000000000000e+00,-1.000000000000000000e+00,0.000000000000000000e+00,4.265136718750000000e-01,2.068481445312500000e-01,-8.651733398437500000e-01,1.637573242187500000e-01
2.000000000000000000e+00,-1.000000000000000000e+00,-2.000000000000000000e+00,0.000000000000000000e+00,-1.000000000000000000e+00,-2.000000000000000000e+00,3.000000000000000000e+00,-1.000000000000000000e+00,4.265136718750000000e-01,2.068481445312500000e-01,-8.651733398437500000e-01,1.637573242187500000e-01
1.000000000000000000e+01,7.000000000000000000e+00,0.000000000000000000e+00,-2.000000000000000000e+00,-3.000000000000000000e+00,-4.000000000000000000e+00,-1.000000000000000000e+00,-1.000000000000000000e+00,4.265136718750000000e-01,2.068481445312500000e-01,-8.651733398437500000e-01,1.637573242187500000e-01
-3.000000000000000000e+00,-5.000000000000000000e+00,2.000000000000000000e+00,1.000000000000000000e+00,-6.000000000000000000e+00,-2.000000000000000000e+00,-3.000000000000000000e+00,-3.000000000000000000e+00,4.261474609375000000e-01,2.070312500000000000e-01,-8.652343750000000000e-01,1.640625000000000000e-01
0.000000000000000000e+00,-4.000000000000000000e+00,1.000000000000000000e+00,0.000000000000000000e+00,8.000000000000000000e+00,2.000000000000000000e+00,-3.000000000000000000e+00,0.000000000000000000e+00,4.261474609375000000e-01,2.070312500000000000e-01,-8.652343750000000000e-01,1.640625000000000000e-01
-8.000000000000000000e+00,-7.000000000000000000e+00,0.000000000000000000e+00,-5.000000000000000000e+00,-1.000000000000000000e+00,3.000000000000000000e+00,7.000000000000000000e+00,-1.000000000000000000e+00,4.261474609375000000e-01,2.070312500000000000e-01,-8.652343750000000000e-01,1.640625000000000000e-01
2.000000000000000000e+00,1.300000000000000000e+01,0.000000000000000000e+00,3.000000000000000000e+00,3.000000000000000000e+00,-1.000000000000000000e+00,-3.000000000000000000e+00,-2.000000000000000000e+00,4.261474609375000000e-01,2.070312500000000000e-01,-8.652343750000000000e-01,1.640625000000000000e-01
8.000000000000000000e+00,-1.300000000000000000e+01,-3.000000000000000000e+00,3.000000000000000000e+00,-2.000000000000000000e+00,-2.000000000000000000e+00,-1.000000000000000000e+00,-1.000000000000000000e+00,4.259643554687500000e-01,2.072143554687500000e-01,-8.651733398437500000e-01,1.644287109375000000e-01
-2.000000000000000000e+01,-2.000000000000000000e+00,-1.000000000000000000e+00,-6.000000000000000000e+00,-6.000000000000000000e+00,-3.000000000000000000e+00,-4.000000000000000000e+00,-4.000000000000000000e+00,4.259643554687500000e-01,2.072143554687500000e-01,-8.651733398437500000e-01,1.644287109375000000e-01
0.000000000000000000e+00,-1.000000000000000000e+00,1.000000000000000000e+00,0.000000000000000000e+00,1.000000000000000000e+00,2.000000000000000000e+00,-3.000000000000000000e+00,-1.000000000000000000e+00,4.259643554687500000e-01,2.072143554687500000e-01,-8.651733398437500000e-01,1.644287109375000000e-01
-3.000000000000000000e+00,8.000000000000000000e+00,1.100000000000000000e+01,9.000000000000000000e+00,1.200000000000000000e+01,-2.000000000000000000e+00,-1.000000000000000000e+00,1.000000000000000000e+00,4.259643554687500000e-01,2.072143554687500000e-01,-8.651733398437500000e-01,1.644287109375000000e-01
6.000000000000000000e+00,6.000000000000000000e+00,-1.600000000000000000e+01,-7.000000000000000000e+00,-9.000000000000000000e+00,-5.000000000000000000e+00,-3.000000000000000000e+00,0.000000000000000000e+00,4.258422851562500000e-01,2.073364257812500000e-01,-8.652343750000000000e-01,1.646118164062500000e-01
-5.000000000000000000e+00,-6.000000000000000000e+00,-5.000000000000000000e+00,-8.000000000000000000e+00,-8.000000000000000000e+00,-7.000000000000000000e+00,-2.000000000000000000e+00,-1.000000000000000000e+00,4.258422851562500000e-01,2.073364257812500000e-01,-8.652343750000000000e-01,1.646118164062500000e-01
1.000000000000000000e+00,-4.000000000000000000e+00,5.000000000000000000e+00,3.000000000000000000e+00,4.000000000000000000e+00,-2.000000000000000000e+00,-4.000000000000000000e+00,-3.000000000000000000e+00,4.258422851562500000e-01,2.073364257812500000e-01,-8.652343750000000000e-01,1.646118164062500000e-01
4.000000000000000000e+00,-3.000000000000000000e+00,-4.000000000000000000e+00,3.000000000000000000e+00,1.000000000000000000e+00,1.000000000000000000e+00,0.000000000000000000e+00,-1.000000000000000000e+00,4.258422851562500000e-01,2.073364257812500000e-01,-8.652343750000000000e-01,1.646118164062500000e-01
-8.000000000000000000e+00,2.000000000000000000e+00,7.000000000000000000e+00,2.000000000000000000e+00,1.000000000000000000e+00,1.000000000000000000e+00,2.000000000000000000e+00,0.000000000000000000e+00,4.257812500000000000e-01,2.073364257812500000e-01,-8.652343750000000000e-01,1.645507812500000000e-01
4.000000000000000000e+00,-1.000000000000000000e+00,3.000000000000000000e+00,0.000000000000000000e+00,1.000000000000000000e+00,-2.000000000000000000e+00,-1.000000000000000000e+00,-1.000000000000000000e+00,4.257812500000000000e-01,2.073364257812500000e-01,-8.652343750000000000e-01,1.645507812500000000e-01
-2.000000000000000000e+00,-3.000000000000000000e+00,-2.100000000000000000e+01,-7.000000000000000000e+00,-9.000000000000000000e+00,-1.000000000000000000e+00,-1.000000000000000000e+00,0.000000000000000000e+00,4.257812500000000000e-01,2.073364257812500000e-01,-8.652343750000000000e-01,1.645507812500000000e-01
4.000000000000000000e+00,2.000000000000000000e+00,0.000000000000000000e+00,0.000000000000000000e+00,5.000000000000000000e+00,-1.000000000000000000e+00,-2.000000000000000000e+00,-1.000000000000000000e+00,4.257812500000000000e-01,2.073364257812500000e-01,-8.652343750000000000e-01,1.645507812500000000e-01
-2.000000000000000000e+00,6.000000000000000000e+00,3.000000000000000000e+00,-2.000000000000000000e+00,-5.000000000000000000e+00,-3.000000000000000000e+00,1.000000000000000000e+00,1.000000000000000000e+00,4.258422851562500000e-01,2.070922851562500000e-01,-8.652954101562500000e-01,1.644287109375000000e-01
1.000000000000000000e+00,-1.000000000000000000e+00,-5.000000000000000000e+00,-1.000000000000000000e+00,-4.000000000000000000e+00,0.000000000000000000e+00,4.000000000000000000e+00,0.000000000000000000e+00,4.258422851562500000e-01,2.070922851562500000e-01,-8.652954101562500000e-01,1.644287109375000000e-01
-2.000000000000000000e+00,-2.000000000000000000e+00,6.000000000000000000e+00,3.000000000000000000e+00,4.000000000000000000e+00,1.000000000000000000e+00,-2.000000000000000000e+00,-2.000000000000000000e+00,4.258422851562500000e-01,2.070922851562500000e-01,-8.652954101562500000e-01,1.644287109375000000e-01
0.000000000000000000e+00,-2.000000000000000000e+00,0.000000000000000000e+00,-2.000000000000000000e+00,-1.100000000000000000e+01,-1.000000000000000000e+00,0.000000000000000000e+00,-1.000000000000000000e+00,4.258422851562500000e-01,2.070922851562500000e-01,-8.652954101562500000e-01,1.644287109375000000e-01
-8.000000000000000000e+00,-1.000000000000000000e+01,0.000000000000000000e+00,-3.000000000000000000e+00,0.000000000000000000e+00,-5.000000000000000000e+00,-3.000000000000000000e+00,-4.000000000000000000e+00,4.258422851562500000e-01,2.070922851562500000e-01,-8.652954101562500000e-01,1.644287109375000000e-01
8.000000000000000000e+00,5.000000000000000000e+00,3.000000000000000000e+00,7.000000000000000000e+00,7.000000000000000000e+00,3.000000000000000000e+00,-1.000000000000000000e+00,-1.000000000000000000e+00,4.258422851562500000e-01,2.070922851562500000e-01,-8.652954101562500000e-01,1.644287109375000000e-01
-6.000000000000000000e+00,-3.000000000000000000e+00,1.000000000000000000e+00,3.000000000000000000e+00,0.000000000000000000e+00,-5.000000000000000000e+00,-5.000000000000000000e+00,0.000000000000000000e+00,4.258422851562500000e-01,2.070922851562500000e-01,-8.652954101562500000e-01,1.644287109375000000e-01
4.000000000000000000e+00,8.000000000000000000e+00,-9.000000000000000000e+00,-1.100000000000000000e+01,-6.000000000000000000e+00,-2.000000000000000000e+00,-1.000000000000000000e+00,-3.000000000000000000e+00,4.258422851562500000e-01,2.070922851562500000e-01,-8.652954101562500000e-01,1.644287109375000000e-01
-2.100000000000000000e+01,4.000000000000000000e+00,5.000000000000000000e+00,2.000000000000000000e+00,-5.000000000000000000e+00,-1.000000000000000000e+00,-1.000000000000000000e+00,-2.000000000000000000e+00,4.255371093750000000e-01,2.072143554687500000e-01,-8.653564453125000000e-01,1.647949218750000000e-01
-2.000000000000000000e+00,-1.500000000000000000e+01,-1.100000000000000000e+01,-9.000000000000000000e+00,-6.000000000000000000e+00,0.000000000000000000e+00,-1.000000000000000000e+00,-1.000000000000000000e+00,4.255371093750000000e-01,2.072143554687500000e-01,-8.653564453125000000e-01,1.647949218750000000e-01
-4.000000000000000000e+00,-4.000000000000000000e+00,-2.000000000000000000e+00,2.000000000000000000e+00,5.000000000000000000e+00,-4.000000000000000000e+00,0.000000000000000000e+00,0.000000000000000000e+00,4.255371093750000000e-01,2.072143554687500000e-01,-8.653564453125000000e-01,1.647949218750000000e-01
2.000000000000000000e+00,1.000000000000000000e+00,9.000000000000000000e+00,1.000000000000000000e+00,-2.000000000000000000e+00,4.000000000000000000e+00,1.000000000000000000e+00,0.000000000000000000e+00,4.255371093750000000e-01,2.072143554687500000e-01,-8.653564453125000000e-01,1.647949218750000000e-01
2.600000000000000000e+01,1.100000000000000000e+01,0.000000000000000000e+00,0.000000000000000000e+00,5.000000000000000000e+00,-1.000000000000000000e+00,-4.000000000000000000e+00,0.000000000000000000e+00,4.250488281250000000e-01,2.073974609375000000e-01,-8.654785156250000000e-01,1.651000976562500000e-01
-1.200000000000000000e+01,-1.000000000000000000e+01,1.000000000000000000e+00,5.000000000000000000e+00,2.000000000000000000e+00,-1.000000000000000000e+00,0.000000000000000000e+00,-3.000000000000000000e+00,4.250488281250000000e-01,2.073974609375000000e-01,-8.654785156250000000e-01,1.651000976562500000e-01
-1.500000000000000000e+01,-4.000000000000000000e+00,0.000000000000000000e+00,-5.000000000000000000e+00,-7.000000000000000000e+00,-4.000000000000000000e+00,-4.000000000000000000e+00,-3.000000000000000000e+00,4.250488281250000000e-01,2.073974609375000000e-01,-8.654785156250000000e-01,1.651000976562500000e-01
-2.000000000000000000e+00,3.000000000000000000e+00,-1.600000000000000000e+01,7.000000000000000000e+00,0.000000000000000000e+00,2.000000000000000000e+00,-2.000000000000000000e+00,0.000000000000000000e+00,4.250488281250000000e-01,2.073974609375000000e-01,-8.654785156250000000e-01,1.651000976562500000e-01
1.000000000000000000e+01,-5.000000000000000000e+00,-2.000000000000000000e+00,-8.000000000000000000e+00,1.000000000000000000e+00,0.000000000000000000e+00,0.000000000000000000e+00,2.000000000000000000e+00,4.247436523437500000e-01,2.075195312500000000e-01,-8.656005859375000000e-01,1.651000976562500000e-01
5.000000000000000000e+00,3.000000000000000000e+00,9.000000000000000000e+00,5.000000000000000000e+00,-2.000000000000000000e+00,2.000000000000000000e+00,1.000000000000000000e+00,0.000000000000000000e+00,4.247436523437500000e-01,2.075195312500000000e-01,-8.656005859375000000e-01,1.651000976562500000e-01
8.000000000000000000e+00,2.000000000000000000e+00,-6.000000000000000000e+00,0.000000000000000000e+00,6.000000000000000000e+00,4.000000000000000000e+00,1.000000000000000000e+00,-1.000000000000000000e+00,4.247436523437500000e-01,2.075195312500000000e-01,-8.656005859375000000e-01,1.651000976562500000e-01
-4.000000000000000000e+00,-1.000000000000000000e+00,1.300000000000000000e+01,7.000000000000000000e+00,-6.000000000000000000e+00,-7.000000000000000000e+00,-2.000000000000000000e+00,0.000000000000000000e+00,4.247436523437500000e-01,2.075195312500000000e-01,-8.656005859375000000e-01,1.651000976562500000e-01
-6.000000000000000000e+00,0.000000000000000000e+00,-1.400000000000000000e+01,-1.200000000000000000e+01,5.000000000000000000e+00,2.000000000000000000e+00,2.000000000000000000e+00,-3.000000000000000000e+00,4.244995117187500000e-01,2.073364257812500000e-01,-8.657836914062500000e-01,1.649169921875000000e-01
-7.000000000000000000e+00,-7.000000000000000000e+00,0.000000000000000000e+00,-7.000000000000000000e+00,-1.400000000000000000e+01,-6.000000000000000000e+00,0.000000000000000000e+00,-1.000000000000000000e+00,4.244995117187500000e-01,2.073364257812500000e-01,-8.657836914062500000e-01,1.649169921875000000e-01
4.000000000000000000e+00,8.000000000000000000e+00,4.000000000000000000e+00,-1.000000000000000000e+00,3.000000000000000000e+00,2.000000000000000000e+00,3.000000000000000000e+00,0.000000000000000000e+00,4.244995117187500000e-01,2.073364257812500000e-01,-8.657836914062500000e-01,1.649169921875000000e-01
-4.000000000000000000e+00,-2.000000000000000000e+00,-2.000000000000000000e+00,4.000000000000000000e+00,5.000000000000000000e+00,1.000000000000000000e+00,1.000000000000000000e+00,0.000000000000000000e+00,4.244995117187500000e-01,2.073364257812500000e-01,-8.657836914062500000e-01,1.649169921875000000e-01
-7.000000000000000000e+00,-5.000000000000000000e+00,-3.000000000000000000e+00,4.000000000000000000e+00,-4.000000000000000000e+00,-4.000000000000000000e+00,-2.000000000000000000e+00,-3.000000000000000000e+00,4.241943359375000000e-01,2.071533203125000000e-01,-8.659667968750000000e-01,1.649169921875000000e-01
4.000000000000000000e+00,6.000000000000000000e+00,-2.000000000000000000e+00,0.000000000000000000e+00,-1.000000000000000000e+00,-4.000000000000000000e+00,-4.000000000000000000e+00,0.000000000000000000e+00,4.241943359375000000e-01,2.071533203125000000e-01,-8.659667968750000000e-01,1.649169921875000000e-01
5.000000000000000000e+00,-9.000000000000000000e+00,-2.000000000000000000e+00,-6.000000000000000000e+00,-3.000000000000000000e+00,2.000000000000000000e+00,1.000000000000000000e+00,-1.000000000000000000e+00,4.241943359375000000e-01,2.071533203125000000e-01,-8.659667968750000000e-01,1.649169921875000000e-01
3.000000000000000000e+00,5.000000000000000000e+00,0.000000000000000000e+00,-6.000000000000000000e+00,-3.000000000000000000e+00,-2.000000000000000000e+00,1.000000000000000000e+00,-2.000000000000000000e+00,4.241943359375000000e-01,2.071533203125000000e-01,-8.659667968750000000e-01,1.649169921875000000e-01
-1.200000000000000000e+01,1.000000000000000000e+00,5.000000000000000000e+00,7.000000000000000000e+00,2.000000000000000000e+00,3.000000000000000000e+00,4.000000000000000000e+00,1.000000000000000000e+00,4.237670898437500000e-01,2.072753906250000000e-01,-8.661499023437500000e-01,1.651000976562500000e-01
5.000000000000000000e+00,-3.000000000000000000e+00,3.000000000000000000e+00,3.000000000000000000e+00,7.000000000000000000e+00,-1.000000000000000000e+00,-3.000000000000000000e+00,-1.000000000000000000e+00,4.237670898437500000e-01,2.072753906250000000e-01,-8.661499023437500000e-01,1.651000976562500000e-01
4.000000000000000000e+00,6.000000000000000000e+00,-4.000000000000000000e+00,0.000000000000000000e+00,-2.000000000000000000e+00,-5.000000000000000000e+00,-5.000000000000000000e+00,1.000000000000000000e+00,4.237670898437500000e-01,2.072753906250000000e-01,-8.661499023437500000e-01,1.651000976562500000e-01
1.000000000000000000e+00,-1.100000000000000000e+01,-9.000000000000000000e+00,-6.000000000000000000e+00,-1.000000000000000000e+00,-2.000000000000000000e+00,-6.000000000000000000e+00,-2.000000000000000000e+00,4.237670898437500000e-01,2.072753906250000000e-01,-8.661499023437500000e-01,1.651000976562500000e-01
-9.000000000000000000e+00,3.000000000000000000e+00,-3.000000000000000000e+00,-6.000000000000000000e+00,-1.100000000000000000e+01,-6.000000000000000000e+00,-1.000000000000000000e+00,2.000000000000000000e+00,4.233398437500000000e-01,2.073974609375000000e-01,-8.662719726562500000e-01,1.654052734375000000e-01
-5.000000000000000000e+00,-2.100000000000000000e+01,1.000000000000000000e+00,-1.000000000000000000e+00,0.000000000000000000e+00,0.000000000000000000e+00,0.000000000000000000e+00,-1.000000000000000000e+00,4.233398437500000000e-01,2.073974609375000000e-01,-8.662719726562500000e-01,1.654052734375000000e-01
4.000000000000000000e+00,8.000000000000000000e+00,-3.000000000000000000e+00,4.000000000000000000e+00,5.000000000000000000e+00,2.000000000000000000e+00,-1.000000000000000000e+00,-3.000000000000000000e+00,4.233398437500000000e-01,2.073974609375000000e-01,-8.662719726562500000e-01,1.654052734375000000e-01
-1.000000000000000000e+00,-7.000000000000000000e+00,5.000000000000000000e+00,-1.000000000000000000e+00,2.000000000000000000e+00,-5.000000000000000000e+00,-3.000000000000000000e+00,-2.000000000000000000e+00,4.233398437500000000e-01,2.073974609375000000e-01,-8.662719726562500000e-01,1.654052734375000000e-01
5.000000000000000000e+00,8.000000000000000000e+00,0.000000000000000000e+00,7.000000000000000000e+00,-2.000000000000000000e+00,-2.000000000000000000e+00,-2.000000000000000000e+00,1.000000000000000000e+00,4.230346679687500000e-01,2.075195312500000000e-01,-8.663330078125000000e-01,1.656494140625000000e-01
2.000000000000000000e+00,1.000000000000000000e+01,3.000000000000000000e+00,-5.000000000000000000e+00,4.000000000000000000e+00,4.000000000000000000e+00,4.000000000000000000e+00,-1.000000000000000000e+00,4.230346679687500000e-01,2.075195312500000000e-01,-8.663330078125000000e-01,1.656494140625000000e-01
0.000000000000000000e+00,-7.000000000000000000e+00,3.000000000000000000e+00,-8.000000000000000000e+00,-6.000000000000000000e+00,-4.000000000000000000e+00,-7.000000000000000000e+00,-1.000000000000000000e+00,4.230346679687500000e-01,2.075195312500000000e-01,-8.663330078125000000e-01,1.656494140625000000e-01
-4.000000000000000000e+00,2.000000000000000000e+00,3.000000000000000000e+00,-4.000000000000000000e+00,-4.000000000000000000e+00,1.000000000000000000e+00,8.000000000000000000e+00,1.000000000000000000e+00,4.230346679687500000e-01,2.075195312500000000e-01,-8.663330078125000000e-01,1.656494140625000000e-01
0.000000000000000000e+00,-7.000000000000000000e+00,9.000000000000000000e+00,4.000000000000000000e+00,-5.000000000000000000e+00,-4.000000000000000000e+00,-3.000000000000000000e+00,-2.000000000000000000e+00,4.228515625000000000e-01,2.073364257812500000e-01,-8.664550781250000000e-01,1.657104492187500000e-01
-5.000000000000000000e+00,-8.000000000000000000e+00,-2.000000000000000000e+01,-1.100000000000000000e+01,0.000000000000000000e+00,-2.000000000000000000e+00,-3.000000000000000000e+00,-1.000000000000000000e+00,4.228515625000000000e-01,2.073364257812500000e-01,-8.664550781250000000e-01,1.657104492187500000e-01
9.000000000000000000e+00,1.200000000000000000e+01,6.000000000000000000e+00,7.000000000000000000e+00,-5.000000000000000000e+00,-1.000000000000000000e+00,1.000000000000000000e+00,1.000000000000000000e+00,4.228515625000000000e-01,2.073364257812500000e-01,-8.664550781250000000e-01,1.657104492187500000e-01
-1.400000000000000000e+01,-1.900000000000000000e+01,-2.000000000000000000e+00,-1.200000000000000000e+01,-1.000000000000000000e+01,-4.000000000000000000e+00,-6.000000000000000000e+00,-3.000000000000000000e+00,4.228515625000000000e-01,2.073364257812500000e-01,-8.664550781250000000e-01,1.657104492187500000e-01
0.000000000000000000e+00,3.000000000000000000e+00,-3.000000000000000000e+00,6.000000000000000000e+00,6.000000000000000000e+00,4.000000000000000000e+00,2.000000000000000000e+00,-1.000000000000000000e+00,4.229125976562500000e-01,2.070312500000000000e-01,-8.665161132812500000e-01,1.657104492187500000e-01
2.000000000000000000e+00,5.000000000000000000e+00,2.000000000000000000e+00,5.000000000000000000e+00,3.000000000000000000e+00,-3.000000000000000000e+00,-7.000000000000000000e+00,-2.000000000000000000e+00,4.229125976562500000e-01,2.070312500000000000e-01,-8.665161132812500000e-01,1.657104492187500000e-01
-7.000000000000000000e+00,0.000000000000000000e+00,-7.000000000000000000e+00,-1.000000000000000000e+00,0.000000000000000000e+00,1.000000000000000000e+00,6.000000000000000000e+00,-1.000000000000000000e+00,4.229125976562500000e-01,2.070312500000000000e-01,-8.665161132812500000e-01,1.657104492187500000e-01
1.000000000000000000e+00,-5.000000000000000000e+00,-2.000000000000000000e+00,1.000000000000000000e+00,-1.000000000000000000e+00,0.000000000000000000e+00,-1.000000000000000000e+00,0.000000000000000000e+00,4.229125976562500000e-01,2.070312500000000000e-01,-8.665161132812500000e-01,1.657104492187500000e-01
-4.000000000000000000e+00,-6.000000000000000000e+00,2.000000000000000000e+00,-5.000000000000000000e+00,-7.000000000000000000e+00,-1.000000000000000000e+00,2.000000000000000000e+00,-2.000000000000000000e+00,4.229125976562500000e-01,2.067260742187500000e-01,-8.665771484375000000e-01,1.657714843750000000e-01
1.100000000000000000e+01,6.000000000000000000e+00,-1.000000000000000000e+00,0.000000000000000000e+00,0.000000000000000000e+00,-1.000000000000000000e+00,-4.000000000000000000e+00,0.000000000000000000e+00,4.229125976562500000e-01,2.067260742187500000e-01,-8.665771484375000000e-01,1.657714843750000000e-01
-1.400000000000000000e+01,-3.000000000000000000e+00,0.000000000000000000e+00,-2.000000000000000000e+00,-6.000000000000000000e+00,-2.000000000000000000e+00,1.000000000000000000e+00,0.000000000000000000e+00,4.229125976562500000e-01,2.067260742187500000e-01,-8.665771484375000000e-01,1.657714843750000000e-01
6.000000000000000000e+00,6.000000000000000000e+00,8.000000000000000000e+00,3.000000000000000000e+00,9.000000000000000000e+00,1.000000000000000000e+00,-3.000000000000000000e+00,1.000000000000000000e+00,4.229125976562500000e-01,2.067260742187500000e-01,-8.665771484375000000e-01,1.657714843750000000e-01
-3.000000000000000000e+00,0.000000000000000000e+00,-1.300000000000000000e+01,-3.000000000000000000e+00,-4.000000000000000000e+00,0.000000000000000000e+00,-4.000000000000000000e+00,-1.000000000000000000e+00,4.229125976562500000e-01,2.067260742187500000e-01,-8.665771484375000000e-01,1.657714843750000000e-01
9.000000000000000000e+00,-1.100000000000000000e+01,6.000000000000000000e+00,3.000000000000000000e+00,4.000000000000000000e+00,1.000000000000000000e+00,3.000000000000000000e+00,1.000000000000000000e+00,4.229125976562500000e-01,2.067260742187500000e-01,-8.665771484375000000e-01,1.657714843750000000e-01
-1.800000000000000000e+01,-5.000000000000000000e+00,-1.200000000000000000e+01,-4.000000000000000000e+00,-5.000000000000000000e+00,-3.000000000000000000e+00,-4.000000000000000000e+00,-5.000000000000000000e+00,4.229125976562500000e-01,2.067260742187500000e-01,-8.665771484375000000e-01,1.657714843750000000e-01
-2.000000000000000000e+00,4.000000000000000000e+00,1.000000000000000000e+01,-3.000000000000000000e+00,-7.000000000000000000e+00,-6.000000000000000000e+00,0.000000000000000000e+00,-2.000000000000000000e+00,4.229125976562500000e-01,2.067260742187500000e-01,-8.665771484375000000e-01,1.657714843750000000e-01
3.000000000000000000e+00,3.000000000000000000e+00,-1.300000000000000000e+01,-2.000000000000000000e+00,6.000000000000000000e+00,3.000000000000000000e+00,1.000000000000000000e+00,-2.000000000000000000e+00,4.226684570312500000e-01,2.068481445312500000e-01,-8.666381835937500000e-01,1.660156250000000000e-01
-2.000000000000000000e+00,-3.000000000000000000e+00,-1.000000000000000000e+00,-2.000000000000000000e+00,-2.000000000000000000e+00,0.000000000000000000e+00,0.000000000000000000e+00,-3.000000000000000000e+00,4.226684570312500000e-01,2.068481445312500000e-01,-8.666381835937500000e-01,1.660156250000000000e-01
8.000000000000000000e+00,-1.000000000000000000e+01,2.000000000000000000e+00,7.000000000000000000e+00,-2.000000000000000000e+00,-1.000000000000000000e+00,0.000000000000000000e+00,2.000000000000000000e+00,4.226684570312500000e-01,2.068481445312500000e-01,-8.666381835937500000e-01,1.660156250000000000e-01
3.000000000000000000e+00,8.000000000000000000e+00,-1.100000000000000000e+01,-1.000000000000000000e+01,-2.000000000000000000e+00,1.000000000000000000e+00,-2.000000000000000000e+00,0.000000000000000000e+00,4.226684570312500000e-01,2.068481445312500000e-01,-8.666381835937500000e-01,1.660156250000000000e-01
-5.000000000000000000e+00,-2.000000000000000000e+00,9.000000000000000000e+00,-7.000000000000000000e+00,3.000000000000000000e+00,-3.000000000000000000e+00,-3.000000000000000000e+00,2.000000000000000000e+00,4.223632812500000000e-01,2.069091796875000000e-01,-8.666992187500000000e-01,1.664428710937500000e-01
-2.000000000000000000e+01,4.000000000000000000e+00,-7.000000000000000000e+00,2.000000000000000000e+01,3.000000000000000000e+00,4.000000000000000000e+00,5.000000000000000000e+00,1.000000000000000000e+00,4.223632812500000000e-01,2.069091796875000000e-01,-8.666992187500000000e-01,1.664428710937500000e-01
1.700000000000000000e+01,1.000000000000000000e+00,-3.000000000000000000e+00,-1.100000000000000000e+01,-1.000000000000000000e+00,-2.000000000000000000e+00,-4.000000000000000000e+00,-2.000000000000000000e+00,4.223632812500000000e-01,2.069091796875000000e-01,-8.666992187500000000e-01,1.664428710937500000e-01
3.000000000000000000e+00,-6.000000000000000000e+00,2.000000000000000000e+00,2.000000000000000000e+00,-5.000000000000000000e+00,-2.000000000000000000e+00,-4.000000000000000000e+00,-1.000000000000000000e+00,4.223632812500000000e-01,2.069091796875000000e-01,-8.666992187500000000e-01,1.664428710937500000e-01
-3.000000000000000000e+00,-1.000000000000000000e+01,-2.600000000000000000e+01,-6.000000000000000000e+00,-6.000000000000000000e+00,-4.000000000000000000e+00,0.000000000000000000e+00,0.000000000000000000e+00,4.219970703125000000e-01,2.069091796875000000e-01,-8.667602539062500000e-01,1.668701171875000000e-01
0.000000000000000000e+00,1.500000000000000000e+01,1.000000000000000000e+00,-6.000000000000000000e+00,-3.000000000000000000e+00,2.000000000000000000e+00,1.000000000000000000e+00,0.000000000000000000e+00,4.219970703125000000e-01,2.069091796875000000e-01,-8.667602539062500000e-01,1.668701171875000000e-01
-7.000000000000000000e+00,-7.000000000000000000e+00,0.000000000000000000e+00,0.000000000000000000e+00,9.000000000000000000e+00,0.000000000000000000e+00,1.000000000000000000e+00,0.000000000000000000e+00,4.219970703125000000e-01,2.069091796875000000e-01,-8.667602539062500000e-01,1.668701171875000000e-01
-3.000000000000000000e+00,7.000000000000000000e+00,4.000000000000000000e+00,-1.000000000000000000e+00,-5.000000000000000000e+00,-1.000000000000000000e+00,0.000000000000000000e+00,-3.000000000000000000e+00,4.219970703125000000e-01,2.069091796875000000e-01,-8.667602539062500000e-01,1.668701171875000000e-01
-3.000000000000000000e+00,-1.300000000000000000e+01,4.000000000000000000e+00,-4.000000000000000000e+00,-1.000000000000000000e+00,3.000000000000000000e+00,1.000000000000000000e+00,-3.000000000000000000e+00,4.216308593750000000e-01,2.069091796875000000e-01,-8.669433593750000000e-01,1.668090820312500000e-01
3.000000000000000000e+00,-6.000000000000000000e+00,-2.000000000000000000e+00,-1.000000000000000000e+00,-5.000000000000000000e+00,-6.000000000000000000e+00,0.000000000000000000e+00,0.000000000000000000e+00,4.216308593750000000e-01,2.069091796875000000e-01,-8.669433593750000000e-01,1.668090820312500000e-01
5.000000000000000000e+00,8.000000000000000000e+00,-4.000000000000000000e+00,3.000000000000000000e+00,-2.000000000000000000e+00,-2.000000000000000000e+00,2.000000000000000000e+00,-1.000000000000000000e+00,4.216308593750000000e-01,2.069091796875000000e-01,-8.669433593750000000e-01,1.668090820312500000e-01
8.000000000000000000e+00,-2.000000000000000000e+00,-1.000000000000000000e+00,-6.000000000000000000e+00,1.000000000000000000e+00,0.000000000000000000e+00,-1.000000000000000000e+00,2.000000000000000000e+00,4.216308593750000000e-01,2.069091796875000000e-01,-8.669433593750000000e-01,1.668090820312500000e-01
-2.500000000000000000e+01,2.000000000000000000e+00,-4.000000000000000000e+00,5.000000000000000000e+00,3.000000000000000000e+00,4.000000000000000000e+00,4.000000000000000000e+00,-2.000000000000000000e+00,4.214477539062500000e-01,2.064819335937500000e-01,-8.671875000000000000e-01,1.666870117187500000e-01
2.000000000000000000e+00,3.000000000000000000e+00,0.000000000000000000e+00,-4.000000000000000000e+00,-4.000000000000000000e+00,-3.000000000000000000e+00,-6.000000000000000000e+00,-4.000000000000000000e+00,4.214477539062500000e-01,2.064819335937500000e-01,-8.671875000000000000e-01,1.666870117187500000e-01
5.000000000000000000e+00,1.000000000000000000e+00,8.000000000000000000e+00,-4.000000000000000000e+00,-3.000000000000000000e+00,-2.000000000000000000e+00,-2.000000000000000000e+00,0.000000000000000000e+00,4.214477539062500000e-01,2.064819335937500000e-01,-8.671875000000000000e-01,1.666870117187500000e-01
-1.300000000000000000e+01,-9.000000000000000000e+00,-1.100000000000000000e+01,0.000000000000000000e+00,0.000000000000000000e+00,-3.000000000000000000e+00,-2.000000000000000000e+00,-5.000000000000000000e+00,4.214477539062500000e-01,2.064819335937500000e-01,-8.671875000000000000e-01,1.666870117187500000e-01
7.000000000000000000e+00,-9.000000000000000000e+00,-3.000000000000000000e+00,2.000000000000000000e+00,-1.000000000000000000e+00,3.000000000000000000e+00,-2.000000000000000000e+00,0.000000000000000000e+00,4.212036132812500000e-01,2.061767578125000000e-01,-8.673706054687500000e-01,1.666870117187500000e-01
-3.000000000000000000e+00,1.000000000000000000e+01,-7.000000000000000000e+00,-8.000000000000000000e+00,-7.000000000000000000e+00,-4.000000000000000000e+00,-1.000000000000000000e+00,0.000000000000000000e+00,4.212036132812500000e-01,2.061767578125000000e-01,-8.673706054687500000e-01,1.666870117187500000e-01
0.000000000000000000e+00,-4.000000000000000000e+00,3.000000000000000000e+00,0.000000000000000000e+00,6.000000000000000000e+00,7.000000000000000000e+00,-1.000000000000000000e+00,-1.000000000000000000e+00,4.212036132812500000e-01,2.061767578125000000e-01,-8.673706054687500000e-01,1.666870117187500000e-01
-5.000000000000000000e+00,2.000000000000000000e+00,-5.000000000000000000e+00,2.000000000000000000e+00,1.000000000000000000e+00,-1.000000000000000000e+00,-2.000000000000000000e+00,0.000000000000000000e+00,4.212036132812500000e-01,2.061767578125000000e-01,-8.673706054687500000e-01,1.666870117187500000e-01
2.000000000000000000e+00,7.000000000000000000e+00,-1.000000000000000000e+00,8.000000000000000000e+00,1.000000000000000000e+00,-5.000000000000000000e+00,-4.000000000000000000e+00,-1.000000000000000000e+00,4.207763671875000000e-01,2.062988281250000000e-01,-8.674926757812500000e-01,1.669921875000000000e-01
1.000000000000000000e+00,1.000000000000000000e+00,4.000000000000000000e+00,-6.000000000000000000e+00,-5.000000000000000000e+00,-1.000000000000000000e+00,-4.000000000000000000e+00,-3.000000000000000000e+00,4.207763671875000000e-01,2.062988281250000000e-01,-8.674926757812500000e-01,1.669921875000000000e-01
1.700000000000000000e+01,-1.000000000000000000e+01,-3.000000000000000000e+00,-1.300000000000000000e+01,-1.400000000000000000e+01,-8.000000000000000000e+00,-3.000000000000000000e+00,0.000000000000000000e+00,4.207763671875000000e-01,2.062988281250000000e-01,-8.674926757812500000e-01,1.669921875000000000e-01
-1.000000000000000000e+01,0.000000000000000000e+00,0.000000000000000000e+00,1.200000000000000000e+01,8.000000000000000000e+00,3.000000000000000000e+00,3.000000000000000000e+00,1.000000000000000000e+00,4.207763671875000000e-01,2.062988281250000000e-01,-8.674926757812500000e-01,1.669921875000000000e-01
3.000000000000000000e+00,-9.000000000000000000e+00,2.000000000000000000e+01,2.000000000000000000e+00,1.000000000000000000e+00,-2.000000000000000000e+00,-2.000000000000000000e+00,-2.000000000000000000e+00,4.203491210937500000e-01,2.064819335937500000e-01,-8.676147460937500000e-01,1.671752929687500000e-01
-1.000000000000000000e+01,-1.300000000000000000e+01,-2.000000000000000000e+00,3.000000000000000000e+00,4.000000000000000000e+00,1.000000000000000000e+00,3.000000000000000000e+00,-2.000000000000000000e+00,4.203491210937500000e-01,2.064819335937500000e-01,-8.676147460937500000e-01,1.671752929687500000e-01
-5.000000000000000000e+00,2.000000000000000000e+00,-8.000000000000000000e+00,-3.000000000000000000e+00,-1.000000000000000000e+00,-3.000000000000000000e+00,-1.000000000000000000e+00,-1.000000000000000000e+00,4.203491210937500000e-01,2.064819335937500000e-01,-8.676147460937500000e-01,1.671752929687500000e-01
2.000000000000000000e+00,6.000000000000000000e+00,-3.000000000000000000e+00,-3.000000000000000000e+00,-4.000000000000000000e+00,0.000000000000000000e+00,0.000000000000000000e+00,1.000000000000000000e+00,4.203491210937500000e-01,2.064819335937500000e-01,-8.676147460937500000e-01,1.671752929687500000e-01
1.700000000000000000e+01,0.000000000000000000e+00,5.000000000000000000e+00,-1.000000000000000000e+00,3.000000000000000000e+00,1.000000000000000000e+00,0.000000000000000000e+00,2.000000000000000000e+00,4.200439453125000000e-01,2.064208984375000000e-01,-8.677368164062500000e-01,1.672973632812500000e-01
-2.300000000000000000e+01,0.000000000000000000e+00,1.000000000000000000e+00,-2.000000000000000000e+00,-1.000000000000000000e+01,-8.000000000000000000e+00,-3.000000000000000000e+00,-3.000000000000000000e+00,4.200439453125000000e-01,2.064208984375000000e-01,-8.677368164062500000e-01,1.672973632812500000e-01
0.000000000000000000e+00,4.000000000000000000e+00,-5.000000000000000000e+00,-9.000000000000000000e+00,2.000000000000000000e+00,0.000000000000000000e+00,-1.000000000000000000e+00,-1.000000000000000000e+00,4.200439453125000000e-01,2.064208984375000000e-01,-8.677368164062500000e-01,1.672973632812500000e-01
-5.000000000000000000e+00,-2.100000000000000000e+01,1.000000000000000000e+00,3.000000000000000000e+00,6.000000000000000000e+00,1.000000000000000000e+01,4.000000000000000000e+00,0.000000000000000000e+00,4.200439453125000000e-01,2.064208984375000000e-01,-8.677368164062500000e-01,1.672973632812500000e-01
3.000000000000000000e+00,3.000000000000000000e+00,-1.000000000000000000e+01,4.000000000000000000e+00,9.000000000000000000e+00,4.000000000000000000e+00,0.000000000000000000e+00,0.000000000000000000e+00,4.197998046875000000e-01,2.061767578125000000e-01,-8.679199218750000000e-01,1.671752929687500000e-01
9.000000000000000000e+00,5.000000000000000000e+00,2.000000000000000000e+00,-1.000000000000000000e+00,1.000000000000000000e+00,0.000000000000000000e+00,-3.000000000000000000e+00,0.000000000000000000e+00,4.197998046875000000e-01,2.061767578125000000e-01,-8.679199218750000000e-01,1.671752929687500000e-01
-1.000000000000000000e+01,-7.000000000000000000e+00,-3.000000000000000000e+00,3.000000000000000000e+00,-5.000000000000000000e+00,-1.000000000000000000e+00,-2.000000000000000000e+00,-3.000000000000000000e+00,4.197998046875000000e-01,2.061767578125000000e-01,-8.679199218750000000e-01,1.671752929687500000e-01
-2.000000000000000000e+00,5.000000000000000000e+00,-4.000000000000000000e+00,-4.000000000000000000e+00,-1.000000000000000000e+01,-6.000000000000000000e+00,-2.000000000000000000e+00,-3.000000000000000000e+00,4.197998046875000000e-01,2.061767578125000000e-01,-8.679199218750000000e-01,1.671752929687500000e-01
4.000000000000000000e+00,3.000000000000000000e+00,1.000000000000000000e+01,-3.000000000000000000e+00,-2.000000000000000000e+00,-7.000000000000000000e+00,-8.000000000000000000e+00,-1.000000000000000000e+00,4.197998046875000000e-01,2.061767578125000000e-01,-8.679199218750000000e-01,1.671752929687500000e-01
1.100000000000000000e+01,-1.000000000000000000e+01,-4.000000000000000000e+00,-2.000000000000000000e+00,4.000000000000000000e+00,3.000000000000000000e+00,7.000000000000000000e+00,2.000000000000000000e+00,4.197998046875000000e-01,2.061767578125000000e-01,-8.679199218750000000e-01,1.671752929687500000e-01
-3.700000000000000000e+01,-2.000000000000000000e+00,-1.500000000000000000e+01,-9.000000000000000000e+00,-1.300000000000000000e+01,-8.000000000000000000e+00,-5.000000000000000000e+00,-2.000000000000000000e+00,4.197998046875000000e-01,2.061767578125000000e-01,-8.679199218750000000e-01,1.671752929687500000e-01
7.000000000000000000e+00,-4.000000000000000000e+00,2.400000000000000000e+01,4.000000000000000000e+00,3.000000000000000000e+00,6.000000000000000000e+00,5.000000000000000000e+00,-1.000000000000000000e+00,4.197998046875000000e-01,2.061767578125000000e-01,-8.679199218750000000e-01,1.671752929687500000e-01
-9.000000000000000000e+00,6.000000000000000000e+00,0.000000000000000000e+00,3.000000000000000000e+00,1.300000000000000000e+01,6.000000000000000000e+00,1.000000000000000000e+00,-1.000000000000000000e+00,4.197387695312500000e-01,2.061767578125000000e-01,-8.679809570312500000e-01,1.671752929687500000e-01
0.000000000000000000e+00,3.000000000000000000e+00,0.000000000000000000e+00,1.000000000000000000e+00,2.000000000000000000e+00,-1.000000000000000000e+00,-3.000000000000000000e+00,-2.000000000000000000e+00,4.197387695312500000e-01,2.061767578125000000e-01,-8.679809570312500000e-01,1.671752929687500000e-01
