1.000000000000000000e+00,1.000000000000000000e+00,-6.000000000000000000e+00,8.000000000000000000e+00,3.000000000000000000e+00,0.000000000000000000e+00,4.000000000000000000e+00,3.000000000000000000e+00,3.937377929687500000e-01,1.704711914062500000e-01,-9.000854492187500000e-01,-7.629394531250000000e-02
1.000000000000000000e+00,1.000000000000000000e+00,2.600000000000000000e+01,2.700000000000000000e+01,7.000000000000000000e+00,7.000000000000000000e+00,0.000000000000000000e+00,2.000000000000000000e+00,3.937377929687500000e-01,1.704711914062500000e-01,-9.000854492187500000e-01,-7.629394531250000000e-02
-6.000000000000000000e+00,2.000000000000000000e+00,3.500000000000000000e+01,-8.000000000000000000e+00,-5.000000000000000000e+00,-4.000000000000000000e+00,-8.000000000000000000e+00,-6.000000000000000000e+00,3.937377929687500000e-01,1.704711914062500000e-01,-9.000854492187500000e-01,-7.629394531250000000e-02
-3.000000000000000000e+00,-6.000000000000000000e+00,-2.400000000000000000e+01,-2.500000000000000000e+01,-7.000000000000000000e+00,-6.000000000000000000e+00,2.000000000000000000e+00,0.000000000000000000e+00,3.937377929687500000e-01,1.704711914062500000e-01,-9.000854492187500000e-01,-7.629394531250000000e-02
1.300000000000000000e+01,2.000000000000000000e+00,1.200000000000000000e+01,2.000000000000000000e+01,0.000000000000000000e+00,-3.000000000000000000e+00,2.000000000000000000e+00,0.000000000000000000e+00,3.935546875000000000e-01,1.708984375000000000e-01,-9.000854492187500000e-01,-7.611083984375000000e-02
-1.000000000000000000e+00,0.000000000000000000e+00,4.200000000000000000e+01,-1.000000000000000000e+00,-3.000000000000000000e+00,2.000000000000000000e+00,-7.000000000000000000e+00,-4.000000000000000000e+00,3.935546875000000000e-01,1.708984375000000000e-01,-9.000854492187500000e-01,-7.611083984375000000e-02
-8.000000000000000000e+00,-1.400000000000000000e+01,-2.000000000000000000e+00,9.000000000000000000e+00,-3.000000000000000000e+00,-9.000000000000000000e+00,5.000000000000000000e+00,-4.000000000000000000e+00,3.935546875000000000e-01,1.708984375000000000e-01,-9.000854492187500000e-01,-7.611083984375000000e-02
3.000000000000000000e+00,2.000000000000000000e+00,-1.900000000000000000e+01,-1.700000000000000000e+01,4.000000000000000000e+00,1.000000000000000000e+00,1.000000000000000000e+00,0.000000000000000000e+00,3.935546875000000000e-01,1.708984375000000000e-01,-9.000854492187500000e-01,-7.611083984375000000e-02
-3.000000000000000000e+00,-3.000000000000000000e+00,7.000000000000000000e+00,4.000000000000000000e+00,-1.000000000000000000e+00,2.000000000000000000e+00,2.500000000000000000e+01,-2.000000000000000000e+00,3.931884765625000000e-01,1.718139648437500000e-01,-9.000854492187500000e-01,-7.592773437500000000e-02
2.000000000000000000e+00,4.000000000000000000e+00,9.000000000000000000e+00,3.000000000000000000e+00,2.000000000000000000e+00,-2.000000000000000000e+00,9.000000000000000000e+00,3.000000000000000000e+00,3.931884765625000000e-01,1.718139648437500000e-01,-9.000854492187500000e-01,-7.592773437500000000e-02
3.000000000000000000e+00,1.000000000000000000e+01,2.100000000000000000e+01,-1.000000000000000000e+00,0.000000000000000000e+00,6.000000000000000000e+00,5.000000000000000000e+00,2.000000000000000000e+00,3.931884765625000000e-01,1.718139648437500000e-01,-9.000854492187500000e-01,-7.592773437500000000e-02
-2.000000000000000000e+00,-7.000000000000000000e+00,3.300000000000000000e+01,3.300000000000000000e+01,-3.000000000000000000e+00,-4.000000000000000000e+00,5.000000000000000000e+00,0.000000000000000000e+00,3.931884765625000000e-01,1.718139648437500000e-01,-9.000854492187500000e-01,-7.592773437500000000e-02
-5.000000000000000000e+00,-5.000000000000000000e+00,-3.100000000000000000e+01,-1.500000000000000000e+01,-1.100000000000000000e+01,-5.000000000000000000e+00,-9.000000000000000000e+00,-3.000000000000000000e+00,3.925170898437500000e-01,1.735839843750000000e-01,-9.000244140625000000e-01,-7.580566406250000000e-02
-1.000000000000000000e+00,5.000000000000000000e+00,2.800000000000000000e+01,5.000000000000000000e+00,3.000000000000000000e+00,-2.000000000000000000e+00,-8.000000000000000000e+00,0.000000000000000000e+00,3.925170898437500000e-01,1.735839843750000000e-01,-9.000244140625000000e-01,-7.580566406250000000e-02
-2.000000000000000000e+00,4.000000000000000000e+00,2.200000000000000000e+01,9.000000000000000000e+00,8.000000000000000000e+00,5.000000000000000000e+00,4.000000000000000000e+00,3.000000000000000000e+00,3.925170898437500000e-01,1.735839843750000000e-01,-9.000244140625000000e-01,-7.580566406250000000e-02
1.500000000000000000e+01,4.000000000000000000e+00,1.300000000000000000e+01,9.000000000000000000e+00,3.000000000000000000e+00,0.000000000000000000e+00,-1.300000000000000000e+01,1.000000000000000000e+00,3.925170898437500000e-01,1.735839843750000000e-01,-9.000244140625000000e-01,-7.580566406250000000e-02
2.300000000000000000e+01,7.000000000000000000e+00,-4.000000000000000000e+00,-9.000000000000000000e+00,-1.000000000000000000e+00,2.000000000000000000e+00,7.000000000000000000e+00,2.000000000000000000e+00,3.919677734375000000e-01,1.749877929687500000e-01,-9.000244140625000000e-01,-7.580566406250000000e-02
-3.200000000000000000e+01,-2.000000000000000000e+01,-8.500000000000000000e+01,-1.600000000000000000e+01,-1.000000000000000000e+01,-6.000000000000000000e+00,-7.000000000000000000e+00,-1.100000000000000000e+01,3.919677734375000000e-01,1.749877929687500000e-01,-9.000244140625000000e-01,-7.580566406250000000e-02
-5.000000000000000000e+00,-1.200000000000000000e+01,-2.000000000000000000e+00,-1.500000000000000000e+01,-1.100000000000000000e+01,-9.000000000000000000e+00,6.000000000000000000e+00,-1.000000000000000000e+00,3.919677734375000000e-01,1.749877929687500000e-01,-9.000244140625000000e-01,-7.580566406250000000e-02
6.000000000000000000e+00,4.000000000000000000e+00,3.000000000000000000e+00,0.000000000000000000e+00,1.000000000000000000e+00,0.000000000000000000e+00,0.000000000000000000e+00,3.000000000000000000e+00,3.919677734375000000e-01,1.749877929687500000e-01,-9.000244140625000000e-01,-7.580566406250000000e-02
9.000000000000000000e+00,1.000000000000000000e+00,-1.600000000000000000e+01,-1.300000000000000000e+01,-4.000000000000000000e+00,-1.000000000000000000e+00,-7.000000000000000000e+00,-2.000000000000000000e+00,3.918457031250000000e-01,1.761474609375000000e-01,-8.998413085937500000e-01,-7.574462890625000000e-02
6.000000000000000000e+00,5.000000000000000000e+00,1.300000000000000000e+01,2.200000000000000000e+01,4.000000000000000000e+00,0.000000000000000000e+00,9.000000000000000000e+00,4.000000000000000000e+00,3.918457031250000000e-01,1.761474609375000000e-01,-8.998413085937500000e-01,-7.574462890625000000e-02
1.700000000000000000e+01,6.000000000000000000e+00,-6.000000000000000000e+00,-2.000000000000000000e+00,8.000000000000000000e+00,1.000000000000000000e+00,-4.000000000000000000e+00,4.000000000000000000e+00,3.918457031250000000e-01,1.761474609375000000e-01,-8.998413085937500000e-01,-7.574462890625000000e-02
-4.000000000000000000e+00,-8.000000000000000000e+00,5.000000000000000000e+00,5.000000000000000000e+00,-7.000000000000000000e+00,-1.000000000000000000e+00,1.000000000000000000e+00,-2.000000000000000000e+00,3.918457031250000000e-01,1.761474609375000000e-01,-8.998413085937500000e-01,-7.574462890625000000e-02
-4.000000000000000000e+00,6.000000000000000000e+00,7.100000000000000000e+01,4.100000000000000000e+01,1.300000000000000000e+01,1.100000000000000000e+01,-1.000000000000000000e+00,-3.000000000000000000e+00,3.919677734375000000e-01,1.759033203125000000e-01,-8.998413085937500000e-01,-7.556152343750000000e-02
-7.000000000000000000e+00,-1.300000000000000000e+01,-2.000000000000000000e+00,-3.700000000000000000e+01,-9.000000000000000000e+00,-3.000000000000000000e+00,-1.000000000000000000e+00,-2.000000000000000000e+00,3.919677734375000000e-01,1.759033203125000000e-01,-8.998413085937500000e-01,-7.556152343750000000e-02
-1.000000000000000000e+01,2.000000000000000000e+00,3.100000000000000000e+01,2.000000000000000000e+01,2.000000000000000000e+00,-1.000000000000000000e+00,-1.100000000000000000e+01,2.000000000000000000e+00,3.919677734375000000e-01,1.759033203125000000e-01,-8.998413085937500000e-01,-7.556152343750000000e-02
1.500000000000000000e+01,-1.000000000000000000e+00,8.000000000000000000e+00,-8.000000000000000000e+00,-7.000000000000000000e+00,4.000000000000000000e+00,1.400000000000000000e+01,0.000000000000000000e+00,3.919677734375000000e-01,1.759033203125000000e-01,-8.998413085937500000e-01,-7.556152343750000000e-02
-3.400000000000000000e+01,-2.000000000000000000e+00,-1.600000000000000000e+01,-7.000000000000000000e+00,5.000000000000000000e+00,-1.000000000000000000e+00,-1.400000000000000000e+01,-4.000000000000000000e+00,3.920898437500000000e-01,1.765747070312500000e-01,-8.997192382812500000e-01,-7.464599609375000000e-02
6.000000000000000000e+00,7.000000000000000000e+00,4.500000000000000000e+01,3.300000000000000000e+01,3.000000000000000000e+00,1.000000000000000000e+00,4.000000000000000000e+00,1.000000000000000000e+00,3.920898437500000000e-01,1.765747070312500000e-01,-8.997192382812500000e-01,-7.464599609375000000e-02
-8.000000000000000000e+00,-3.000000000000000000e+00,-1.400000000000000000e+01,5.000000000000000000e+00,-7.000000000000000000e+00,0.000000000000000000e+00,-3.000000000000000000e+00,0.000000000000000000e+00,3.920898437500000000e-01,1.765747070312500000e-01,-8.997192382812500000e-01,-7.464599609375000000e-02
-1.000000000000000000e+00,-8.000000000000000000e+00,-3.200000000000000000e+01,-2.600000000000000000e+01,-3.000000000000000000e+00,0.000000000000000000e+00,-1.300000000000000000e+01,-7.000000000000000000e+00,3.920898437500000000e-01,1.765747070312500000e-01,-8.997192382812500000e-01,-7.464599609375000000e-02
1.000000000000000000e+00,0.000000000000000000e+00,-2.800000000000000000e+01,-1.100000000000000000e+01,-5.000000000000000000e+00,-3.000000000000000000e+00,2.000000000000000000e+00,1.000000000000000000e+00,3.921508789062500000e-01,1.768798828125000000e-01,-8.997192382812500000e-01,-7.379150390625000000e-02
5.000000000000000000e+00,2.000000000000000000e+00,4.000000000000000000e+00,-2.000000000000000000e+00,-2.000000000000000000e+00,0.000000000000000000e+00,-4.000000000000000000e+00,-1.000000000000000000e+00,3.921508789062500000e-01,1.768798828125000000e-01,-8.997192382812500000e-01,-7.379150390625000000e-02
2.000000000000000000e+00,3.000000000000000000e+00,-1.900000000000000000e+01,0.000000000000000000e+00,0.000000000000000000e+00,-3.000000000000000000e+00,-9.000000000000000000e+00,0.000000000000000000e+00,3.921508789062500000e-01,1.768798828125000000e-01,-8.997192382812500000e-01,-7.379150390625000000e-02
-7.000000000000000000e+00,8.000000000000000000e+00,2.500000000000000000e+01,1.700000000000000000e+01,7.000000000000000000e+00,7.000000000000000000e+00,3.700000000000000000e+01,2.000000000000000000e+00,3.921508789062500000e-01,1.768798828125000000e-01,-8.997192382812500000e-01,-7.379150390625000000e-02
-1.000000000000000000e+00,-8.000000000000000000e+00,-4.300000000000000000e+01,-1.200000000000000000e+01,-6.000000000000000000e+00,-1.000000000000000000e+00,1.200000000000000000e+01,-4.000000000000000000e+00,3.920898437500000000e-01,1.768798828125000000e-01,-8.997802734375000000e-01,-7.318115234375000000e-02
7.000000000000000000e+00,8.000000000000000000e+00,8.000000000000000000e+00,8.000000000000000000e+00,3.000000000000000000e+00,1.000000000000000000e+00,2.000000000000000000e+00,2.000000000000000000e+00,3.920898437500000000e-01,1.768798828125000000e-01,-8.997802734375000000e-01,-7.318115234375000000e-02
2.000000000000000000e+00,1.000000000000000000e+00,3.700000000000000000e+01,-5.000000000000000000e+00,-8.000000000000000000e+00,-6.000000000000000000e+00,-1.000000000000000000e+00,0.000000000000000000e+00,3.920898437500000000e-01,1.768798828125000000e-01,-8.997802734375000000e-01,-7.318115234375000000e-02
-7.000000000000000000e+00,0.000000000000000000e+00,-2.800000000000000000e+01,-1.000000000000000000e+01,0.000000000000000000e+00,-3.000000000000000000e+00,-8.000000000000000000e+00,-1.000000000000000000e+00,3.920898437500000000e-01,1.768798828125000000e-01,-8.997802734375000000e-01,-7.318115234375000000e-02
-1.000000000000000000e+00,-3.000000000000000000e+00,-3.000000000000000000e+00,-3.000000000000000000e+00,-3.000000000000000000e+00,-1.000000000000000000e+00,0.000000000000000000e+00,1.000000000000000000e+00,3.923950195312500000e-01,1.764526367187500000e-01,-8.998413085937500000e-01,-7.220458984375000000e-02
1.500000000000000000e+01,2.000000000000000000e+00,1.800000000000000000e+01,8.000000000000000000e+00,1.000000000000000000e+01,3.000000000000000000e+00,1.000000000000000000e+00,4.000000000000000000e+00,3.923950195312500000e-01,1.764526367187500000e-01,-8.998413085937500000e-01,-7.220458984375000000e-02
-9.000000000000000000e+00,-2.000000000000000000e+00,5.000000000000000000e+00,3.000000000000000000e+00,5.000000000000000000e+00,4.000000000000000000e+00,0.000000000000000000e+00,-3.000000000000000000e+00,3.923950195312500000e-01,1.764526367187500000e-01,-8.998413085937500000e-01,-7.220458984375000000e-02
4.000000000000000000e+00,8.000000000000000000e+00,-5.000000000000000000e+00,7.000000000000000000e+00,6.000000000000000000e+00,5.000000000000000000e+00,-1.700000000000000000e+01,2.000000000000000000e+00,3.923950195312500000e-01,1.764526367187500000e-01,-8.998413085937500000e-01,-7.220458984375000000e-02
-6.000000000000000000e+00,-1.100000000000000000e+01,2.000000000000000000e+00,-1.600000000000000000e+01,-1.800000000000000000e+01,-1.200000000000000000e+01,1.400000000000000000e+01,0.000000000000000000e+00,3.922119140625000000e-01,1.759033203125000000e-01,-9.001464843750000000e-01,-7.098388671875000000e-02
-1.000000000000000000e+01,-1.300000000000000000e+01,-2.100000000000000000e+01,-1.800000000000000000e+01,-8.000000000000000000e+00,-8.000000000000000000e+00,-1.500000000000000000e+01,-5.000000000000000000e+00,3.922119140625000000e-01,1.759033203125000000e-01,-9.001464843750000000e-01,-7.098388671875000000e-02
-3.000000000000000000e+00,-2.000000000000000000e+00,-3.500000000000000000e+01,-7.000000000000000000e+00,0.000000000000000000e+00,-3.000000000000000000e+00,0.000000000000000000e+00,-1.000000000000000000e+00,3.922119140625000000e-01,1.759033203125000000e-01,-9.001464843750000000e-01,-7.098388671875000000e-02
0.000000000000000000e+00,-1.000000000000000000e+00,-2.000000000000000000e+01,-1.000000000000000000e+00,8.000000000000000000e+00,5.000000000000000000e+00,-4.000000000000000000e+00,0.000000000000000000e+00,3.922119140625000000e-01,1.759033203125000000e-01,-9.001464843750000000e-01,-7.098388671875000000e-02
-3.000000000000000000e+00,-1.000000000000000000e+00,-1.700000000000000000e+01,3.000000000000000000e+00,0.000000000000000000e+00,2.000000000000000000e+00,-2.000000000000000000e+00,0.000000000000000000e+00,3.919067382812500000e-01,1.764526367187500000e-01,-9.002075195312500000e-01,-7.000732421875000000e-02
-2.000000000000000000e+00,2.000000000000000000e+00,-8.000000000000000000e+00,-3.000000000000000000e+00,0.000000000000000000e+00,1.000000000000000000e+00,-8.000000000000000000e+00,-3.000000000000000000e+00,3.919067382812500000e-01,1.764526367187500000e-01,-9.002075195312500000e-01,-7.000732421875000000e-02
-3.000000000000000000e+00,-3.000000000000000000e+00,-2.500000000000000000e+01,-1.900000000000000000e+01,-4.000000000000000000e+00,3.000000000000000000e+00,8.000000000000000000e+00,-3.000000000000000000e+00,3.911743164062500000e-01,1.760864257812500000e-01,-9.005737304687500000e-01,-6.994628906250000000e-02
2.000000000000000000e+00,2.000000000000000000e+00,-1.800000000000000000e+01,-6.000000000000000000e+00,-7.000000000000000000e+00,-6.000000000000000000e+00,2.000000000000000000e+00,2.000000000000000000e+00,3.911743164062500000e-01,1.760864257812500000e-01,-9.005737304687500000e-01,-6.994628906250000000e-02
1.000000000000000000e+00,-3.000000000000000000e+00,-4.400000000000000000e+01,-1.800000000000000000e+01,-4.000000000000000000e+00,-7.000000000000000000e+00,-2.000000000000000000e+01,-5.000000000000000000e+00,3.911743164062500000e-01,1.760864257812500000e-01,-9.005737304687500000e-01,-6.994628906250000000e-02
4.000000000000000000e+00,-3.000000000000000000e+00,1.600000000000000000e+01,2.100000000000000000e+01,1.000000000000000000e+00,6.000000000000000000e+00,1.200000000000000000e+01,-3.000000000000000000e+00,3.911743164062500000e-01,1.760864257812500000e-01,-9.005737304687500000e-01,-6.994628906250000000e-02
-1.600000000000000000e+01,1.000000000000000000e+00,-2.600000000000000000e+01,-8.000000000000000000e+00,5.000000000000000000e+00,-2.000000000000000000e+00,-8.000000000000000000e+00,-1.000000000000000000e+00,3.906860351562500000e-01,1.759643554687500000e-01,-9.008789062500000000e-01,-6.994628906250000000e-02
1.000000000000000000e+01,1.000000000000000000e+00,3.700000000000000000e+01,1.000000000000000000e+01,-2.000000000000000000e+00,2.000000000000000000e+00,-2.000000000000000000e+00,-2.000000000000000000e+00,3.906860351562500000e-01,1.759643554687500000e-01,-9.008789062500000000e-01,-6.994628906250000000e-02
-2.000000000000000000e+00,-1.000000000000000000e+00,1.000000000000000000e+00,-1.000000000000000000e+00,5.000000000000000000e+00,5.000000000000000000e+00,5.000000000000000000e+00,1.000000000000000000e+00,3.906860351562500000e-01,1.759643554687500000e-01,-9.008789062500000000e-01,-6.994628906250000000e-02
-1.000000000000000000e+00,2.000000000000000000e+00,-7.000000000000000000e+00,-8.000000000000000000e+00,-3.000000000000000000e+00,-6.000000000000000000e+00,-6.000000000000000000e+00,0.000000000000000000e+00,3.906860351562500000e-01,1.759643554687500000e-01,-9.008789062500000000e-01,-6.994628906250000000e-02
1.100000000000000000e+01,-1.000000000000000000e+00,1.100000000000000000e+01,7.000000000000000000e+00,0.000000000000000000e+00,-1.000000000000000000e+00,-1.000000000000000000e+00,3.000000000000000000e+00,3.905029296875000000e-01,1.760864257812500000e-01,-9.009399414062500000e-01,-6.988525390625000000e-02
-4.000000000000000000e+00,6.000000000000000000e+00,-6.000000000000000000e+00,1.500000000000000000e+01,2.000000000000000000e+00,1.000000000000000000e+00,-1.300000000000000000e+01,1.000000000000000000e+00,3.905029296875000000e-01,1.760864257812500000e-01,-9.009399414062500000e-01,-6.988525390625000000e-02
-9.000000000000000000e+00,-6.000000000000000000e+00,5.300000000000000000e+01,4.000000000000000000e+01,-2.000000000000000000e+00,1.000000000000000000e+00,4.300000000000000000e+01,-2.000000000000000000e+00,3.905029296875000000e-01,1.760864257812500000e-01,-9.009399414062500000e-01,-6.988525390625000000e-02
3.000000000000000000e+00,0.000000000000000000e+00,2.900000000000000000e+01,-1.400000000000000000e+01,0.000000000000000000e+00,-3.000000000000000000e+00,2.000000000000000000e+00,-4.000000000000000000e+00,3.905029296875000000e-01,1.760864257812500000e-01,-9.009399414062500000e-01,-6.988525390625000000e-02
-2.000000000000000000e+00,-4.000000000000000000e+00,2.600000000000000000e+01,1.500000000000000000e+01,-2.000000000000000000e+00,0.000000000000000000e+00,2.000000000000000000e+00,-3.000000000000000000e+00,3.901977539062500000e-01,1.768188476562500000e-01,-9.009399414062500000e-01,-6.964111328125000000e-02
-9.000000000000000000e+00,-5.000000000000000000e+00,3.000000000000000000e+00,-4.000000000000000000e+00,-5.000000000000000000e+00,-5.000000000000000000e+00,2.000000000000000000e+00,-3.000000000000000000e+00,3.901977539062500000e-01,1.768188476562500000e-01,-9.009399414062500000e-01,-6.964111328125000000e-02
4.000000000000000000e+00,6.000000000000000000e+00,-8.000000000000000000e+00,-4.000000000000000000e+00,5.000000000000000000e+00,4.000000000000000000e+00,-9.000000000000000000e+00,1.000000000000000000e+00,3.901977539062500000e-01,1.768188476562500000e-01,-9.009399414062500000e-01,-6.964111328125000000e-02
-3.000000000000000000e+00,4.000000000000000000e+00,1.800000000000000000e+01,8.000000000000000000e+00,0.000000000000000000e+00,-3.000000000000000000e+00,-6.000000000000000000e+00,1.000000000000000000e+00,3.901977539062500000e-01,1.768188476562500000e-01,-9.009399414062500000e-01,-6.964111328125000000e-02
-1.000000000000000000e+00,-1.000000000000000000e+00,-1.600000000000000000e+01,-4.000000000000000000e+00,1.000000000000000000e+00,0.000000000000000000e+00,5.000000000000000000e+00,2.000000000000000000e+00,3.900146484375000000e-01,1.772460937500000000e-01,-9.009399414062500000e-01,-6.951904296875000000e-02
-7.000000000000000000e+00,-1.000000000000000000e+00,-3.000000000000000000e+00,-1.100000000000000000e+01,-4.000000000000000000e+00,-5.000000000000000000e+00,-4.000000000000000000e+00,-2.000000000000000000e+00,3.900146484375000000e-01,1.772460937500000000e-01,-9.009399414062500000e-01,-6.951904296875000000e-02
5.000000000000000000e+00,-1.000000000000000000e+00,1.100000000000000000e+01,0.000000000000000000e+00,-1.000000000000000000e+00,-1.000000000000000000e+00,-1.100000000000000000e+01,1.000000000000000000e+00,3.900146484375000000e-01,1.772460937500000000e-01,-9.009399414062500000e-01,-6.951904296875000000e-02
2.000000000000000000e+00,2.000000000000000000e+00,-1.900000000000000000e+01,-7.000000000000000000e+00,2.000000000000000000e+00,4.000000000000000000e+00,2.000000000000000000e+00,1.000000000000000000e+00,3.900146484375000000e-01,1.772460937500000000e-01,-9.009399414062500000e-01,-6.951904296875000000e-02
-1.100000000000000000e+01,-1.100000000000000000e+01,-3.100000000000000000e+01,8.000000000000000000e+00,-1.000000000000000000e+00,-8.000000000000000000e+00,-3.500000000000000000e+01,-1.100000000000000000e+01,3.895874023437500000e-01,1.777343750000000000e-01,-9.010009765625000000e-01,-6.976318359375000000e-02
1.000000000000000000e+00,-5.000000000000000000e+00,2.900000000000000000e+01,-8.000000000000000000e+00,-2.000000000000000000e+00,0.000000000000000000e+00,1.700000000000000000e+01,-3.000000000000000000e+00,3.895874023437500000e-01,1.777343750000000000e-01,-9.010009765625000000e-01,-6.976318359375000000e-02
2.000000000000000000e+00,-2.000000000000000000e+00,-2.600000000000000000e+01,-1.100000000000000000e+01,1.000000000000000000e+00,-3.000000000000000000e+00,-5.000000000000000000e+00,2.000000000000000000e+00,3.895874023437500000e-01,1.777343750000000000e-01,-9.010009765625000000e-01,-6.976318359375000000e-02
-1.000000000000000000e+00,-1.000000000000000000e+00,-4.000000000000000000e+00,6.000000000000000000e+00,-5.000000000000000000e+00,-4.000000000000000000e+00,-1.000000000000000000e+00,1.000000000000000000e+00,3.895874023437500000e-01,1.777343750000000000e-01,-9.010009765625000000e-01,-6.976318359375000000e-02
7.000000000000000000e+00,8.000000000000000000e+00,1.300000000000000000e+01,-1.000000000000000000e+01,1.000000000000000000e+00,3.000000000000000000e+00,0.000000000000000000e+00,3.000000000000000000e+00,3.890380859375000000e-01,1.794433593750000000e-01,-9.008789062500000000e-01,-7.000732421875000000e-02
-1.000000000000000000e+00,1.000000000000000000e+00,1.400000000000000000e+01,1.400000000000000000e+01,6.000000000000000000e+00,4.000000000000000000e+00,4.000000000000000000e+00,2.000000000000000000e+00,3.890380859375000000e-01,1.794433593750000000e-01,-9.008789062500000000e-01,-7.000732421875000000e-02
-2.000000000000000000e+00,-4.000000000000000000e+00,-1.300000000000000000e+01,-1.000000000000000000e+01,-6.000000000000000000e+00,-8.000000000000000000e+00,-7.000000000000000000e+00,-2.000000000000000000e+00,3.890380859375000000e-01,1.794433593750000000e-01,-9.008789062500000000e-01,-7.000732421875000000e-02
0.000000000000000000e+00,1.000000000000000000e+00,1.000000000000000000e+00,2.000000000000000000e+00,-1.000000000000000000e+00,-2.000000000000000000e+00,-7.000000000000000000e+00,3.000000000000000000e+00,3.890380859375000000e-01,1.794433593750000000e-01,-9.008789062500000000e-01,-7.000732421875000000e-02
5.000000000000000000e+00,3.000000000000000000e+00,0.000000000000000000e+00,1.200000000000000000e+01,7.000000000000000000e+00,8.000000000000000000e+00,1.200000000000000000e+01,0.000000000000000000e+00,3.884277343750000000e-01,1.800537109375000000e-01,-9.010009765625000000e-01,-7.049560546875000000e-02
4.000000000000000000e+00,1.000000000000000000e+01,-3.700000000000000000e+01,-2.500000000000000000e+01,3.000000000000000000e+00,2.000000000000000000e+00,1.000000000000000000e+00,1.000000000000000000e+00,3.884277343750000000e-01,1.800537109375000000e-01,-9.010009765625000000e-01,-7.049560546875000000e-02
-1.100000000000000000e+01,-2.300000000000000000e+01,-3.400000000000000000e+01,-1.900000000000000000e+01,-1.800000000000000000e+01,-8.000000000000000000e+00,-1.200000000000000000e+01,-1.100000000000000000e+01,3.884277343750000000e-01,1.800537109375000000e-01,-9.010009765625000000e-01,-7.049560546875000000e-02
7.000000000000000000e+00,-1.400000000000000000e+01,-3.700000000000000000e+01,-4.500000000000000000e+01,-1.300000000000000000e+01,-1.100000000000000000e+01,-2.000000000000000000e+00,-1.000000000000000000e+00,3.884277343750000000e-01,1.800537109375000000e-01,-9.010009765625000000e-01,-7.049560546875000000e-02
-1.500000000000000000e+01,1.000000000000000000e+00,-2.400000000000000000e+01,-1.500000000000000000e+01,-2.000000000000000000e+00,0.000000000000000000e+00,0.000000000000000000e+00,-3.000000000000000000e+00,3.881835937500000000e-01,1.813354492187500000e-01,-9.008178710937500000e-01,-7.031250000000000000e-02
0.000000000000000000e+00,-5.000000000000000000e+00,-1.500000000000000000e+01,-1.200000000000000000e+01,-3.000000000000000000e+00,-2.000000000000000000e+00,1.000000000000000000e+00,0.000000000000000000e+00,3.881835937500000000e-01,1.813354492187500000e-01,-9.008178710937500000e-01,-7.031250000000000000e-02
6.000000000000000000e+00,1.600000000000000000e+01,3.300000000000000000e+01,2.400000000000000000e+01,1.500000000000000000e+01,5.000000000000000000e+00,-5.000000000000000000e+00,5.000000000000000000e+00,3.881835937500000000e-01,1.813354492187500000e-01,-9.008178710937500000e-01,-7.031250000000000000e-02
4.000000000000000000e+00,2.000000000000000000e+00,-8.000000000000000000e+00,9.000000000000000000e+00,2.000000000000000000e+00,1.000000000000000000e+00,7.000000000000000000e+00,1.000000000000000000e+00,3.881835937500000000e-01,1.813354492187500000e-01,-9.008178710937500000e-01,-7.031250000000000000e-02
-1.000000000000000000e+00,-7.000000000000000000e+00,-2.000000000000000000e+01,-1.600000000000000000e+01,-6.000000000000000000e+00,1.000000000000000000e+00,0.000000000000000000e+00,-1.000000000000000000e+00,3.878173828125000000e-01,1.810302734375000000e-01,-9.010620117187500000e-01,-6.994628906250000000e-02
-6.000000000000000000e+00,-4.000000000000000000e+00,2.300000000000000000e+01,1.200000000000000000e+01,-6.000000000000000000e+00,-6.000000000000000000e+00,-6.000000000000000000e+00,-1.000000000000000000e+00,3.878173828125000000e-01,1.810302734375000000e-01,-9.010620117187500000e-01,-6.994628906250000000e-02
4.000000000000000000e+00,3.000000000000000000e+00,-3.000000000000000000e+00,6.000000000000000000e+00,8.000000000000000000e+00,6.000000000000000000e+00,-3.000000000000000000e+00,3.000000000000000000e+00,3.878173828125000000e-01,1.810302734375000000e-01,-9.010620117187500000e-01,-6.994628906250000000e-02
-8.000000000000000000e+00,-2.000000000000000000e+00,-8.000000000000000000e+00,5.000000000000000000e+00,0.000000000000000000e+00,-2.000000000000000000e+00,-3.000000000000000000e+00,-6.000000000000000000e+00,3.878173828125000000e-01,1.810302734375000000e-01,-9.010620117187500000e-01,-6.994628906250000000e-02
7.000000000000000000e+00,2.000000000000000000e+00,2.100000000000000000e+01,1.200000000000000000e+01,-2.000000000000000000e+00,-1.000000000000000000e+00,-1.100000000000000000e+01,3.000000000000000000e+00,3.876953125000000000e-01,1.809692382812500000e-01,-9.011840820312500000e-01,-6.933593750000000000e-02
0.000000000000000000e+00,-1.700000000000000000e+01,-5.000000000000000000e+01,-1.900000000000000000e+01,-9.000000000000000000e+00,-5.000000000000000000e+00,4.800000000000000000e+01,-3.000000000000000000e+00,3.876953125000000000e-01,1.809692382812500000e-01,-9.011840820312500000e-01,-6.933593750000000000e-02
-9.000000000000000000e+00,2.000000000000000000e+00,3.900000000000000000e+01,1.000000000000000000e+00,-2.000000000000000000e+00,-4.000000000000000000e+00,-5.000000000000000000e+00,-4.000000000000000000e+00,3.876953125000000000e-01,1.809692382812500000e-01,-9.011840820312500000e-01,-6.933593750000000000e-02
-4.000000000000000000e+00,1.000000000000000000e+00,4.600000000000000000e+01,2.100000000000000000e+01,1.000000000000000000e+00,1.000000000000000000e+00,-4.000000000000000000e+00,1.000000000000000000e+00,3.876953125000000000e-01,1.809692382812500000e-01,-9.011840820312500000e-01,-6.933593750000000000e-02
1.000000000000000000e+00,-5.000000000000000000e+00,-1.100000000000000000e+01,-2.500000000000000000e+01,-4.000000000000000000e+00,-3.000000000000000000e+00,6.000000000000000000e+00,-2.000000000000000000e+00,3.879394531250000000e-01,1.806640625000000000e-01,-9.011840820312500000e-01,-6.866455078125000000e-02
1.000000000000000000e+00,-2.000000000000000000e+00,1.200000000000000000e+01,1.300000000000000000e+01,1.000000000000000000e+00,1.000000000000000000e+00,-1.600000000000000000e+01,-2.000000000000000000e+00,3.879394531250000000e-01,1.806640625000000000e-01,-9.011840820312500000e-01,-6.866455078125000000e-02
3.000000000000000000e+00,0.000000000000000000e+00,-4.000000000000000000e+00,-4.000000000000000000e+00,-2.000000000000000000e+00,-5.000000000000000000e+00,-3.000000000000000000e+00,-1.000000000000000000e+00,3.879394531250000000e-01,1.806640625000000000e-01,-9.011840820312500000e-01,-6.866455078125000000e-02
0.000000000000000000e+00,3.000000000000000000e+00,-8.000000000000000000e+00,0.000000000000000000e+00,4.000000000000000000e+00,5.000000000000000000e+00,8.000000000000000000e+00,1.000000000000000000e+00,3.879394531250000000e-01,1.806640625000000000e-01,-9.011840820312500000e-01,-6.866455078125000000e-02
0.000000000000000000e+00,3.000000000000000000e+00,8.000000000000000000e+00,8.000000000000000000e+00,0.000000000000000000e+00,-4.000000000000000000e+00,2.000000000000000000e+00,2.000000000000000000e+00,3.883056640625000000e-01,1.796875000000000000e-01,-9.012451171875000000e-01,-6.835937500000000000e-02
-6.000000000000000000e+00,-3.000000000000000000e+00,6.000000000000000000e+00,7.000000000000000000e+00,-4.000000000000000000e+00,-4.000000000000000000e+00,-1.700000000000000000e+01,-3.000000000000000000e+00,3.883056640625000000e-01,1.796875000000000000e-01,-9.012451171875000000e-01,-6.835937500000000000e-02
1.300000000000000000e+01,1.000000000000000000e+00,2.700000000000000000e+01,-9.000000000000000000e+00,-1.000000000000000000e+00,1.000000000000000000e+00,1.000000000000000000e+00,-2.000000000000000000e+00,3.883056640625000000e-01,1.796875000000000000e-01,-9.012451171875000000e-01,-6.835937500000000000e-02
-1.900000000000000000e+01,1.000000000000000000e+00,2.400000000000000000e+01,1.400000000000000000e+01,2.000000000000000000e+00,-3.000000000000000000e+00,-1.300000000000000000e+01,-3.000000000000000000e+00,3.883056640625000000e-01,1.796875000000000000e-01,-9.012451171875000000e-01,-6.835937500000000000e-02
7.000000000000000000e+00,-1.000000000000000000e+00,1.000000000000000000e+01,2.000000000000000000e+00,-3.000000000000000000e+00,-3.000000000000000000e+00,-1.000000000000000000e+00,-1.000000000000000000e+00,3.883056640625000000e-01,1.786499023437500000e-01,-9.014892578125000000e-01,-6.781005859375000000e-02
-7.000000000000000000e+00,-7.000000000000000000e+00,-5.900000000000000000e+01,-2.700000000000000000e+01,-2.000000000000000000e+00,0.000000000000000000e+00,1.000000000000000000e+00,-1.000000000000000000e+00,3.883056640625000000e-01,1.786499023437500000e-01,-9.014892578125000000e-01,-6.781005859375000000e-02
-2.000000000000000000e+00,0.000000000000000000e+00,2.500000000000000000e+01,2.800000000000000000e+01,3.000000000000000000e+00,-1.000000000000000000e+00,-5.000000000000000000e+00,1.000000000000000000e+00,3.883056640625000000e-01,1.786499023437500000e-01,-9.014892578125000000e-01,-6.781005859375000000e-02
5.000000000000000000e+00,-1.000000000000000000e+00,-2.000000000000000000e+00,2.200000000000000000e+01,-7.000000000000000000e+00,-2.000000000000000000e+00,4.000000000000000000e+00,-2.000000000000000000e+00,3.883056640625000000e-01,1.786499023437500000e-01,-9.014892578125000000e-01,-6.781005859375000000e-02
-2.000000000000000000e+00,-4.000000000000000000e+00,-1.400000000000000000e+01,-2.700000000000000000e+01,-1.000000000000000000e+00,0.000000000000000000e+00,2.000000000000000000e+00,-4.000000000000000000e+00,3.880004882812500000e-01,1.782226562500000000e-01,-9.017944335937500000e-01,-6.677246093750000000e-02
0.000000000000000000e+00,5.000000000000000000e+00,2.900000000000000000e+01,1.800000000000000000e+01,1.000000000000000000e+01,4.000000000000000000e+00,-3.000000000000000000e+00,1.000000000000000000e+00,3.880004882812500000e-01,1.782226562500000000e-01,-9.017944335937500000e-01,-6.677246093750000000e-02
4.000000000000000000e+00,3.000000000000000000e+00,-2.300000000000000000e+01,-1.300000000000000000e+01,3.000000000000000000e+00,0.000000000000000000e+00,6.000000000000000000e+00,2.000000000000000000e+00,3.880004882812500000e-01,1.782226562500000000e-01,-9.017944335937500000e-01,-6.677246093750000000e-02
0.000000000000000000e+00,-6.000000000000000000e+00,-1.900000000000000000e+01,-7.000000000000000000e+00,-4.000000000000000000e+00,-5.000000000000000000e+00,-4.000000000000000000e+00,-1.000000000000000000e+00,3.880004882812500000e-01,1.782226562500000000e-01,-9.017944335937500000e-01,-6.677246093750000000e-02
-1.000000000000000000e+00,6.000000000000000000e+00,4.200000000000000000e+01,3.500000000000000000e+01,4.000000000000000000e+00,1.000000000000000000e+00,0.000000000000000000e+00,0.000000000000000000e+00,3.871459960937500000e-01,1.783447265625000000e-01,-9.022216796875000000e-01,-6.579589843750000000e-02
-1.000000000000000000e+00,-1.000000000000000000e+00,-1.300000000000000000e+01,-1.400000000000000000e+01,-5.000000000000000000e+00,-3.000000000000000000e+00,-2.600000000000000000e+01,-5.000000000000000000e+00,3.871459960937500000e-01,1.783447265625000000e-01,-9.022216796875000000e-01,-6.579589843750000000e-02
-9.000000000000000000e+00,-1.000000000000000000e+00,-9.000000000000000000e+00,-5.000000000000000000e+00,0.000000000000000000e+00,1.000000000000000000e+00,1.800000000000000000e+01,-1.000000000000000000e+00,3.871459960937500000e-01,1.783447265625000000e-01,-9.022216796875000000e-01,-6.579589843750000000e-02
-1.000000000000000000e+00,-1.000000000000000000e+00,-7.000000000000000000e+00,-1.200000000000000000e+01,2.000000000000000000e+00,0.000000000000000000e+00,6.000000000000000000e+00,-2.000000000000000000e+00,3.871459960937500000e-01,1.783447265625000000e-01,-9.022216796875000000e-01,-6.579589843750000000e-02
-1.000000000000000000e+00,4.000000000000000000e+00,6.000000000000000000e+00,1.000000000000000000e+00,-4.000000000000000000e+00,-1.000000000000000000e+00,1.000000000000000000e+00,-1.000000000000000000e+00,3.860473632812500000e-01,1.787109375000000000e-01,-9.026489257812500000e-01,-6.512451171875000000e-02
5.000000000000000000e+00,-1.000000000000000000e+00,3.400000000000000000e+01,-7.000000000000000000e+00,0.000000000000000000e+00,0.000000000000000000e+00,-5.000000000000000000e+00,1.000000000000000000e+00,3.860473632812500000e-01,1.787109375000000000e-01,-9.026489257812500000e-01,-6.512451171875000000e-02
-2.000000000000000000e+00,-9.000000000000000000e+00,-2.800000000000000000e+01,-1.800000000000000000e+01,-1.100000000000000000e+01,-2.000000000000000000e+00,-3.000000000000000000e+00,-1.000000000000000000e+00,3.860473632812500000e-01,1.787109375000000000e-01,-9.026489257812500000e-01,-6.512451171875000000e-02
-6.000000000000000000e+00,-2.000000000000000000e+00,3.100000000000000000e+01,1.900000000000000000e+01,-2.000000000000000000e+00,-2.000000000000000000e+00,-5.000000000000000000e+00,-4.000000000000000000e+00,3.860473632812500000e-01,1.787109375000000000e-01,-9.026489257812500000e-01,-6.512451171875000000e-02
2.000000000000000000e+00,-2.000000000000000000e+00,-4.000000000000000000e+00,-6.000000000000000000e+00,-2.000000000000000000e+00,0.000000000000000000e+00,5.000000000000000000e+00,1.000000000000000000e+00,3.851928710937500000e-01,1.792602539062500000e-01,-9.029541015625000000e-01,-6.488037109375000000e-02
-3.000000000000000000e+00,0.000000000000000000e+00,-1.500000000000000000e+01,1.000000000000000000e+00,0.000000000000000000e+00,3.000000000000000000e+00,5.000000000000000000e+00,1.000000000000000000e+00,3.851928710937500000e-01,1.792602539062500000e-01,-9.029541015625000000e-01,-6.488037109375000000e-02
-1.000000000000000000e+00,4.000000000000000000e+00,-7.000000000000000000e+00,-5.000000000000000000e+00,0.000000000000000000e+00,-2.000000000000000000e+00,-4.000000000000000000e+00,1.000000000000000000e+00,3.851928710937500000e-01,1.792602539062500000e-01,-9.029541015625000000e-01,-6.488037109375000000e-02
0.000000000000000000e+00,1.000000000000000000e+00,-2.000000000000000000e+00,-5.000000000000000000e+00,-4.000000000000000000e+00,-2.000000000000000000e+00,-2.000000000000000000e+00,0.000000000000000000e+00,3.851928710937500000e-01,1.792602539062500000e-01,-9.029541015625000000e-01,-6.488037109375000000e-02
2.000000000000000000e+00,1.000000000000000000e+01,2.500000000000000000e+01,2.000000000000000000e+01,6.000000000000000000e+00,0.000000000000000000e+00,2.000000000000000000e+00,0.000000000000000000e+00,3.842773437500000000e-01,1.793823242187500000e-01,-9.032592773437500000e-01,-6.518554687500000000e-02
-9.000000000000000000e+00,-1.300000000000000000e+01,3.000000000000000000e+01,4.000000000000000000e+00,-3.000000000000000000e+00,-4.000000000000000000e+00,-4.100000000000000000e+01,-6.000000000000000000e+00,3.842773437500000000e-01,1.793823242187500000e-01,-9.032592773437500000e-01,-6.518554687500000000e-02
0.000000000000000000e+00,2.000000000000000000e+00,1.300000000000000000e+01,2.100000000000000000e+01,7.000000000000000000e+00,8.000000000000000000e+00,3.500000000000000000e+01,2.000000000000000000e+00,3.842773437500000000e-01,1.793823242187500000e-01,-9.032592773437500000e-01,-6.518554687500000000e-02
7.000000000000000000e+00,-1.000000000000000000e+00,-1.700000000000000000e+01,-1.600000000000000000e+01,-4.000000000000000000e+00,0.000000000000000000e+00,6.000000000000000000e+00,1.000000000000000000e+00,3.842773437500000000e-01,1.793823242187500000e-01,-9.032592773437500000e-01,-6.518554687500000000e-02
0.000000000000000000e+00,-2.000000000000000000e+00,-1.100000000000000000e+01,-8.000000000000000000e+00,1.000000000000000000e+00,-1.000000000000000000e+00,1.000000000000000000e+00,-1.000000000000000000e+00,3.838500976562500000e-01,1.798095703125000000e-01,-9.033813476562500000e-01,-6.542968750000000000e-02
1.000000000000000000e+00,4.000000000000000000e+00,7.000000000000000000e+00,7.000000000000000000e+00,-2.000000000000000000e+00,-1.000000000000000000e+00,1.000000000000000000e+00,1.000000000000000000e+00,3.838500976562500000e-01,1.798095703125000000e-01,-9.033813476562500000e-01,-6.542968750000000000e-02
0.000000000000000000e+00,0.000000000000000000e+00,2.100000000000000000e+01,1.800000000000000000e+01,1.000000000000000000e+00,-4.000000000000000000e+00,-1.400000000000000000e+01,-2.000000000000000000e+00,3.838500976562500000e-01,1.798095703125000000e-01,-9.033813476562500000e-01,-6.542968750000000000e-02
1.300000000000000000e+01,-3.000000000000000000e+00,-1.900000000000000000e+01,-8.000000000000000000e+00,2.000000000000000000e+00,4.000000000000000000e+00,3.000000000000000000e+00,3.000000000000000000e+00,3.838500976562500000e-01,1.798095703125000000e-01,-9.033813476562500000e-01,-6.542968750000000000e-02
-3.800000000000000000e+01,-6.000000000000000000e+00,-1.800000000000000000e+01,-1.300000000000000000e+01,-3.000000000000000000e+00,-2.000000000000000000e+00,-5.000000000000000000e+00,-4.000000000000000000e+00,3.838500976562500000e-01,1.797485351562500000e-01,-9.033813476562500000e-01,-6.536865234375000000e-02
-2.000000000000000000e+00,6.000000000000000000e+00,4.800000000000000000e+01,2.500000000000000000e+01,-1.000000000000000000e+00,-4.000000000000000000e+00,9.000000000000000000e+00,-2.000000000000000000e+00,3.838500976562500000e-01,1.797485351562500000e-01,-9.033813476562500000e-01,-6.536865234375000000e-02
-2.000000000000000000e+00,4.000000000000000000e+00,-8.000000000000000000e+00,1.200000000000000000e+01,-2.000000000000000000e+00,-2.000000000000000000e+00,-7.000000000000000000e+00,0.000000000000000000e+00,3.838500976562500000e-01,1.797485351562500000e-01,-9.033813476562500000e-01,-6.536865234375000000e-02
-4.000000000000000000e+00,-1.000000000000000000e+00,-3.700000000000000000e+01,-2.200000000000000000e+01,-4.000000000000000000e+00,-3.000000000000000000e+00,-1.100000000000000000e+01,-4.000000000000000000e+00,3.838500976562500000e-01,1.797485351562500000e-01,-9.033813476562500000e-01,-6.536865234375000000e-02
8.000000000000000000e+00,-5.000000000000000000e+00,-1.000000000000000000e+01,-3.200000000000000000e+01,-4.000000000000000000e+00,2.000000000000000000e+00,0.000000000000000000e+00,-1.000000000000000000e+00,3.841552734375000000e-01,1.802368164062500000e-01,-9.031982421875000000e-01,-6.463623046875000000e-02
-1.000000000000000000e+00,1.000000000000000000e+00,2.000000000000000000e+01,1.300000000000000000e+01,1.000000000000000000e+00,-3.000000000000000000e+00,4.000000000000000000e+00,-3.000000000000000000e+00,3.841552734375000000e-01,1.802368164062500000e-01,-9.031982421875000000e-01,-6.463623046875000000e-02
-3.000000000000000000e+00,3.000000000000000000e+00,-5.500000000000000000e+01,-4.000000000000000000e+01,5.000000000000000000e+00,4.000000000000000000e+00,-2.000000000000000000e+00,2.000000000000000000e+00,3.841552734375000000e-01,1.802368164062500000e-01,-9.031982421875000000e-01,-6.463623046875000000e-02
-5.000000000000000000e+00,-6.000000000000000000e+00,5.700000000000000000e+01,2.700000000000000000e+01,-1.000000000000000000e+00,-2.000000000000000000e+00,-1.000000000000000000e+01,-6.000000000000000000e+00,3.841552734375000000e-01,1.802368164062500000e-01,-9.031982421875000000e-01,-6.463623046875000000e-02
4.000000000000000000e+00,-6.000000000000000000e+00,-3.100000000000000000e+01,1.100000000000000000e+01,-3.000000000000000000e+00,-6.000000000000000000e+00,9.000000000000000000e+00,-1.000000000000000000e+00,3.845825195312500000e-01,1.807250976562500000e-01,-9.029541015625000000e-01,-6.408691406250000000e-02
-2.000000000000000000e+00,-1.000000000000000000e+00,-6.000000000000000000e+00,-8.000000000000000000e+00,-2.000000000000000000e+00,2.000000000000000000e+00,7.000000000000000000e+00,-1.000000000000000000e+00,3.845825195312500000e-01,1.807250976562500000e-01,-9.029541015625000000e-01,-6.408691406250000000e-02
6.000000000000000000e+00,-2.000000000000000000e+00,-5.000000000000000000e+00,-1.100000000000000000e+01,-6.000000000000000000e+00,-9.000000000000000000e+00,-4.600000000000000000e+01,-2.000000000000000000e+00,3.845825195312500000e-01,1.807250976562500000e-01,-9.029541015625000000e-01,-6.408691406250000000e-02
-2.000000000000000000e+00,3.000000000000000000e+00,-4.000000000000000000e+00,4.000000000000000000e+00,4.000000000000000000e+00,9.000000000000000000e+00,2.400000000000000000e+01,3.000000000000000000e+00,3.845825195312500000e-01,1.807250976562500000e-01,-9.029541015625000000e-01,-6.408691406250000000e-02
2.000000000000000000e+00,1.000000000000000000e+00,-1.800000000000000000e+01,-8.000000000000000000e+00,-4.000000000000000000e+00,0.000000000000000000e+00,-1.000000000000000000e+00,0.000000000000000000e+00,3.853149414062500000e-01,1.811523437500000000e-01,-9.025878906250000000e-01,-6.408691406250000000e-02
-6.000000000000000000e+00,-8.000000000000000000e+00,-2.600000000000000000e+01,-1.200000000000000000e+01,-3.000000000000000000e+00,2.000000000000000000e+00,1.100000000000000000e+01,-1.000000000000000000e+00,3.853149414062500000e-01,1.811523437500000000e-01,-9.025878906250000000e-01,-6.408691406250000000e-02
-6.000000000000000000e+00,-1.000000000000000000e+00,2.300000000000000000e+01,1.400000000000000000e+01,-1.000000000000000000e+00,-9.000000000000000000e+00,-2.500000000000000000e+01,-6.000000000000000000e+00,3.853149414062500000e-01,1.811523437500000000e-01,-9.025878906250000000e-01,-6.408691406250000000e-02
-3.000000000000000000e+00,3.000000000000000000e+00,1.200000000000000000e+01,-5.000000000000000000e+00,1.000000000000000000e+00,0.000000000000000000e+00,3.000000000000000000e+00,0.000000000000000000e+00,3.853149414062500000e-01,1.811523437500000000e-01,-9.025878906250000000e-01,-6.408691406250000000e-02
1.000000000000000000e+00,0.000000000000000000e+00,-8.000000000000000000e+00,3.000000000000000000e+00,2.000000000000000000e+00,5.000000000000000000e+00,1.900000000000000000e+01,0.000000000000000000e+00,3.859863281250000000e-01,1.807250976562500000e-01,-9.023437500000000000e-01,-6.457519531250000000e-02
3.000000000000000000e+00,-2.000000000000000000e+00,1.500000000000000000e+01,4.000000000000000000e+00,-5.000000000000000000e+00,-9.000000000000000000e+00,-6.000000000000000000e+00,0.000000000000000000e+00,3.859863281250000000e-01,1.807250976562500000e-01,-9.023437500000000000e-01,-6.457519531250000000e-02
-1.000000000000000000e+00,-2.000000000000000000e+00,1.500000000000000000e+01,-1.000000000000000000e+00,-3.000000000000000000e+00,0.000000000000000000e+00,6.000000000000000000e+00,-2.000000000000000000e+00,3.859863281250000000e-01,1.807250976562500000e-01,-9.023437500000000000e-01,-6.457519531250000000e-02
-2.000000000000000000e+00,1.000000000000000000e+00,-1.600000000000000000e+01,-1.000000000000000000e+01,-2.000000000000000000e+00,-3.000000000000000000e+00,-9.000000000000000000e+00,-1.000000000000000000e+00,3.859863281250000000e-01,1.807250976562500000e-01,-9.023437500000000000e-01,-6.457519531250000000e-02
5.000000000000000000e+00,-4.000000000000000000e+00,-6.000000000000000000e+00,1.000000000000000000e+01,6.000000000000000000e+00,6.000000000000000000e+00,6.000000000000000000e+00,3.000000000000000000e+00,3.867797851562500000e-01,1.798706054687500000e-01,-9.021606445312500000e-01,-6.481933593750000000e-02
1.800000000000000000e+01,-3.000000000000000000e+00,-4.400000000000000000e+01,-1.200000000000000000e+01,-2.000000000000000000e+00,-1.000000000000000000e+00,1.000000000000000000e+01,1.000000000000000000e+00,3.867797851562500000e-01,1.798706054687500000e-01,-9.021606445312500000e-01,-6.481933593750000000e-02
-2.000000000000000000e+00,-6.000000000000000000e+00,-2.000000000000000000e+00,-3.400000000000000000e+01,-5.000000000000000000e+00,1.000000000000000000e+00,1.700000000000000000e+01,2.000000000000000000e+00,3.867797851562500000e-01,1.798706054687500000e-01,-9.021606445312500000e-01,-6.481933593750000000e-02
-1.100000000000000000e+01,0.000000000000000000e+00,-2.300000000000000000e+01,-6.000000000000000000e+00,-2.000000000000000000e+00,-3.000000000000000000e+00,-3.000000000000000000e+00,1.000000000000000000e+00,3.867797851562500000e-01,1.798706054687500000e-01,-9.021606445312500000e-01,-6.481933593750000000e-02
4.000000000000000000e+00,2.000000000000000000e+00,6.000000000000000000e+00,-6.000000000000000000e+00,-4.000000000000000000e+00,-2.000000000000000000e+00,-1.100000000000000000e+01,-2.000000000000000000e+00,3.873901367187500000e-01,1.800537109375000000e-01,-9.018554687500000000e-01,-6.463623046875000000e-02
-6.000000000000000000e+00,-1.000000000000000000e+00,-9.000000000000000000e+00,1.600000000000000000e+01,6.000000000000000000e+00,1.000000000000000000e+00,-1.200000000000000000e+01,-1.000000000000000000e+00,3.873901367187500000e-01,1.800537109375000000e-01,-9.018554687500000000e-01,-6.463623046875000000e-02
7.000000000000000000e+00,-1.000000000000000000e+00,-1.400000000000000000e+01,-1.300000000000000000e+01,-2.000000000000000000e+00,0.000000000000000000e+00,6.000000000000000000e+00,-2.000000000000000000e+00,3.873901367187500000e-01,1.800537109375000000e-01,-9.018554687500000000e-01,-6.463623046875000000e-02
6.000000000000000000e+00,-1.000000000000000000e+00,-1.000000000000000000e+01,1.200000000000000000e+01,-1.000000000000000000e+00,-2.000000000000000000e+00,7.000000000000000000e+00,1.000000000000000000e+00,3.873901367187500000e-01,1.800537109375000000e-01,-9.018554687500000000e-01,-6.463623046875000000e-02
-7.000000000000000000e+00,-7.000000000000000000e+00,4.000000000000000000e+00,-1.700000000000000000e+01,1.000000000000000000e+00,2.000000000000000000e+00,-1.100000000000000000e+01,-6.000000000000000000e+00,3.876953125000000000e-01,1.804199218750000000e-01,-9.016113281250000000e-01,-6.494140625000000000e-02
3.000000000000000000e+00,5.000000000000000000e+00,-4.000000000000000000e+00,7.000000000000000000e+00,-3.000000000000000000e+00,-3.000000000000000000e+00,-2.000000000000000000e+00,2.000000000000000000e+00,3.876953125000000000e-01,1.804199218750000000e-01,-9.016113281250000000e-01,-6.494140625000000000e-02
2.000000000000000000e+00,7.000000000000000000e+00,1.100000000000000000e+01,1.200000000000000000e+01,1.200000000000000000e+01,5.000000000000000000e+00,8.000000000000000000e+00,3.000000000000000000e+00,3.876953125000000000e-01,1.804199218750000000e-01,-9.016113281250000000e-01,-6.494140625000000000e-02
-3.000000000000000000e+00,-2.000000000000000000e+00,2.800000000000000000e+01,1.400000000000000000e+01,-4.000000000000000000e+00,-4.000000000000000000e+00,-1.000000000000000000e+01,-3.000000000000000000e+00,3.876953125000000000e-01,1.804199218750000000e-01,-9.016113281250000000e-01,-6.494140625000000000e-02
0.000000000000000000e+00,-2.000000000000000000e+00,2.300000000000000000e+01,9.000000000000000000e+00,-4.000000000000000000e+00,-7.000000000000000000e+00,-4.900000000000000000e+01,-4.000000000000000000e+00,3.875122070312500000e-01,1.810302734375000000e-01,-9.015502929687500000e-01,-6.567382812500000000e-02
-4.000000000000000000e+00,-1.000000000000000000e+00,-8.000000000000000000e+00,-5.000000000000000000e+00,-2.000000000000000000e+00,0.000000000000000000e+00,6.000000000000000000e+00,-2.000000000000000000e+00,3.875122070312500000e-01,1.810302734375000000e-01,-9.015502929687500000e-01,-6.567382812500000000e-02
-4.000000000000000000e+00,0.000000000000000000e+00,6.000000000000000000e+00,-1.000000000000000000e+00,-3.000000000000000000e+00,1.000000000000000000e+00,-2.000000000000000000e+00,-3.000000000000000000e+00,3.875122070312500000e-01,1.810302734375000000e-01,-9.015502929687500000e-01,-6.567382812500000000e-02
-2.000000000000000000e+00,-4.000000000000000000e+00,1.400000000000000000e+01,-4.000000000000000000e+00,-1.000000000000000000e+00,-1.000000000000000000e+01,1.000000000000000000e+00,-1.000000000000000000e+00,3.875122070312500000e-01,1.810302734375000000e-01,-9.015502929687500000e-01,-6.567382812500000000e-02
3.000000000000000000e+00,-2.000000000000000000e+00,-7.100000000000000000e+01,-2.000000000000000000e+00,1.000000000000000000e+00,1.000000000000000000e+00,-3.000000000000000000e+00,0.000000000000000000e+00,3.873291015625000000e-01,1.815795898437500000e-01,-9.014282226562500000e-01,-6.665039062500000000e-02
-9.000000000000000000e+00,-1.000000000000000000e+00,3.000000000000000000e+01,-3.000000000000000000e+01,-4.000000000000000000e+00,-1.000000000000000000e+00,0.000000000000000000e+00,-1.000000000000000000e+00,3.873291015625000000e-01,1.815795898437500000e-01,-9.014282226562500000e-01,-6.665039062500000000e-02
-3.000000000000000000e+00,-5.000000000000000000e+00,-1.100000000000000000e+01,1.000000000000000000e+00,-5.000000000000000000e+00,-4.000000000000000000e+00,-8.000000000000000000e+00,-4.000000000000000000e+00,3.873291015625000000e-01,1.815795898437500000e-01,-9.014282226562500000e-01,-6.665039062500000000e-02
1.300000000000000000e+01,2.000000000000000000e+00,3.000000000000000000e+00,-1.000000000000000000e+00,0.000000000000000000e+00,3.000000000000000000e+00,2.000000000000000000e+00,1.000000000000000000e+00,3.873291015625000000e-01,1.815795898437500000e-01,-9.014282226562500000e-01,-6.665039062500000000e-02
-1.000000000000000000e+00,-1.000000000000000000e+00,3.400000000000000000e+01,1.500000000000000000e+01,-2.000000000000000000e+00,-2.000000000000000000e+00,1.300000000000000000e+01,-2.000000000000000000e+00,3.872680664062500000e-01,1.821899414062500000e-01,-9.012451171875000000e-01,-6.738281250000000000e-02
0.000000000000000000e+00,-4.000000000000000000e+00,-9.000000000000000000e+00,5.000000000000000000e+00,7.000000000000000000e+00,1.000000000000000000e+00,0.000000000000000000e+00,3.000000000000000000e+00,3.872680664062500000e-01,1.821899414062500000e-01,-9.012451171875000000e-01,-6.738281250000000000e-02
-8.000000000000000000e+00,-2.000000000000000000e+00,1.400000000000000000e+01,4.000000000000000000e+00,0.000000000000000000e+00,2.000000000000000000e+00,8.000000000000000000e+00,-2.000000000000000000e+00,3.872680664062500000e-01,1.821899414062500000e-01,-9.012451171875000000e-01,-6.738281250000000000e-02
-3.000000000000000000e+00,4.000000000000000000e+00,2.400000000000000000e+01,6.000000000000000000e+00,0.000000000000000000e+00,-3.000000000000000000e+00,-1.200000000000000000e+01,0.000000000000000000e+00,3.872680664062500000e-01,1.821899414062500000e-01,-9.012451171875000000e-01,-6.738281250000000000e-02
-2.000000000000000000e+00,-5.000000000000000000e+00,-4.400000000000000000e+01,-2.700000000000000000e+01,-6.000000000000000000e+00,-2.000000000000000000e+00,8.000000000000000000e+00,0.000000000000000000e+00,3.873291015625000000e-01,1.824340820312500000e-01,-9.011840820312500000e-01,-6.787109375000000000e-02
3.000000000000000000e+00,0.000000000000000000e+00,-1.200000000000000000e+01,-2.000000000000000000e+00,0.000000000000000000e+00,1.000000000000000000e+00,-1.000000000000000000e+01,0.000000000000000000e+00,3.873291015625000000e-01,1.824340820312500000e-01,-9.011840820312500000e-01,-6.787109375000000000e-02
-6.000000000000000000e+00,-2.000000000000000000e+00,5.000000000000000000e+00,1.000000000000000000e+01,-4.000000000000000000e+00,0.000000000000000000e+00,5.000000000000000000e+00,-4.000000000000000000e+00,3.873291015625000000e-01,1.824340820312500000e-01,-9.011840820312500000e-01,-6.787109375000000000e-02
-3.000000000000000000e+00,2.000000000000000000e+00,-5.100000000000000000e+01,-2.600000000000000000e+01,-1.000000000000000000e+00,-2.000000000000000000e+00,-5.000000000000000000e+00,-1.000000000000000000e+00,3.873291015625000000e-01,1.824340820312500000e-01,-9.011840820312500000e-01,-6.787109375000000000e-02
-2.000000000000000000e+00,2.000000000000000000e+00,-1.500000000000000000e+01,2.000000000000000000e+00,-2.000000000000000000e+00,-4.000000000000000000e+00,-5.000000000000000000e+00,0.000000000000000000e+00,3.872680664062500000e-01,1.825561523437500000e-01,-9.011230468750000000e-01,-6.811523437500000000e-02
-5.000000000000000000e+00,-5.000000000000000000e+00,3.600000000000000000e+01,-1.000000000000000000e+00,-1.000000000000000000e+00,1.000000000000000000e+00,-1.000000000000000000e+00,-3.000000000000000000e+00,3.872680664062500000e-01,1.825561523437500000e-01,-9.011230468750000000e-01,-6.811523437500000000e-02
0.000000000000000000e+00,-3.000000000000000000e+00,1.900000000000000000e+01,2.200000000000000000e+01,2.000000000000000000e+00,0.000000000000000000e+00,2.000000000000000000e+00,3.000000000000000000e+00,3.872680664062500000e-01,1.825561523437500000e-01,-9.011230468750000000e-01,-6.811523437500000000e-02
3.000000000000000000e+00,-2.000000000000000000e+00,-1.600000000000000000e+01,-6.000000000000000000e+00,-2.000000000000000000e+00,-1.000000000000000000e+00,7.000000000000000000e+00,1.000000000000000000e+00,3.872680664062500000e-01,1.825561523437500000e-01,-9.011230468750000000e-01,-6.811523437500000000e-02
1.000000000000000000e+01,0.000000000000000000e+00,6.000000000000000000e+00,-2.000000000000000000e+00,0.000000000000000000e+00,0.000000000000000000e+00,4.000000000000000000e+00,0.000000000000000000e+00,3.872680664062500000e-01,1.828002929687500000e-01,-9.011230468750000000e-01,-6.817626953125000000e-02
-8.000000000000000000e+00,3.000000000000000000e+00,-5.000000000000000000e+00,-2.000000000000000000e+00,0.000000000000000000e+00,-2.000000000000000000e+00,-5.000000000000000000e+00,-4.000000000000000000e+00,3.872680664062500000e-01,1.828002929687500000e-01,-9.011230468750000000e-01,-6.817626953125000000e-02
-1.000000000000000000e+00,-1.000000000000000000e+00,-1.100000000000000000e+01,1.100000000000000000e+01,-1.000000000000000000e+00,-6.000000000000000000e+00,-3.000000000000000000e+00,-1.000000000000000000e+00,3.872680664062500000e-01,1.828002929687500000e-01,-9.011230468750000000e-01,-6.817626953125000000e-02
-9.000000000000000000e+00,-6.000000000000000000e+00,1.000000000000000000e+00,-2.000000000000000000e+01,-1.000000000000000000e+00,0.000000000000000000e+00,-1.900000000000000000e+01,-8.000000000000000000e+00,3.872680664062500000e-01,1.828002929687500000e-01,-9.011230468750000000e-01,-6.817626953125000000e-02
8.000000000000000000e+00,0.000000000000000000e+00,5.000000000000000000e+00,5.000000000000000000e+00,-1.000000000000000000e+00,0.000000000000000000e+00,1.000000000000000000e+00,1.000000000000000000e+00,3.871459960937500000e-01,1.828002929687500000e-01,-9.011230468750000000e-01,-6.829833984375000000e-02
7.000000000000000000e+00,5.000000000000000000e+00,2.100000000000000000e+01,1.600000000000000000e+01,1.000000000000000000e+00,-3.000000000000000000e+00,-9.000000000000000000e+00,3.000000000000000000e+00,3.871459960937500000e-01,1.828002929687500000e-01,-9.011230468750000000e-01,-6.829833984375000000e-02
-6.000000000000000000e+00,-4.000000000000000000e+00,-1.800000000000000000e+01,-1.300000000000000000e+01,-3.000000000000000000e+00,7.000000000000000000e+00,2.300000000000000000e+01,-2.000000000000000000e+00,3.871459960937500000e-01,1.828002929687500000e-01,-9.011230468750000000e-01,-6.829833984375000000e-02
6.000000000000000000e+00,3.000000000000000000e+00,5.000000000000000000e+00,1.000000000000000000e+01,3.000000000000000000e+00,-2.000000000000000000e+00,-3.000000000000000000e+00,0.000000000000000000e+00,3.871459960937500000e-01,1.828002929687500000e-01,-9.011230468750000000e-01,-6.829833984375000000e-02
-2.000000000000000000e+00,-1.100000000000000000e+01,-4.400000000000000000e+01,-3.200000000000000000e+01,-8.000000000000000000e+00,-3.000000000000000000e+00,0.000000000000000000e+00,-2.000000000000000000e+00,3.869628906250000000e-01,1.826171875000000000e-01,-9.012451171875000000e-01,-6.829833984375000000e-02
1.000000000000000000e+00,2.000000000000000000e+00,6.000000000000000000e+00,-5.000000000000000000e+00,1.000000000000000000e+00,-2.000000000000000000e+00,7.000000000000000000e+00,-3.000000000000000000e+00,3.869628906250000000e-01,1.826171875000000000e-01,-9.012451171875000000e-01,-6.829833984375000000e-02
-1.000000000000000000e+01,-1.000000000000000000e+00,-1.500000000000000000e+01,-7.000000000000000000e+00,-1.000000000000000000e+00,-4.000000000000000000e+00,-3.000000000000000000e+00,0.000000000000000000e+00,3.869628906250000000e-01,1.826171875000000000e-01,-9.012451171875000000e-01,-6.829833984375000000e-02
-7.000000000000000000e+00,-3.000000000000000000e+00,-6.000000000000000000e+00,-8.000000000000000000e+00,-3.000000000000000000e+00,-3.000000000000000000e+00,-2.700000000000000000e+01,-3.000000000000000000e+00,3.869628906250000000e-01,1.826171875000000000e-01,-9.012451171875000000e-01,-6.829833984375000000e-02
-4.000000000000000000e+00,3.000000000000000000e+00,3.100000000000000000e+01,1.800000000000000000e+01,3.000000000000000000e+00,3.000000000000000000e+00,1.700000000000000000e+01,-1.000000000000000000e+00,3.867797851562500000e-01,1.823730468750000000e-01,-9.013671875000000000e-01,-6.817626953125000000e-02
0.000000000000000000e+00,-3.000000000000000000e+00,-1.800000000000000000e+01,6.000000000000000000e+00,-4.000000000000000000e+00,1.000000000000000000e+00,-6.000000000000000000e+00,1.000000000000000000e+00,3.867797851562500000e-01,1.823730468750000000e-01,-9.013671875000000000e-01,-6.817626953125000000e-02
5.000000000000000000e+00,-4.000000000000000000e+00,-2.400000000000000000e+01,-3.300000000000000000e+01,-9.000000000000000000e+00,-8.000000000000000000e+00,-6.000000000000000000e+00,-1.000000000000000000e+00,3.867797851562500000e-01,1.823730468750000000e-01,-9.013671875000000000e-01,-6.817626953125000000e-02
-1.000000000000000000e+00,1.000000000000000000e+00,1.900000000000000000e+01,8.000000000000000000e+00,0.000000000000000000e+00,-1.000000000000000000e+00,-1.000000000000000000e+00,-5.000000000000000000e+00,3.867797851562500000e-01,1.823730468750000000e-01,-9.013671875000000000e-01,-6.817626953125000000e-02
-4.000000000000000000e+00,4.000000000000000000e+00,3.000000000000000000e+00,0.000000000000000000e+00,3.000000000000000000e+00,0.000000000000000000e+00,-3.000000000000000000e+00,-1.000000000000000000e+00,3.864746093750000000e-01,1.820068359375000000e-01,-9.016113281250000000e-01,-6.781005859375000000e-02
0.000000000000000000e+00,-1.000000000000000000e+00,-1.100000000000000000e+01,-4.000000000000000000e+00,-4.000000000000000000e+00,-1.000000000000000000e+00,-2.000000000000000000e+00,-1.000000000000000000e+00,3.864746093750000000e-01,1.820068359375000000e-01,-9.016113281250000000e-01,-6.781005859375000000e-02
7.000000000000000000e+00,-1.000000000000000000e+00,4.000000000000000000e+00,0.000000000000000000e+00,-3.000000000000000000e+00,-5.000000000000000000e+00,-1.600000000000000000e+01,1.000000000000000000e+00,3.864746093750000000e-01,1.820068359375000000e-01,-9.016113281250000000e-01,-6.781005859375000000e-02
6.000000000000000000e+00,-3.000000000000000000e+00,-2.000000000000000000e+00,-1.000000000000000000e+00,3.000000000000000000e+00,6.000000000000000000e+00,1.700000000000000000e+01,4.000000000000000000e+00,3.864746093750000000e-01,1.820068359375000000e-01,-9.016113281250000000e-01,-6.781005859375000000e-02
-7.000000000000000000e+00,-2.000000000000000000e+00,9.000000000000000000e+00,1.200000000000000000e+01,1.000000000000000000e+00,-3.000000000000000000e+00,-3.000000000000000000e+00,-2.000000000000000000e+00,3.859863281250000000e-01,1.821899414062500000e-01,-9.018554687500000000e-01,-6.713867187500000000e-02
-1.000000000000000000e+00,-1.000000000000000000e+00,-5.200000000000000000e+01,-6.000000000000000000e+00,-2.000000000000000000e+00,2.000000000000000000e+00,9.000000000000000000e+00,2.000000000000000000e+00,3.859863281250000000e-01,1.821899414062500000e-01,-9.018554687500000000e-01,-6.713867187500000000e-02
-6.000000000000000000e+00,-5.000000000000000000e+00,-5.800000000000000000e+01,-3.400000000000000000e+01,-1.000000000000000000e+00,4.000000000000000000e+00,-7.000000000000000000e+00,-4.000000000000000000e+00,3.859863281250000000e-01,1.821899414062500000e-01,-9.018554687500000000e-01,-6.713867187500000000e-02
4.000000000000000000e+00,1.000000000000000000e+00,5.000000000000000000e+00,-1.000000000000000000e+00,3.000000000000000000e+00,3.000000000000000000e+00,-8.000000000000000000e+00,-4.000000000000000000e+00,3.859863281250000000e-01,1.821899414062500000e-01,-9.018554687500000000e-01,-6.713867187500000000e-02
2.000000000000000000e+00,0.000000000000000000e+00,3.000000000000000000e+01,1.900000000000000000e+01,-2.000000000000000000e+00,-4.000000000000000000e+00,3.000000000000000000e+00,0.000000000000000000e+00,3.853149414062500000e-01,1.823730468750000000e-01,-9.021606445312500000e-01,-6.658935546875000000e-02
-1.000000000000000000e+00,1.000000000000000000e+00,-7.000000000000000000e+00,8.000000000000000000e+00,-1.000000000000000000e+00,-3.000000000000000000e+00,-2.000000000000000000e+00,1.000000000000000000e+00,3.853149414062500000e-01,1.823730468750000000e-01,-9.021606445312500000e-01,-6.658935546875000000e-02
1.100000000000000000e+01,2.000000000000000000e+00,3.100000000000000000e+01,4.000000000000000000e+00,0.000000000000000000e+00,8.000000000000000000e+00,1.800000000000000000e+01,1.000000000000000000e+00,3.853149414062500000e-01,1.823730468750000000e-01,-9.021606445312500000e-01,-6.658935546875000000e-02
-5.000000000000000000e+00,-3.000000000000000000e+00,-1.000000000000000000e+00,1.300000000000000000e+01,-3.000000000000000000e+00,1.000000000000000000e+00,7.000000000000000000e+00,1.000000000000000000e+00,3.853149414062500000e-01,1.823730468750000000e-01,-9.021606445312500000e-01,-6.658935546875000000e-02
-9.000000000000000000e+00,-3.000000000000000000e+00,-5.300000000000000000e+01,-2.700000000000000000e+01,-7.000000000000000000e+00,-7.000000000000000000e+00,-1.700000000000000000e+01,-2.000000000000000000e+00,3.844604492187500000e-01,1.826782226562500000e-01,-9.024658203125000000e-01,-6.616210937500000000e-02
-4.000000000000000000e+00,4.000000000000000000e+00,2.600000000000000000e+01,1.100000000000000000e+01,0.000000000000000000e+00,-5.000000000000000000e+00,2.000000000000000000e+00,-3.000000000000000000e+00,3.844604492187500000e-01,1.826782226562500000e-01,-9.024658203125000000e-01,-6.616210937500000000e-02
0.000000000000000000e+00,1.000000000000000000e+00,1.900000000000000000e+01,7.000000000000000000e+00,0.000000000000000000e+00,-2.000000000000000000e+00,-3.500000000000000000e+01,0.000000000000000000e+00,3.844604492187500000e-01,1.826782226562500000e-01,-9.024658203125000000e-01,-6.616210937500000000e-02
-6.000000000000000000e+00,0.000000000000000000e+00,-1.200000000000000000e+01,6.000000000000000000e+00,2.000000000000000000e+00,1.000000000000000000e+00,3.200000000000000000e+01,3.000000000000000000e+00,3.844604492187500000e-01,1.826782226562500000e-01,-9.024658203125000000e-01,-6.616210937500000000e-02
-1.000000000000000000e+00,0.000000000000000000e+00,3.200000000000000000e+01,4.000000000000000000e+00,1.000000000000000000e+00,0.000000000000000000e+00,6.000000000000000000e+00,1.000000000000000000e+00,3.835449218750000000e-01,1.835937500000000000e-01,-9.027099609375000000e-01,-6.579589843750000000e-02
-2.000000000000000000e+00,-6.000000000000000000e+00,-2.300000000000000000e+01,-1.700000000000000000e+01,-7.000000000000000000e+00,-3.000000000000000000e+00,-7.000000000000000000e+00,-1.000000000000000000e+00,3.835449218750000000e-01,1.835937500000000000e-01,-9.027099609375000000e-01,-6.579589843750000000e-02
0.000000000000000000e+00,-1.000000000000000000e+00,-1.000000000000000000e+01,3.000000000000000000e+00,-2.000000000000000000e+00,-5.000000000000000000e+00,-1.000000000000000000e+00,-1.000000000000000000e+00,3.835449218750000000e-01,1.835937500000000000e-01,-9.027099609375000000e-01,-6.579589843750000000e-02
-1.000000000000000000e+00,-2.000000000000000000e+00,9.000000000000000000e+00,-7.000000000000000000e+00,-9.000000000000000000e+00,-9.000000000000000000e+00,-1.200000000000000000e+01,-1.000000000000000000e+00,3.835449218750000000e-01,1.835937500000000000e-01,-9.027099609375000000e-01,-6.579589843750000000e-02
1.000000000000000000e+00,0.000000000000000000e+00,-4.000000000000000000e+00,-1.000000000000000000e+00,2.000000000000000000e+00,4.000000000000000000e+00,-5.000000000000000000e+00,-2.000000000000000000e+00,3.828125000000000000e-01,1.842651367187500000e-01,-9.028930664062500000e-01,-6.555175781250000000e-02
2.000000000000000000e+00,5.000000000000000000e+00,1.600000000000000000e+01,1.200000000000000000e+01,6.000000000000000000e+00,3.000000000000000000e+00,1.100000000000000000e+01,-1.000000000000000000e+00,3.828125000000000000e-01,1.842651367187500000e-01,-9.028930664062500000e-01,-6.555175781250000000e-02
-4.000000000000000000e+00,-3.000000000000000000e+00,-4.000000000000000000e+00,-1.200000000000000000e+01,-4.000000000000000000e+00,-3.000000000000000000e+00,-4.000000000000000000e+00,-4.000000000000000000e+00,3.828125000000000000e-01,1.842651367187500000e-01,-9.028930664062500000e-01,-6.555175781250000000e-02
-3.000000000000000000e+00,-2.000000000000000000e+00,-2.000000000000000000e+01,-7.000000000000000000e+00,-6.000000000000000000e+00,-1.000000000000000000e+00,-1.000000000000000000e+00,0.000000000000000000e+00,3.828125000000000000e-01,1.842651367187500000e-01,-9.028930664062500000e-01,-6.555175781250000000e-02
-1.000000000000000000e+00,1.000000000000000000e+00,8.000000000000000000e+00,-2.000000000000000000e+00,-3.000000000000000000e+00,-2.000000000000000000e+00,5.000000000000000000e+00,-2.000000000000000000e+00,3.822631835937500000e-01,1.844482421875000000e-01,-9.031372070312500000e-01,-6.518554687500000000e-02
0.000000000000000000e+00,-2.000000000000000000e+00,5.000000000000000000e+00,-2.000000000000000000e+00,0.000000000000000000e+00,3.000000000000000000e+00,-5.000000000000000000e+00,-2.000000000000000000e+00,3.822631835937500000e-01,1.844482421875000000e-01,-9.031372070312500000e-01,-6.518554687500000000e-02
-3.000000000000000000e+00,5.000000000000000000e+00,3.600000000000000000e+01,2.000000000000000000e+01,0.000000000000000000e+00,-3.000000000000000000e+00,4.000000000000000000e+00,-2.000000000000000000e+00,3.822631835937500000e-01,1.844482421875000000e-01,-9.031372070312500000e-01,-6.518554687500000000e-02
2.000000000000000000e+00,0.000000000000000000e+00,-2.400000000000000000e+01,-1.500000000000000000e+01,0.000000000000000000e+00,-4.000000000000000000e+00,-4.000000000000000000e+00,-1.000000000000000000e+00,3.822631835937500000e-01,1.844482421875000000e-01,-9.031372070312500000e-01,-6.518554687500000000e-02
-1.000000000000000000e+00,-6.000000000000000000e+00,1.100000000000000000e+01,-5.000000000000000000e+00,-7.000000000000000000e+00,-3.000000000000000000e+00,-5.000000000000000000e+00,-3.000000000000000000e+00,3.821411132812500000e-01,1.846923828125000000e-01,-9.031372070312500000e-01,-6.475830078125000000e-02
-1.000000000000000000e+00,4.000000000000000000e+00,-1.800000000000000000e+01,-5.000000000000000000e+00,1.000000000000000000e+00,4.000000000000000000e+00,-1.000000000000000000e+00,-2.000000000000000000e+00,3.821411132812500000e-01,1.846923828125000000e-01,-9.031372070312500000e-01,-6.475830078125000000e-02
-2.000000000000000000e+00,-5.000000000000000000e+00,-6.000000000000000000e+00,-1.300000000000000000e+01,-1.000000000000000000e+00,-2.000000000000000000e+00,-1.000000000000000000e+00,0.000000000000000000e+00,3.821411132812500000e-01,1.846923828125000000e-01,-9.031372070312500000e-01,-6.475830078125000000e-02
-6.000000000000000000e+00,-6.000000000000000000e+00,1.300000000000000000e+01,4.000000000000000000e+00,-3.000000000000000000e+00,-1.000000000000000000e+00,1.000000000000000000e+00,-6.000000000000000000e+00,3.821411132812500000e-01,1.846923828125000000e-01,-9.031372070312500000e-01,-6.475830078125000000e-02
3.000000000000000000e+00,3.000000000000000000e+00,4.000000000000000000e+00,6.000000000000000000e+00,-2.000000000000000000e+00,-5.000000000000000000e+00,0.000000000000000000e+00,2.000000000000000000e+00,3.820190429687500000e-01,1.849365234375000000e-01,-9.031982421875000000e-01,-6.420898437500000000e-02
-2.000000000000000000e+00,-5.000000000000000000e+00,-2.000000000000000000e+01,-1.300000000000000000e+01,1.000000000000000000e+00,1.000000000000000000e+00,-1.000000000000000000e+00,0.000000000000000000e+00,3.820190429687500000e-01,1.849365234375000000e-01,-9.031982421875000000e-01,-6.420898437500000000e-02
0.000000000000000000e+00,3.000000000000000000e+00,9.000000000000000000e+00,3.200000000000000000e+01,5.000000000000000000e+00,-3.000000000000000000e+00,-3.600000000000000000e+01,-4.000000000000000000e+00,3.820190429687500000e-01,1.849365234375000000e-01,-9.031982421875000000e-01,-6.420898437500000000e-02
1.100000000000000000e+01,1.000000000000000000e+00,-5.600000000000000000e+01,-3.100000000000000000e+01,-5.000000000000000000e+00,1.000000000000000000e+00,9.000000000000000000e+00,0.000000000000000000e+00,3.820190429687500000e-01,1.849365234375000000e-01,-9.031982421875000000e-01,-6.420898437500000000e-02
-2.100000000000000000e+01,-2.000000000000000000e+00,1.800000000000000000e+01,-3.000000000000000000e+00,-2.000000000000000000e+00,-4.000000000000000000e+00,3.000000000000000000e+00,-3.000000000000000000e+00,3.820190429687500000e-01,1.851196289062500000e-01,-9.031982421875000000e-01,-6.365966796875000000e-02
-8.000000000000000000e+00,-9.000000000000000000e+00,1.700000000000000000e+01,6.000000000000000000e+00,-6.000000000000000000e+00,-2.000000000000000000e+00,8.000000000000000000e+00,-1.000000000000000000e+00,3.820190429687500000e-01,1.851196289062500000e-01,-9.031982421875000000e-01,-6.365966796875000000e-02
2.000000000000000000e+00,1.000000000000000000e+00,-7.000000000000000000e+00,4.000000000000000000e+00,1.000000000000000000e+00,-1.000000000000000000e+00,-4.000000000000000000e+00,2.000000000000000000e+00,3.820190429687500000e-01,1.851196289062500000e-01,-9.031982421875000000e-01,-6.365966796875000000e-02
-6.000000000000000000e+00,0.000000000000000000e+00,1.600000000000000000e+01,3.000000000000000000e+00,-4.000000000000000000e+00,-1.000000000000000000e+00,-1.000000000000000000e+00,4.000000000000000000e+00,3.820190429687500000e-01,1.851196289062500000e-01,-9.031982421875000000e-01,-6.365966796875000000e-02
1.200000000000000000e+01,7.000000000000000000e+00,-2.300000000000000000e+01,-2.000000000000000000e+00,8.000000000000000000e+00,6.000000000000000000e+00,-3.000000000000000000e+00,-2.000000000000000000e+00,3.822021484375000000e-01,1.849365234375000000e-01,-9.031982421875000000e-01,-6.329345703125000000e-02
-2.000000000000000000e+00,-3.000000000000000000e+00,3.900000000000000000e+01,1.100000000000000000e+01,-5.000000000000000000e+00,-9.000000000000000000e+00,-1.100000000000000000e+01,-3.000000000000000000e+00,3.822021484375000000e-01,1.849365234375000000e-01,-9.031982421875000000e-01,-6.329345703125000000e-02
-6.000000000000000000e+00,-8.000000000000000000e+00,-3.200000000000000000e+01,-2.000000000000000000e+01,0.000000000000000000e+00,-1.000000000000000000e+00,-2.000000000000000000e+00,-2.000000000000000000e+00,3.822021484375000000e-01,1.849365234375000000e-01,-9.031982421875000000e-01,-6.329345703125000000e-02
4.000000000000000000e+00,-2.000000000000000000e+00,1.000000000000000000e+00,-3.000000000000000000e+00,-6.000000000000000000e+00,-2.000000000000000000e+00,2.000000000000000000e+00,1.000000000000000000e+00,3.822021484375000000e-01,1.849365234375000000e-01,-9.031982421875000000e-01,-6.329345703125000000e-02
-1.000000000000000000e+00,0.000000000000000000e+00,8.000000000000000000e+00,2.000000000000000000e+00,1.000000000000000000e+00,1.000000000000000000e+00,8.000000000000000000e+00,0.000000000000000000e+00,3.823852539062500000e-01,1.851806640625000000e-01,-9.030761718750000000e-01,-6.317138671875000000e-02
1.000000000000000000e+00,3.000000000000000000e+00,7.000000000000000000e+00,4.000000000000000000e+00,2.000000000000000000e+00,1.000000000000000000e+00,5.000000000000000000e+00,1.000000000000000000e+00,3.823852539062500000e-01,1.851806640625000000e-01,-9.030761718750000000e-01,-6.317138671875000000e-02
5.000000000000000000e+00,2.000000000000000000e+00,1.600000000000000000e+01,3.700000000000000000e+01,2.000000000000000000e+00,3.000000000000000000e+00,1.100000000000000000e+01,0.000000000000000000e+00,3.823852539062500000e-01,1.851806640625000000e-01,-9.030761718750000000e-01,-6.317138671875000000e-02
-3.000000000000000000e+00,5.000000000000000000e+00,-1.100000000000000000e+01,-2.700000000000000000e+01,2.000000000000000000e+00,2.000000000000000000e+00,-1.200000000000000000e+01,-1.000000000000000000e+00,3.823852539062500000e-01,1.851806640625000000e-01,-9.030761718750000000e-01,-6.317138671875000000e-02
-8.000000000000000000e+00,-6.000000000000000000e+00,4.500000000000000000e+01,1.600000000000000000e+01,-6.000000000000000000e+00,-3.000000000000000000e+00,3.000000000000000000e+00,-5.000000000000000000e+00,3.825683593750000000e-01,1.847534179687500000e-01,-9.030761718750000000e-01,-6.323242187500000000e-02
-3.000000000000000000e+00,-4.000000000000000000e+00,1.000000000000000000e+00,3.000000000000000000e+00,-2.000000000000000000e+00,-5.000000000000000000e+00,-3.000000000000000000e+00,0.000000000000000000e+00,3.825683593750000000e-01,1.847534179687500000e-01,-9.030761718750000000e-01,-6.323242187500000000e-02
3.000000000000000000e+00,-4.000000000000000000e+00,1.500000000000000000e+01,4.000000000000000000e+00,-1.000000000000000000e+00,-1.000000000000000000e+00,5.000000000000000000e+00,0.000000000000000000e+00,3.825683593750000000e-01,1.847534179687500000e-01,-9.030761718750000000e-01,-6.323242187500000000e-02
-3.000000000000000000e+00,3.000000000000000000e+00,2.000000000000000000e+00,1.300000000000000000e+01,0.000000000000000000e+00,-1.000000000000000000e+00,-3.000000000000000000e+00,0.000000000000000000e+00,3.825683593750000000e-01,1.847534179687500000e-01,-9.030761718750000000e-01,-6.323242187500000000e-02
