3.000000000000000000e+00,0.000000000000000000e+00,1.300000000000000000e+01,-1.400000000000000000e+01,7.000000000000000000e+00,1.000000000000000000e+00,0.000000000000000000e+00,-1.000000000000000000e+00,5.301513671875000000e-01,1.550292968750000000e-01,-8.332519531250000000e-01,2.453613281250000000e-02
-8.000000000000000000e+00,-5.000000000000000000e+00,-9.000000000000000000e+00,-1.000000000000000000e+00,0.000000000000000000e+00,0.000000000000000000e+00,-1.000000000000000000e+00,-1.000000000000000000e+00,5.301513671875000000e-01,1.550292968750000000e-01,-8.332519531250000000e-01,2.453613281250000000e-02
6.000000000000000000e+00,2.000000000000000000e+00,-5.000000000000000000e+00,-1.300000000000000000e+01,6.000000000000000000e+00,-1.000000000000000000e+00,-1.000000000000000000e+01,0.000000000000000000e+00,5.303955078125000000e-01,1.563110351562500000e-01,-8.328857421875000000e-01,2.490234375000000000e-02
5.000000000000000000e+00,-2.000000000000000000e+00,-1.400000000000000000e+01,-6.000000000000000000e+00,0.000000000000000000e+00,4.000000000000000000e+00,9.000000000000000000e+00,2.000000000000000000e+00,5.303955078125000000e-01,1.563110351562500000e-01,-8.328857421875000000e-01,2.490234375000000000e-02
-2.000000000000000000e+00,2.000000000000000000e+00,3.000000000000000000e+00,1.100000000000000000e+01,-3.000000000000000000e+00,-3.000000000000000000e+00,1.000000000000000000e+00,-2.000000000000000000e+00,5.303955078125000000e-01,1.563110351562500000e-01,-8.328857421875000000e-01,2.490234375000000000e-02
-4.000000000000000000e+00,-1.100000000000000000e+01,5.000000000000000000e+00,0.000000000000000000e+00,-1.000000000000000000e+00,-3.000000000000000000e+00,0.000000000000000000e+00,1.000000000000000000e+00,5.303955078125000000e-01,1.563110351562500000e-01,-8.328857421875000000e-01,2.490234375000000000e-02
-2.000000000000000000e+00,-2.000000000000000000e+00,-3.000000000000000000e+00,2.000000000000000000e+00,-6.000000000000000000e+00,-4.000000000000000000e+00,-5.000000000000000000e+00,-2.000000000000000000e+00,5.303344726562500000e-01,1.575317382812500000e-01,-8.326416015625000000e-01,2.502441406250000000e-02
6.000000000000000000e+00,5.000000000000000000e+00,9.000000000000000000e+00,-1.000000000000000000e+01,-8.000000000000000000e+00,-4.000000000000000000e+00,-2.000000000000000000e+00,1.000000000000000000e+00,5.303344726562500000e-01,1.575317382812500000e-01,-8.326416015625000000e-01,2.502441406250000000e-02
-2.000000000000000000e+00,0.000000000000000000e+00,-7.000000000000000000e+00,9.000000000000000000e+00,9.000000000000000000e+00,0.000000000000000000e+00,0.000000000000000000e+00,1.000000000000000000e+00,5.303344726562500000e-01,1.575317382812500000e-01,-8.326416015625000000e-01,2.502441406250000000e-02
1.000000000000000000e+00,3.000000000000000000e+00,3.000000000000000000e+00,-2.000000000000000000e+00,3.000000000000000000e+00,-1.000000000000000000e+00,-6.000000000000000000e+00,2.000000000000000000e+00,5.303344726562500000e-01,1.575317382812500000e-01,-8.326416015625000000e-01,2.502441406250000000e-02
-1.600000000000000000e+01,-8.000000000000000000e+00,-9.000000000000000000e+00,-7.000000000000000000e+00,-7.000000000000000000e+00,-3.000000000000000000e+00,4.000000000000000000e+00,-4.000000000000000000e+00,5.302734375000000000e-01,1.582031250000000000e-01,-8.325805664062500000e-01,2.459716796875000000e-02
-3.000000000000000000e+00,-5.000000000000000000e+00,1.900000000000000000e+01,-6.000000000000000000e+00,3.000000000000000000e+00,-1.000000000000000000e+00,-4.000000000000000000e+00,-1.000000000000000000e+00,5.302734375000000000e-01,1.582031250000000000e-01,-8.325805664062500000e-01,2.459716796875000000e-02
1.000000000000000000e+01,4.000000000000000000e+00,5.000000000000000000e+00,-1.000000000000000000e+00,-5.000000000000000000e+00,0.000000000000000000e+00,0.000000000000000000e+00,-2.000000000000000000e+00,5.302734375000000000e-01,1.582031250000000000e-01,-8.325805664062500000e-01,2.459716796875000000e-02
3.000000000000000000e+00,1.000000000000000000e+00,-5.000000000000000000e+00,-8.000000000000000000e+00,-8.000000000000000000e+00,-2.000000000000000000e+00,-2.000000000000000000e+00,-3.000000000000000000e+00,5.302734375000000000e-01,1.582031250000000000e-01,-8.325805664062500000e-01,2.459716796875000000e-02
1.300000000000000000e+01,9.000000000000000000e+00,-2.000000000000000000e+00,1.100000000000000000e+01,-2.000000000000000000e+00,-5.000000000000000000e+00,-3.000000000000000000e+00,1.000000000000000000e+00,5.298461914062500000e-01,1.587524414062500000e-01,-8.327026367187500000e-01,2.465820312500000000e-02
-2.100000000000000000e+01,-1.400000000000000000e+01,1.200000000000000000e+01,1.000000000000000000e+00,5.000000000000000000e+00,2.000000000000000000e+00,0.000000000000000000e+00,-7.000000000000000000e+00,5.298461914062500000e-01,1.587524414062500000e-01,-8.327026367187500000e-01,2.465820312500000000e-02
-1.500000000000000000e+01,-2.000000000000000000e+00,1.200000000000000000e+01,-1.000000000000000000e+01,-7.000000000000000000e+00,-6.000000000000000000e+00,-8.000000000000000000e+00,2.000000000000000000e+00,5.298461914062500000e-01,1.587524414062500000e-01,-8.327026367187500000e-01,2.465820312500000000e-02
2.000000000000000000e+00,2.000000000000000000e+00,5.000000000000000000e+00,-4.000000000000000000e+00,2.000000000000000000e+00,-1.000000000000000000e+00,0.000000000000000000e+00,0.000000000000000000e+00,5.298461914062500000e-01,1.587524414062500000e-01,-8.327026367187500000e-01,2.465820312500000000e-02
2.100000000000000000e+01,3.000000000000000000e+00,9.000000000000000000e+00,2.000000000000000000e+00,-1.000000000000000000e+00,4.000000000000000000e+00,4.000000000000000000e+00,3.000000000000000000e+00,5.294189453125000000e-01,1.590576171875000000e-01,-8.329467773437500000e-01,2.532958984375000000e-02
-5.000000000000000000e+00,2.000000000000000000e+00,-1.800000000000000000e+01,-6.000000000000000000e+00,0.000000000000000000e+00,-4.000000000000000000e+00,0.000000000000000000e+00,0.000000000000000000e+00,5.294189453125000000e-01,1.590576171875000000e-01,-8.329467773437500000e-01,2.532958984375000000e-02
-8.000000000000000000e+00,-1.300000000000000000e+01,-9.000000000000000000e+00,-2.000000000000000000e+00,-6.000000000000000000e+00,-1.000000000000000000e+00,-2.000000000000000000e+00,-3.000000000000000000e+00,5.294189453125000000e-01,1.590576171875000000e-01,-8.329467773437500000e-01,2.532958984375000000e-02
-6.000000000000000000e+00,0.000000000000000000e+00,-2.000000000000000000e+00,-2.000000000000000000e+00,-7.000000000000000000e+00,1.000000000000000000e+00,2.000000000000000000e+00,1.000000000000000000e+00,5.294189453125000000e-01,1.590576171875000000e-01,-8.329467773437500000e-01,2.532958984375000000e-02
-4.000000000000000000e+00,-6.000000000000000000e+00,-1.000000000000000000e+00,2.000000000000000000e+00,1.300000000000000000e+01,2.000000000000000000e+00,-1.000000000000000000e+00,-2.000000000000000000e+00,5.289306640625000000e-01,1.588745117187500000e-01,-8.332519531250000000e-01,2.624511718750000000e-02
1.300000000000000000e+01,6.000000000000000000e+00,-7.000000000000000000e+00,-1.200000000000000000e+01,-6.000000000000000000e+00,-6.000000000000000000e+00,-1.300000000000000000e+01,3.000000000000000000e+00,5.289306640625000000e-01,1.588745117187500000e-01,-8.332519531250000000e-01,2.624511718750000000e-02
1.000000000000000000e+00,-4.000000000000000000e+00,-2.000000000000000000e+01,2.000000000000000000e+00,0.000000000000000000e+00,-4.000000000000000000e+00,-3.000000000000000000e+00,-3.000000000000000000e+00,5.289306640625000000e-01,1.588745117187500000e-01,-8.332519531250000000e-01,2.624511718750000000e-02
5.000000000000000000e+00,7.000000000000000000e+00,6.000000000000000000e+00,2.800000000000000000e+01,-5.000000000000000000e+00,0.000000000000000000e+00,1.100000000000000000e+01,3.000000000000000000e+00,5.289306640625000000e-01,1.588745117187500000e-01,-8.332519531250000000e-01,2.624511718750000000e-02
-9.000000000000000000e+00,-1.200000000000000000e+01,4.000000000000000000e+00,-3.200000000000000000e+01,-1.400000000000000000e+01,-6.000000000000000000e+00,-3.000000000000000000e+00,-3.000000000000000000e+00,5.287475585937500000e-01,1.583862304687500000e-01,-8.334350585937500000e-01,2.691650390625000000e-02
1.000000000000000000e+00,1.000000000000000000e+00,2.000000000000000000e+00,-3.000000000000000000e+00,1.500000000000000000e+01,4.000000000000000000e+00,0.000000000000000000e+00,0.000000000000000000e+00,5.287475585937500000e-01,1.583862304687500000e-01,-8.334350585937500000e-01,2.691650390625000000e-02
2.000000000000000000e+00,0.000000000000000000e+00,1.000000000000000000e+01,-1.000000000000000000e+00,-3.000000000000000000e+00,-2.000000000000000000e+00,-3.000000000000000000e+00,0.000000000000000000e+00,5.287475585937500000e-01,1.583862304687500000e-01,-8.334350585937500000e-01,2.691650390625000000e-02
1.000000000000000000e+00,1.000000000000000000e+00,-2.400000000000000000e+01,-4.000000000000000000e+00,4.000000000000000000e+00,1.000000000000000000e+00,-3.000000000000000000e+00,-3.000000000000000000e+00,5.287475585937500000e-01,1.583862304687500000e-01,-8.334350585937500000e-01,2.691650390625000000e-02
-5.000000000000000000e+00,-5.000000000000000000e+00,6.000000000000000000e+00,1.400000000000000000e+01,-4.000000000000000000e+00,-2.000000000000000000e+00,6.000000000000000000e+00,-2.000000000000000000e+00,5.288696289062500000e-01,1.572265625000000000e-01,-8.335571289062500000e-01,2.728271484375000000e-02
-1.200000000000000000e+01,1.000000000000000000e+00,1.000000000000000000e+00,-9.000000000000000000e+00,-1.000000000000000000e+01,-3.000000000000000000e+00,-3.000000000000000000e+00,-8.000000000000000000e+00,5.288696289062500000e-01,1.572265625000000000e-01,-8.335571289062500000e-01,2.728271484375000000e-02
6.000000000000000000e+00,-4.000000000000000000e+00,-4.000000000000000000e+00,8.000000000000000000e+00,-2.000000000000000000e+00,0.000000000000000000e+00,3.000000000000000000e+00,3.000000000000000000e+00,5.288696289062500000e-01,1.572265625000000000e-01,-8.335571289062500000e-01,2.728271484375000000e-02
-1.000000000000000000e+00,0.000000000000000000e+00,8.000000000000000000e+00,1.000000000000000000e+00,7.000000000000000000e+00,1.000000000000000000e+00,-5.000000000000000000e+00,-2.000000000000000000e+00,5.288696289062500000e-01,1.572265625000000000e-01,-8.335571289062500000e-01,2.728271484375000000e-02
-7.000000000000000000e+00,1.000000000000000000e+00,-2.100000000000000000e+01,-7.000000000000000000e+00,2.000000000000000000e+00,4.000000000000000000e+00,8.000000000000000000e+00,0.000000000000000000e+00,5.292968750000000000e-01,1.558227539062500000e-01,-8.335571289062500000e-01,2.746582031250000000e-02
6.000000000000000000e+00,-5.000000000000000000e+00,-1.100000000000000000e+01,-4.000000000000000000e+00,-3.000000000000000000e+00,-6.000000000000000000e+00,-1.200000000000000000e+01,1.000000000000000000e+00,5.292968750000000000e-01,1.558227539062500000e-01,-8.335571289062500000e-01,2.746582031250000000e-02
1.000000000000000000e+00,7.000000000000000000e+00,8.000000000000000000e+00,1.000000000000000000e+00,-3.000000000000000000e+00,4.000000000000000000e+00,1.300000000000000000e+01,-1.000000000000000000e+00,5.292968750000000000e-01,1.558227539062500000e-01,-8.335571289062500000e-01,2.746582031250000000e-02
-7.000000000000000000e+00,-3.000000000000000000e+00,9.000000000000000000e+00,-4.000000000000000000e+00,-4.000000000000000000e+00,-1.000000000000000000e+00,-3.000000000000000000e+00,-2.000000000000000000e+00,5.292968750000000000e-01,1.558227539062500000e-01,-8.335571289062500000e-01,2.746582031250000000e-02
0.000000000000000000e+00,3.000000000000000000e+00,1.000000000000000000e+00,1.000000000000000000e+00,-6.000000000000000000e+00,-4.000000000000000000e+00,-8.000000000000000000e+00,-1.000000000000000000e+00,5.300903320312500000e-01,1.549682617187500000e-01,-8.331909179687500000e-01,2.783203125000000000e-02
1.200000000000000000e+01,2.000000000000000000e+00,-1.200000000000000000e+01,-9.000000000000000000e+00,-3.000000000000000000e+00,1.000000000000000000e+00,2.000000000000000000e+00,2.000000000000000000e+00,5.300903320312500000e-01,1.549682617187500000e-01,-8.331909179687500000e-01,2.783203125000000000e-02
-1.800000000000000000e+01,-1.100000000000000000e+01,4.000000000000000000e+00,1.600000000000000000e+01,1.900000000000000000e+01,3.000000000000000000e+00,1.000000000000000000e+00,-4.000000000000000000e+00,5.300903320312500000e-01,1.549682617187500000e-01,-8.331909179687500000e-01,2.783203125000000000e-02
-7.000000000000000000e+00,-8.000000000000000000e+00,-4.000000000000000000e+00,-1.000000000000000000e+01,-3.000000000000000000e+00,-3.000000000000000000e+00,2.000000000000000000e+00,0.000000000000000000e+00,5.300903320312500000e-01,1.549682617187500000e-01,-8.331909179687500000e-01,2.783203125000000000e-02
0.000000000000000000e+00,1.000000000000000000e+00,-1.100000000000000000e+01,-1.000000000000000000e+00,3.000000000000000000e+00,-2.000000000000000000e+00,-3.000000000000000000e+00,-1.000000000000000000e+00,5.307006835937500000e-01,1.544799804687500000e-01,-8.328857421875000000e-01,2.813720703125000000e-02
4.000000000000000000e+00,9.000000000000000000e+00,3.800000000000000000e+01,1.800000000000000000e+01,0.000000000000000000e+00,2.000000000000000000e+00,3.000000000000000000e+00,-1.000000000000000000e+00,5.307006835937500000e-01,1.544799804687500000e-01,-8.328857421875000000e-01,2.813720703125000000e-02
-5.000000000000000000e+00,-4.000000000000000000e+00,-2.400000000000000000e+01,-1.000000000000000000e+01,-1.100000000000000000e+01,-3.000000000000000000e+00,-5.000000000000000000e+00,-4.000000000000000000e+00,5.307006835937500000e-01,1.544799804687500000e-01,-8.328857421875000000e-01,2.813720703125000000e-02
0.000000000000000000e+00,-1.000000000000000000e+00,2.500000000000000000e+01,-1.500000000000000000e+01,-1.300000000000000000e+01,-1.000000000000000000e+00,-4.000000000000000000e+00,-3.000000000000000000e+00,5.307006835937500000e-01,1.544799804687500000e-01,-8.328857421875000000e-01,2.813720703125000000e-02
-2.000000000000000000e+00,-4.000000000000000000e+00,-5.000000000000000000e+00,5.000000000000000000e+00,2.000000000000000000e+00,-3.000000000000000000e+00,2.000000000000000000e+00,0.000000000000000000e+00,5.308227539062500000e-01,1.547851562500000000e-01,-8.327636718750000000e-01,2.850341796875000000e-02
-7.000000000000000000e+00,4.000000000000000000e+00,3.000000000000000000e+00,-1.000000000000000000e+00,1.300000000000000000e+01,1.000000000000000000e+00,5.000000000000000000e+00,2.000000000000000000e+00,5.308227539062500000e-01,1.547851562500000000e-01,-8.327636718750000000e-01,2.850341796875000000e-02
3.000000000000000000e+00,-7.000000000000000000e+00,-1.400000000000000000e+01,-4.000000000000000000e+00,1.000000000000000000e+00,-1.000000000000000000e+00,-6.000000000000000000e+00,-1.000000000000000000e+00,5.308227539062500000e-01,1.547851562500000000e-01,-8.327636718750000000e-01,2.850341796875000000e-02
0.000000000000000000e+00,3.000000000000000000e+00,1.900000000000000000e+01,0.000000000000000000e+00,4.000000000000000000e+00,-2.000000000000000000e+00,-4.000000000000000000e+00,-3.000000000000000000e+00,5.308227539062500000e-01,1.547851562500000000e-01,-8.327636718750000000e-01,2.850341796875000000e-02
0.000000000000000000e+00,0.000000000000000000e+00,-2.600000000000000000e+01,1.000000000000000000e+00,-1.300000000000000000e+01,-4.000000000000000000e+00,-7.000000000000000000e+00,5.000000000000000000e+00,5.306396484375000000e-01,1.554565429687500000e-01,-8.327026367187500000e-01,2.844238281250000000e-02
8.000000000000000000e+00,-5.000000000000000000e+00,2.000000000000000000e+01,2.000000000000000000e+00,-5.000000000000000000e+00,-3.000000000000000000e+00,3.000000000000000000e+00,-2.000000000000000000e+00,5.306396484375000000e-01,1.554565429687500000e-01,-8.327026367187500000e-01,2.844238281250000000e-02
-1.800000000000000000e+01,1.000000000000000000e+00,3.000000000000000000e+00,-1.100000000000000000e+01,-1.000000000000000000e+00,-1.000000000000000000e+00,0.000000000000000000e+00,-3.000000000000000000e+00,5.306396484375000000e-01,1.554565429687500000e-01,-8.327026367187500000e-01,2.844238281250000000e-02
2.000000000000000000e+00,-2.000000000000000000e+00,-1.000000000000000000e+00,8.000000000000000000e+00,-4.000000000000000000e+00,-5.000000000000000000e+00,-6.000000000000000000e+00,0.000000000000000000e+00,5.306396484375000000e-01,1.554565429687500000e-01,-8.327026367187500000e-01,2.844238281250000000e-02
2.000000000000000000e+00,8.000000000000000000e+00,1.400000000000000000e+01,1.000000000000000000e+00,0.000000000000000000e+00,3.000000000000000000e+00,5.000000000000000000e+00,-2.000000000000000000e+00,5.303344726562500000e-01,1.559448242187500000e-01,-8.328247070312500000e-01,2.844238281250000000e-02
-2.500000000000000000e+01,-2.000000000000000000e+01,-2.900000000000000000e+01,-1.000000000000000000e+00,0.000000000000000000e+00,-2.000000000000000000e+00,-2.000000000000000000e+00,-5.000000000000000000e+00,5.303344726562500000e-01,1.559448242187500000e-01,-8.328247070312500000e-01,2.844238281250000000e-02
3.000000000000000000e+00,-2.000000000000000000e+00,4.000000000000000000e+00,-7.000000000000000000e+00,5.000000000000000000e+00,-2.000000000000000000e+00,-1.100000000000000000e+01,-2.000000000000000000e+00,5.303344726562500000e-01,1.559448242187500000e-01,-8.328247070312500000e-01,2.844238281250000000e-02
-2.000000000000000000e+00,0.000000000000000000e+00,1.000000000000000000e+01,1.000000000000000000e+01,3.000000000000000000e+00,1.000000000000000000e+00,7.000000000000000000e+00,2.000000000000000000e+00,5.303344726562500000e-01,1.559448242187500000e-01,-8.328247070312500000e-01,2.844238281250000000e-02
0.000000000000000000e+00,1.000000000000000000e+00,3.000000000000000000e+00,-9.000000000000000000e+00,3.000000000000000000e+00,-1.000000000000000000e+00,-1.000000000000000000e+00,2.000000000000000000e+00,5.302734375000000000e-01,1.557617187500000000e-01,-8.328857421875000000e-01,2.807617187500000000e-02
8.000000000000000000e+00,4.000000000000000000e+00,-7.000000000000000000e+00,2.000000000000000000e+00,-4.000000000000000000e+00,-1.000000000000000000e+00,1.000000000000000000e+00,2.000000000000000000e+00,5.302734375000000000e-01,1.557617187500000000e-01,-8.328857421875000000e-01,2.807617187500000000e-02
-3.000000000000000000e+00,0.000000000000000000e+00,3.000000000000000000e+00,-4.000000000000000000e+00,-1.200000000000000000e+01,-4.000000000000000000e+00,-4.000000000000000000e+00,-2.000000000000000000e+00,5.302734375000000000e-01,1.557617187500000000e-01,-8.328857421875000000e-01,2.807617187500000000e-02
4.000000000000000000e+00,1.000000000000000000e+00,-1.600000000000000000e+01,-4.000000000000000000e+00,4.000000000000000000e+00,3.000000000000000000e+00,4.000000000000000000e+00,-2.000000000000000000e+00,5.302734375000000000e-01,1.557617187500000000e-01,-8.328857421875000000e-01,2.807617187500000000e-02
-2.000000000000000000e+00,4.000000000000000000e+00,3.000000000000000000e+00,-2.000000000000000000e+00,2.000000000000000000e+00,0.000000000000000000e+00,-2.000000000000000000e+00,-2.000000000000000000e+00,5.301513671875000000e-01,1.555175781250000000e-01,-8.330688476562500000e-01,2.813720703125000000e-02
-6.000000000000000000e+00,-8.000000000000000000e+00,4.000000000000000000e+00,4.000000000000000000e+00,-1.600000000000000000e+01,-6.000000000000000000e+00,3.000000000000000000e+00,-3.000000000000000000e+00,5.301513671875000000e-01,1.555175781250000000e-01,-8.330688476562500000e-01,2.813720703125000000e-02
-1.000000000000000000e+00,-2.000000000000000000e+00,0.000000000000000000e+00,9.000000000000000000e+00,9.000000000000000000e+00,-1.000000000000000000e+00,-4.000000000000000000e+00,1.000000000000000000e+00,5.301513671875000000e-01,1.555175781250000000e-01,-8.330688476562500000e-01,2.813720703125000000e-02
0.000000000000000000e+00,1.000000000000000000e+00,-9.000000000000000000e+00,0.000000000000000000e+00,4.000000000000000000e+00,-1.000000000000000000e+00,0.000000000000000000e+00,-4.000000000000000000e+00,5.301513671875000000e-01,1.555175781250000000e-01,-8.330688476562500000e-01,2.813720703125000000e-02
-2.000000000000000000e+00,-3.000000000000000000e+00,-4.000000000000000000e+00,5.000000000000000000e+00,2.000000000000000000e+00,1.000000000000000000e+00,-1.000000000000000000e+00,-1.000000000000000000e+00,5.300292968750000000e-01,1.550903320312500000e-01,-8.331909179687500000e-01,2.838134765625000000e-02
7.000000000000000000e+00,1.000000000000000000e+00,-1.000000000000000000e+00,-4.000000000000000000e+00,-6.000000000000000000e+00,-2.000000000000000000e+00,-5.000000000000000000e+00,-1.000000000000000000e+00,5.300292968750000000e-01,1.550903320312500000e-01,-8.331909179687500000e-01,2.838134765625000000e-02
3.000000000000000000e+00,8.000000000000000000e+00,4.000000000000000000e+00,-4.000000000000000000e+00,-6.000000000000000000e+00,-1.000000000000000000e+00,-1.000000000000000000e+00,1.000000000000000000e+00,5.300292968750000000e-01,1.550903320312500000e-01,-8.331909179687500000e-01,2.838134765625000000e-02
-3.000000000000000000e+00,3.000000000000000000e+00,0.000000000000000000e+00,1.000000000000000000e+00,-1.000000000000000000e+00,-1.000000000000000000e+00,0.000000000000000000e+00,-2.000000000000000000e+00,5.300292968750000000e-01,1.550903320312500000e-01,-8.331909179687500000e-01,2.838134765625000000e-02
-8.000000000000000000e+00,-1.700000000000000000e+01,1.100000000000000000e+01,-7.000000000000000000e+00,-5.000000000000000000e+00,-6.000000000000000000e+00,-1.100000000000000000e+01,-1.000000000000000000e+00,5.299682617187500000e-01,1.541748046875000000e-01,-8.333740234375000000e-01,2.856445312500000000e-02
3.000000000000000000e+00,1.000000000000000000e+00,6.000000000000000000e+00,1.200000000000000000e+01,2.000000000000000000e+00,3.000000000000000000e+00,6.000000000000000000e+00,-1.000000000000000000e+00,5.299682617187500000e-01,1.541748046875000000e-01,-8.333740234375000000e-01,2.856445312500000000e-02
6.000000000000000000e+00,-1.000000000000000000e+00,-3.000000000000000000e+00,-2.900000000000000000e+01,-2.400000000000000000e+01,-5.000000000000000000e+00,-3.000000000000000000e+00,1.000000000000000000e+00,5.299682617187500000e-01,1.541748046875000000e-01,-8.333740234375000000e-01,2.856445312500000000e-02
-1.000000000000000000e+00,-3.000000000000000000e+00,-9.000000000000000000e+00,2.000000000000000000e+01,1.900000000000000000e+01,3.000000000000000000e+00,3.000000000000000000e+00,-2.000000000000000000e+00,5.299682617187500000e-01,1.541748046875000000e-01,-8.333740234375000000e-01,2.856445312500000000e-02
-1.000000000000000000e+00,4.000000000000000000e+00,5.000000000000000000e+00,-6.000000000000000000e+00,3.000000000000000000e+00,-2.000000000000000000e+00,-4.000000000000000000e+00,0.000000000000000000e+00,5.300903320312500000e-01,1.528930664062500000e-01,-8.335571289062500000e-01,2.935791015625000000e-02
0.000000000000000000e+00,-1.000000000000000000e+00,-3.000000000000000000e+00,5.000000000000000000e+00,5.000000000000000000e+00,1.000000000000000000e+00,-4.000000000000000000e+00,-1.000000000000000000e+00,5.300903320312500000e-01,1.528930664062500000e-01,-8.335571289062500000e-01,2.935791015625000000e-02
4.000000000000000000e+00,0.000000000000000000e+00,-2.000000000000000000e+00,-1.000000000000000000e+00,-4.000000000000000000e+00,1.000000000000000000e+00,0.000000000000000000e+00,0.000000000000000000e+00,5.300903320312500000e-01,1.528930664062500000e-01,-8.335571289062500000e-01,2.935791015625000000e-02
0.000000000000000000e+00,2.000000000000000000e+00,6.000000000000000000e+00,-7.000000000000000000e+00,-7.000000000000000000e+00,-1.000000000000000000e+00,-4.000000000000000000e+00,-1.000000000000000000e+00,5.300903320312500000e-01,1.528930664062500000e-01,-8.335571289062500000e-01,2.935791015625000000e-02
7.000000000000000000e+00,8.000000000000000000e+00,-1.100000000000000000e+01,5.000000000000000000e+00,0.000000000000000000e+00,-1.000000000000000000e+00,-9.000000000000000000e+00,-3.000000000000000000e+00,5.304565429687500000e-01,1.517333984375000000e-01,-8.334960937500000000e-01,3.033447265625000000e-02
-1.200000000000000000e+01,-5.000000000000000000e+00,-1.500000000000000000e+01,-5.000000000000000000e+00,-3.000000000000000000e+00,3.000000000000000000e+00,7.000000000000000000e+00,-1.000000000000000000e+00,5.304565429687500000e-01,1.517333984375000000e-01,-8.334960937500000000e-01,3.033447265625000000e-02
6.000000000000000000e+00,-1.800000000000000000e+01,1.400000000000000000e+01,-4.000000000000000000e+00,-1.000000000000000000e+01,-4.000000000000000000e+00,3.000000000000000000e+00,-3.000000000000000000e+00,5.304565429687500000e-01,1.517333984375000000e-01,-8.334960937500000000e-01,3.033447265625000000e-02
-1.800000000000000000e+01,-1.300000000000000000e+01,-1.200000000000000000e+01,3.000000000000000000e+00,8.000000000000000000e+00,-2.000000000000000000e+00,0.000000000000000000e+00,-2.000000000000000000e+00,5.304565429687500000e-01,1.517333984375000000e-01,-8.334960937500000000e-01,3.033447265625000000e-02
3.000000000000000000e+00,0.000000000000000000e+00,-1.000000000000000000e+00,4.000000000000000000e+00,3.000000000000000000e+00,0.000000000000000000e+00,5.000000000000000000e+00,-2.000000000000000000e+00,5.310058593750000000e-01,1.509399414062500000e-01,-8.331909179687500000e-01,3.137207031250000000e-02
6.000000000000000000e+00,8.000000000000000000e+00,-3.000000000000000000e+00,-2.000000000000000000e+00,2.000000000000000000e+00,0.000000000000000000e+00,-4.000000000000000000e+00,0.000000000000000000e+00,5.310058593750000000e-01,1.509399414062500000e-01,-8.331909179687500000e-01,3.137207031250000000e-02
8.000000000000000000e+00,8.000000000000000000e+00,-2.000000000000000000e+00,3.000000000000000000e+00,1.000000000000000000e+00,0.000000000000000000e+00,-2.000000000000000000e+00,1.000000000000000000e+00,5.310058593750000000e-01,1.509399414062500000e-01,-8.331909179687500000e-01,3.137207031250000000e-02
2.000000000000000000e+00,-2.000000000000000000e+00,-1.000000000000000000e+00,-4.000000000000000000e+00,-4.000000000000000000e+00,3.000000000000000000e+00,1.000000000000000000e+00,0.000000000000000000e+00,5.310058593750000000e-01,1.509399414062500000e-01,-8.331909179687500000e-01,3.137207031250000000e-02
-4.000000000000000000e+00,-1.000000000000000000e+00,5.000000000000000000e+00,-6.000000000000000000e+00,-6.000000000000000000e+00,-1.000000000000000000e+00,0.000000000000000000e+00,-2.000000000000000000e+00,5.319824218750000000e-01,1.497802734375000000e-01,-8.328247070312500000e-01,3.204345703125000000e-02
5.000000000000000000e+00,6.000000000000000000e+00,3.000000000000000000e+00,4.000000000000000000e+00,4.000000000000000000e+00,-2.000000000000000000e+00,-1.100000000000000000e+01,-1.000000000000000000e+00,5.319824218750000000e-01,1.497802734375000000e-01,-8.328247070312500000e-01,3.204345703125000000e-02
-5.000000000000000000e+00,-4.000000000000000000e+00,-4.000000000000000000e+00,-5.000000000000000000e+00,-8.000000000000000000e+00,-3.000000000000000000e+00,-5.000000000000000000e+00,3.000000000000000000e+00,5.319824218750000000e-01,1.497802734375000000e-01,-8.328247070312500000e-01,3.204345703125000000e-02
9.000000000000000000e+00,4.000000000000000000e+00,-1.000000000000000000e+00,3.000000000000000000e+00,8.000000000000000000e+00,-3.000000000000000000e+00,-3.000000000000000000e+00,-2.000000000000000000e+00,5.319824218750000000e-01,1.497802734375000000e-01,-8.328247070312500000e-01,3.204345703125000000e-02
-1.800000000000000000e+01,-1.100000000000000000e+01,-1.100000000000000000e+01,-9.000000000000000000e+00,-1.000000000000000000e+00,0.000000000000000000e+00,3.000000000000000000e+00,0.000000000000000000e+00,5.328979492187500000e-01,1.484985351562500000e-01,-8.323974609375000000e-01,3.240966796875000000e-02
-9.000000000000000000e+00,-1.600000000000000000e+01,3.000000000000000000e+00,-1.100000000000000000e+01,-2.000000000000000000e+00,1.000000000000000000e+00,-1.000000000000000000e+00,-3.000000000000000000e+00,5.328979492187500000e-01,1.484985351562500000e-01,-8.323974609375000000e-01,3.240966796875000000e-02
0.000000000000000000e+00,3.000000000000000000e+00,-4.000000000000000000e+00,9.000000000000000000e+00,6.000000000000000000e+00,1.000000000000000000e+00,-1.000000000000000000e+00,0.000000000000000000e+00,5.328979492187500000e-01,1.484985351562500000e-01,-8.323974609375000000e-01,3.240966796875000000e-02
-3.000000000000000000e+00,-1.000000000000000000e+00,0.000000000000000000e+00,-3.000000000000000000e+00,-1.100000000000000000e+01,-3.000000000000000000e+00,-4.000000000000000000e+00,-1.000000000000000000e+00,5.328979492187500000e-01,1.484985351562500000e-01,-8.323974609375000000e-01,3.240966796875000000e-02
8.000000000000000000e+00,7.000000000000000000e+00,9.000000000000000000e+00,-1.300000000000000000e+01,-3.000000000000000000e+00,-2.000000000000000000e+00,0.000000000000000000e+00,-1.000000000000000000e+00,5.338745117187500000e-01,1.479492187500000000e-01,-8.319091796875000000e-01,3.271484375000000000e-02
2.000000000000000000e+00,-1.000000000000000000e+00,-7.000000000000000000e+00,8.000000000000000000e+00,5.000000000000000000e+00,-2.000000000000000000e+00,-6.000000000000000000e+00,2.000000000000000000e+00,5.338745117187500000e-01,1.479492187500000000e-01,-8.319091796875000000e-01,3.271484375000000000e-02
-4.000000000000000000e+00,-1.000000000000000000e+00,-3.000000000000000000e+00,-3.000000000000000000e+00,0.000000000000000000e+00,0.000000000000000000e+00,7.000000000000000000e+00,-2.000000000000000000e+00,5.338745117187500000e-01,1.479492187500000000e-01,-8.319091796875000000e-01,3.271484375000000000e-02
-1.000000000000000000e+00,1.000000000000000000e+00,-3.000000000000000000e+00,-4.000000000000000000e+00,-8.000000000000000000e+00,-3.000000000000000000e+00,0.000000000000000000e+00,1.000000000000000000e+00,5.338745117187500000e-01,1.479492187500000000e-01,-8.319091796875000000e-01,3.271484375000000000e-02
6.000000000000000000e+00,3.000000000000000000e+00,-1.000000000000000000e+00,-3.000000000000000000e+00,4.000000000000000000e+00,1.000000000000000000e+00,4.000000000000000000e+00,-3.000000000000000000e+00,5.344238281250000000e-01,1.483154296875000000e-01,-8.314819335937500000e-01,3.277587890625000000e-02
-6.000000000000000000e+00,1.000000000000000000e+00,-3.000000000000000000e+00,-6.000000000000000000e+00,-7.000000000000000000e+00,-4.000000000000000000e+00,0.000000000000000000e+00,-2.000000000000000000e+00,5.344238281250000000e-01,1.483154296875000000e-01,-8.314819335937500000e-01,3.277587890625000000e-02
1.000000000000000000e+00,-3.000000000000000000e+00,-1.200000000000000000e+01,0.000000000000000000e+00,4.000000000000000000e+00,-5.000000000000000000e+00,-1.800000000000000000e+01,-1.000000000000000000e+00,5.344238281250000000e-01,1.483154296875000000e-01,-8.314819335937500000e-01,3.277587890625000000e-02
-4.000000000000000000e+00,-2.100000000000000000e+01,-2.000000000000000000e+00,-1.000000000000000000e+01,-7.000000000000000000e+00,-1.000000000000000000e+00,7.000000000000000000e+00,-3.000000000000000000e+00,5.344238281250000000e-01,1.483154296875000000e-01,-8.314819335937500000e-01,3.277587890625000000e-02
-8.000000000000000000e+00,-6.000000000000000000e+00,-6.000000000000000000e+00,6.000000000000000000e+00,-4.000000000000000000e+00,-1.000000000000000000e+00,2.000000000000000000e+00,-1.000000000000000000e+00,5.346069335937500000e-01,1.491088867187500000e-01,-8.311767578125000000e-01,3.265380859375000000e-02
6.000000000000000000e+00,-1.000000000000000000e+00,-9.000000000000000000e+00,1.300000000000000000e+01,3.000000000000000000e+00,1.000000000000000000e+00,-6.000000000000000000e+00,2.000000000000000000e+00,5.346069335937500000e-01,1.491088867187500000e-01,-8.311767578125000000e-01,3.265380859375000000e-02
6.000000000000000000e+00,1.500000000000000000e+01,1.700000000000000000e+01,-1.100000000000000000e+01,-4.000000000000000000e+00,-1.000000000000000000e+00,9.000000000000000000e+00,-2.000000000000000000e+00,5.346069335937500000e-01,1.491088867187500000e-01,-8.311767578125000000e-01,3.265380859375000000e-02
-2.000000000000000000e+00,-5.000000000000000000e+00,-2.900000000000000000e+01,-5.000000000000000000e+00,0.000000000000000000e+00,-3.000000000000000000e+00,-7.000000000000000000e+00,3.000000000000000000e+00,5.346069335937500000e-01,1.491088867187500000e-01,-8.311767578125000000e-01,3.265380859375000000e-02
-1.000000000000000000e+00,-3.000000000000000000e+00,1.500000000000000000e+01,3.000000000000000000e+00,-7.000000000000000000e+00,-2.000000000000000000e+00,2.000000000000000000e+00,-1.000000000000000000e+00,5.347900390625000000e-01,1.499023437500000000e-01,-8.309936523437500000e-01,3.234863281250000000e-02
5.000000000000000000e+00,-1.000000000000000000e+00,-2.700000000000000000e+01,-4.000000000000000000e+00,8.000000000000000000e+00,2.000000000000000000e+00,1.000000000000000000e+00,0.000000000000000000e+00,5.347900390625000000e-01,1.499023437500000000e-01,-8.309936523437500000e-01,3.234863281250000000e-02
-8.000000000000000000e+00,-4.000000000000000000e+00,-1.000000000000000000e+01,1.400000000000000000e+01,5.000000000000000000e+00,0.000000000000000000e+00,4.000000000000000000e+00,-2.000000000000000000e+00,5.347900390625000000e-01,1.499023437500000000e-01,-8.309936523437500000e-01,3.234863281250000000e-02
-5.000000000000000000e+00,3.000000000000000000e+00,5.000000000000000000e+00,-5.000000000000000000e+00,0.000000000000000000e+00,2.000000000000000000e+00,4.000000000000000000e+00,0.000000000000000000e+00,5.347900390625000000e-01,1.499023437500000000e-01,-8.309936523437500000e-01,3.234863281250000000e-02
-1.000000000000000000e+00,-6.000000000000000000e+00,-1.700000000000000000e+01,4.000000000000000000e+00,2.000000000000000000e+00,0.000000000000000000e+00,5.000000000000000000e+00,-2.000000000000000000e+00,5.346069335937500000e-01,1.508178710937500000e-01,-8.309326171875000000e-01,3.198242187500000000e-02
1.000000000000000000e+00,5.000000000000000000e+00,1.900000000000000000e+01,-1.100000000000000000e+01,-8.000000000000000000e+00,-4.000000000000000000e+00,-3.000000000000000000e+00,-2.000000000000000000e+00,5.346069335937500000e-01,1.508178710937500000e-01,-8.309326171875000000e-01,3.198242187500000000e-02
4.000000000000000000e+00,5.000000000000000000e+00,-1.000000000000000000e+00,1.900000000000000000e+01,1.000000000000000000e+01,3.000000000000000000e+00,3.000000000000000000e+00,-1.000000000000000000e+00,5.346069335937500000e-01,1.508178710937500000e-01,-8.309326171875000000e-01,3.198242187500000000e-02
1.000000000000000000e+01,9.000000000000000000e+00,3.000000000000000000e+00,-6.000000000000000000e+00,-5.000000000000000000e+00,0.000000000000000000e+00,6.000000000000000000e+00,3.000000000000000000e+00,5.346069335937500000e-01,1.508178710937500000e-01,-8.309326171875000000e-01,3.198242187500000000e-02
-1.200000000000000000e+01,-1.400000000000000000e+01,-5.000000000000000000e+00,-1.900000000000000000e+01,-6.000000000000000000e+00,-1.000000000000000000e+01,-2.400000000000000000e+01,-4.000000000000000000e+00,5.339355468750000000e-01,1.518554687500000000e-01,-8.311767578125000000e-01,3.149414062500000000e-02
-4.000000000000000000e+00,-1.000000000000000000e+00,1.600000000000000000e+01,1.000000000000000000e+00,-1.000000000000000000e+00,2.000000000000000000e+00,4.000000000000000000e+00,-1.000000000000000000e+00,5.339355468750000000e-01,1.518554687500000000e-01,-8.311767578125000000e-01,3.149414062500000000e-02
-3.000000000000000000e+00,-1.300000000000000000e+01,-8.000000000000000000e+00,-6.000000000000000000e+00,-6.000000000000000000e+00,-2.000000000000000000e+00,-9.000000000000000000e+00,-1.000000000000000000e+00,5.339355468750000000e-01,1.518554687500000000e-01,-8.311767578125000000e-01,3.149414062500000000e-02
-8.000000000000000000e+00,5.000000000000000000e+00,2.000000000000000000e+01,6.000000000000000000e+00,-1.000000000000000000e+00,-1.000000000000000000e+00,6.000000000000000000e+00,-1.000000000000000000e+00,5.339355468750000000e-01,1.518554687500000000e-01,-8.311767578125000000e-01,3.149414062500000000e-02
9.000000000000000000e+00,7.000000000000000000e+00,-1.000000000000000000e+00,6.000000000000000000e+00,1.000000000000000000e+00,0.000000000000000000e+00,-5.000000000000000000e+00,0.000000000000000000e+00,5.333251953125000000e-01,1.528930664062500000e-01,-8.314208984375000000e-01,3.082275390625000000e-02
1.000000000000000000e+00,-3.000000000000000000e+00,-1.000000000000000000e+01,3.000000000000000000e+00,-3.000000000000000000e+00,-1.000000000000000000e+00,4.000000000000000000e+00,0.000000000000000000e+00,5.333251953125000000e-01,1.528930664062500000e-01,-8.314208984375000000e-01,3.082275390625000000e-02
-2.000000000000000000e+00,1.500000000000000000e+01,2.100000000000000000e+01,-9.000000000000000000e+00,-1.000000000000000000e+00,4.000000000000000000e+00,4.000000000000000000e+00,-1.000000000000000000e+00,5.333251953125000000e-01,1.528930664062500000e-01,-8.314208984375000000e-01,3.082275390625000000e-02
-6.000000000000000000e+00,-1.200000000000000000e+01,-1.100000000000000000e+01,-6.000000000000000000e+00,-5.000000000000000000e+00,-6.000000000000000000e+00,-9.000000000000000000e+00,-2.000000000000000000e+00,5.333251953125000000e-01,1.528930664062500000e-01,-8.314208984375000000e-01,3.082275390625000000e-02
-2.000000000000000000e+00,-1.100000000000000000e+01,-1.000000000000000000e+00,3.000000000000000000e+00,7.000000000000000000e+00,1.000000000000000000e+00,8.000000000000000000e+00,-1.000000000000000000e+00,5.328979492187500000e-01,1.527709960937500000e-01,-8.317260742187500000e-01,3.021240234375000000e-02
-2.000000000000000000e+00,-8.000000000000000000e+00,1.000000000000000000e+00,-3.000000000000000000e+00,-2.000000000000000000e+00,-2.000000000000000000e+00,-4.000000000000000000e+00,-2.000000000000000000e+00,5.328979492187500000e-01,1.527709960937500000e-01,-8.317260742187500000e-01,3.021240234375000000e-02
-4.000000000000000000e+00,2.000000000000000000e+00,-3.000000000000000000e+00,4.000000000000000000e+00,0.000000000000000000e+00,1.000000000000000000e+00,1.000000000000000000e+00,-3.000000000000000000e+00,5.328979492187500000e-01,1.527709960937500000e-01,-8.317260742187500000e-01,3.021240234375000000e-02
1.300000000000000000e+01,2.000000000000000000e+00,-4.000000000000000000e+00,-2.000000000000000000e+00,-1.000000000000000000e+00,0.000000000000000000e+00,-2.000000000000000000e+00,-2.000000000000000000e+00,5.328979492187500000e-01,1.527709960937500000e-01,-8.317260742187500000e-01,3.021240234375000000e-02
3.000000000000000000e+00,8.000000000000000000e+00,0.000000000000000000e+00,-8.000000000000000000e+00,-9.000000000000000000e+00,0.000000000000000000e+00,-2.000000000000000000e+00,0.000000000000000000e+00,5.327758789062500000e-01,1.527709960937500000e-01,-8.317871093750000000e-01,3.021240234375000000e-02
-2.600000000000000000e+01,-4.000000000000000000e+00,8.000000000000000000e+00,9.000000000000000000e+00,1.000000000000000000e+01,0.000000000000000000e+00,0.000000000000000000e+00,-3.000000000000000000e+00,5.327758789062500000e-01,1.527709960937500000e-01,-8.317871093750000000e-01,3.021240234375000000e-02
-1.000000000000000000e+00,-7.000000000000000000e+00,1.000000000000000000e+00,-5.000000000000000000e+00,5.000000000000000000e+00,-3.000000000000000000e+00,6.000000000000000000e+00,0.000000000000000000e+00,5.327758789062500000e-01,1.527709960937500000e-01,-8.317871093750000000e-01,3.021240234375000000e-02
-2.000000000000000000e+00,1.000000000000000000e+00,-5.000000000000000000e+00,0.000000000000000000e+00,1.000000000000000000e+00,0.000000000000000000e+00,-6.000000000000000000e+00,0.000000000000000000e+00,5.327758789062500000e-01,1.527709960937500000e-01,-8.317871093750000000e-01,3.021240234375000000e-02
4.000000000000000000e+00,3.000000000000000000e+00,8.000000000000000000e+00,0.000000000000000000e+00,-1.000000000000000000e+00,-1.000000000000000000e+00,3.000000000000000000e+00,0.000000000000000000e+00,5.327758789062500000e-01,1.530761718750000000e-01,-8.317260742187500000e-01,3.027343750000000000e-02
7.000000000000000000e+00,0.000000000000000000e+00,-6.000000000000000000e+00,-8.000000000000000000e+00,-3.000000000000000000e+00,-4.000000000000000000e+00,1.000000000000000000e+00,0.000000000000000000e+00,5.327758789062500000e-01,1.530761718750000000e-01,-8.317260742187500000e-01,3.027343750000000000e-02
-3.000000000000000000e+00,-4.000000000000000000e+00,-8.000000000000000000e+00,-3.000000000000000000e+00,-5.000000000000000000e+00,-3.000000000000000000e+00,-7.000000000000000000e+00,-3.000000000000000000e+00,5.327758789062500000e-01,1.530761718750000000e-01,-8.317260742187500000e-01,3.027343750000000000e-02
-7.000000000000000000e+00,-8.000000000000000000e+00,7.000000000000000000e+00,-4.000000000000000000e+00,-8.000000000000000000e+00,-4.000000000000000000e+00,-1.000000000000000000e+00,-2.000000000000000000e+00,5.327758789062500000e-01,1.530761718750000000e-01,-8.317260742187500000e-01,3.027343750000000000e-02
4.000000000000000000e+00,5.000000000000000000e+00,5.000000000000000000e+00,2.000000000000000000e+00,7.000000000000000000e+00,3.000000000000000000e+00,9.000000000000000000e+00,-2.000000000000000000e+00,5.327758789062500000e-01,1.534423828125000000e-01,-8.317260742187500000e-01,3.015136718750000000e-02
-1.000000000000000000e+00,2.000000000000000000e+00,2.000000000000000000e+00,-3.000000000000000000e+00,-2.000000000000000000e+00,0.000000000000000000e+00,-2.000000000000000000e+00,2.000000000000000000e+00,5.327758789062500000e-01,1.534423828125000000e-01,-8.317260742187500000e-01,3.015136718750000000e-02
-4.000000000000000000e+00,-2.000000000000000000e+00,-3.000000000000000000e+00,-3.000000000000000000e+00,-1.000000000000000000e+00,-1.000000000000000000e+00,3.000000000000000000e+00,-2.000000000000000000e+00,5.327758789062500000e-01,1.534423828125000000e-01,-8.317260742187500000e-01,3.015136718750000000e-02
6.000000000000000000e+00,-3.000000000000000000e+00,1.200000000000000000e+01,0.000000000000000000e+00,-1.000000000000000000e+00,-2.000000000000000000e+00,-3.000000000000000000e+00,-3.000000000000000000e+00,5.327758789062500000e-01,1.534423828125000000e-01,-8.317260742187500000e-01,3.015136718750000000e-02
-3.000000000000000000e+00,0.000000000000000000e+00,-9.000000000000000000e+00,8.000000000000000000e+00,-1.000000000000000000e+00,-1.000000000000000000e+00,-3.000000000000000000e+00,1.000000000000000000e+00,5.327758789062500000e-01,1.534423828125000000e-01,-8.317260742187500000e-01,3.015136718750000000e-02
4.000000000000000000e+00,-1.000000000000000000e+00,-9.000000000000000000e+00,2.000000000000000000e+00,-8.000000000000000000e+00,-4.000000000000000000e+00,-2.000000000000000000e+00,1.000000000000000000e+00,5.327758789062500000e-01,1.534423828125000000e-01,-8.317260742187500000e-01,3.015136718750000000e-02
-4.000000000000000000e+00,-3.000000000000000000e+00,1.100000000000000000e+01,-1.000000000000000000e+00,4.000000000000000000e+00,-1.000000000000000000e+00,2.000000000000000000e+00,2.000000000000000000e+00,5.327758789062500000e-01,1.534423828125000000e-01,-8.317260742187500000e-01,3.015136718750000000e-02
0.000000000000000000e+00,-4.000000000000000000e+00,-3.700000000000000000e+01,-1.000000000000000000e+00,-5.000000000000000000e+00,0.000000000000000000e+00,-2.000000000000000000e+00,-3.000000000000000000e+00,5.327758789062500000e-01,1.534423828125000000e-01,-8.317260742187500000e-01,3.015136718750000000e-02
-1.600000000000000000e+01,1.000000000000000000e+00,-3.000000000000000000e+00,-3.000000000000000000e+00,-7.000000000000000000e+00,-4.000000000000000000e+00,-7.000000000000000000e+00,-2.000000000000000000e+00,5.327148437500000000e-01,1.534423828125000000e-01,-8.317260742187500000e-01,3.015136718750000000e-02
-1.000000000000000000e+00,-6.000000000000000000e+00,1.600000000000000000e+01,-8.000000000000000000e+00,7.000000000000000000e+00,2.000000000000000000e+00,4.000000000000000000e+00,-2.000000000000000000e+00,5.327148437500000000e-01,1.534423828125000000e-01,-8.317260742187500000e-01,3.015136718750000000e-02
7.000000000000000000e+00,4.000000000000000000e+00,-5.000000000000000000e+00,0.000000000000000000e+00,-3.000000000000000000e+00,-2.000000000000000000e+00,-4.000000000000000000e+00,1.000000000000000000e+00,5.327148437500000000e-01,1.534423828125000000e-01,-8.317260742187500000e-01,3.015136718750000000e-02
-6.000000000000000000e+00,0.000000000000000000e+00,1.000000000000000000e+01,8.000000000000000000e+00,-4.000000000000000000e+00,-2.000000000000000000e+00,-2.000000000000000000e+00,0.000000000000000000e+00,5.327148437500000000e-01,1.534423828125000000e-01,-8.317260742187500000e-01,3.015136718750000000e-02
4.000000000000000000e+00,-2.000000000000000000e+00,-7.000000000000000000e+00,-1.200000000000000000e+01,1.000000000000000000e+00,1.000000000000000000e+00,8.000000000000000000e+00,0.000000000000000000e+00,5.327758789062500000e-01,1.537475585937500000e-01,-8.316650390625000000e-01,2.996826171875000000e-02
-4.000000000000000000e+00,1.000000000000000000e+00,-7.000000000000000000e+00,4.000000000000000000e+00,1.000000000000000000e+00,-4.000000000000000000e+00,-1.600000000000000000e+01,-2.000000000000000000e+00,5.327758789062500000e-01,1.537475585937500000e-01,-8.316650390625000000e-01,2.996826171875000000e-02
-5.000000000000000000e+00,-6.000000000000000000e+00,-3.000000000000000000e+00,-9.000000000000000000e+00,0.000000000000000000e+00,-3.000000000000000000e+00,-2.000000000000000000e+00,-4.000000000000000000e+00,5.327758789062500000e-01,1.537475585937500000e-01,-8.316650390625000000e-01,2.996826171875000000e-02
1.300000000000000000e+01,7.000000000000000000e+00,6.000000000000000000e+00,-1.000000000000000000e+01,-2.000000000000000000e+00,-5.000000000000000000e+00,0.000000000000000000e+00,2.000000000000000000e+00,5.327758789062500000e-01,1.537475585937500000e-01,-8.316650390625000000e-01,2.996826171875000000e-02
-1.600000000000000000e+01,4.000000000000000000e+00,3.000000000000000000e+00,9.000000000000000000e+00,1.000000000000000000e+00,3.000000000000000000e+00,1.000000000000000000e+00,-2.000000000000000000e+00,5.328369140625000000e-01,1.542968750000000000e-01,-8.314819335937500000e-01,2.954101562500000000e-02
7.000000000000000000e+00,-1.000000000000000000e+00,2.000000000000000000e+00,9.000000000000000000e+00,0.000000000000000000e+00,-1.000000000000000000e+00,-3.000000000000000000e+00,-4.000000000000000000e+00,5.328369140625000000e-01,1.542968750000000000e-01,-8.314819335937500000e-01,2.954101562500000000e-02
0.000000000000000000e+00,-3.000000000000000000e+00,3.000000000000000000e+00,-3.000000000000000000e+00,0.000000000000000000e+00,-2.000000000000000000e+00,5.000000000000000000e+00,5.000000000000000000e+00,5.328369140625000000e-01,1.542968750000000000e-01,-8.314819335937500000e-01,2.954101562500000000e-02
-1.000000000000000000e+00,1.000000000000000000e+00,-2.900000000000000000e+01,-4.000000000000000000e+00,-4.000000000000000000e+00,-2.000000000000000000e+00,-2.000000000000000000e+00,-1.000000000000000000e+00,5.328369140625000000e-01,1.542968750000000000e-01,-8.314819335937500000e-01,2.954101562500000000e-02
7.000000000000000000e+00,-4.000000000000000000e+00,0.000000000000000000e+00,5.000000000000000000e+00,2.000000000000000000e+00,-2.000000000000000000e+00,-1.000000000000000000e+01,-2.000000000000000000e+00,5.329589843750000000e-01,1.548461914062500000e-01,-8.313598632812500000e-01,2.917480468750000000e-02
-4.000000000000000000e+00,-2.000000000000000000e+00,4.000000000000000000e+00,-8.000000000000000000e+00,-3.000000000000000000e+00,-2.000000000000000000e+00,5.000000000000000000e+00,0.000000000000000000e+00,5.329589843750000000e-01,1.548461914062500000e-01,-8.313598632812500000e-01,2.917480468750000000e-02
4.000000000000000000e+00,-1.000000000000000000e+00,0.000000000000000000e+00,1.000000000000000000e+01,-2.000000000000000000e+00,0.000000000000000000e+00,0.000000000000000000e+00,-2.000000000000000000e+00,5.329589843750000000e-01,1.548461914062500000e-01,-8.313598632812500000e-01,2.917480468750000000e-02
-4.000000000000000000e+00,3.000000000000000000e+00,9.000000000000000000e+00,-2.000000000000000000e+00,2.000000000000000000e+00,-1.000000000000000000e+00,-5.000000000000000000e+00,2.000000000000000000e+00,5.329589843750000000e-01,1.548461914062500000e-01,-8.313598632812500000e-01,2.917480468750000000e-02
4.000000000000000000e+00,3.000000000000000000e+00,1.200000000000000000e+01,1.000000000000000000e+00,-3.000000000000000000e+00,1.000000000000000000e+00,7.000000000000000000e+00,-1.000000000000000000e+00,5.328979492187500000e-01,1.555175781250000000e-01,-8.312377929687500000e-01,2.917480468750000000e-02
4.000000000000000000e+00,-1.000000000000000000e+00,-2.700000000000000000e+01,-2.000000000000000000e+00,-7.000000000000000000e+00,-2.000000000000000000e+00,2.000000000000000000e+00,0.000000000000000000e+00,5.328979492187500000e-01,1.555175781250000000e-01,-8.312377929687500000e-01,2.917480468750000000e-02
-1.300000000000000000e+01,-5.000000000000000000e+00,-9.000000000000000000e+00,-5.000000000000000000e+00,8.000000000000000000e+00,1.000000000000000000e+00,-1.000000000000000000e+00,-2.000000000000000000e+00,5.328979492187500000e-01,1.555175781250000000e-01,-8.312377929687500000e-01,2.917480468750000000e-02
1.000000000000000000e+00,4.000000000000000000e+00,1.600000000000000000e+01,6.000000000000000000e+00,7.000000000000000000e+00,1.000000000000000000e+00,0.000000000000000000e+00,-1.000000000000000000e+00,5.328979492187500000e-01,1.555175781250000000e-01,-8.312377929687500000e-01,2.917480468750000000e-02
4.000000000000000000e+00,1.000000000000000000e+00,-5.000000000000000000e+00,-5.000000000000000000e+00,-5.000000000000000000e+00,-2.000000000000000000e+00,-3.000000000000000000e+00,-1.000000000000000000e+00,5.328979492187500000e-01,1.557006835937500000e-01,-8.312377929687500000e-01,2.911376953125000000e-02
5.000000000000000000e+00,0.000000000000000000e+00,7.000000000000000000e+00,3.000000000000000000e+00,-8.000000000000000000e+00,2.000000000000000000e+00,1.000000000000000000e+01,-3.000000000000000000e+00,5.328979492187500000e-01,1.557006835937500000e-01,-8.312377929687500000e-01,2.911376953125000000e-02
1.000000000000000000e+00,-5.000000000000000000e+00,2.000000000000000000e+00,-7.000000000000000000e+00,2.000000000000000000e+00,-4.000000000000000000e+00,-8.000000000000000000e+00,0.000000000000000000e+00,5.328979492187500000e-01,1.557006835937500000e-01,-8.312377929687500000e-01,2.911376953125000000e-02
-5.000000000000000000e+00,-6.000000000000000000e+00,-1.600000000000000000e+01,1.800000000000000000e+01,-1.300000000000000000e+01,-1.000000000000000000e+00,5.000000000000000000e+00,0.000000000000000000e+00,5.328979492187500000e-01,1.557006835937500000e-01,-8.312377929687500000e-01,2.911376953125000000e-02
2.000000000000000000e+00,0.000000000000000000e+00,1.800000000000000000e+01,-8.000000000000000000e+00,2.300000000000000000e+01,8.000000000000000000e+00,0.000000000000000000e+00,-2.000000000000000000e+00,5.328979492187500000e-01,1.553955078125000000e-01,-8.312988281250000000e-01,2.899169921875000000e-02
2.000000000000000000e+00,7.000000000000000000e+00,6.000000000000000000e+00,-5.000000000000000000e+00,-8.000000000000000000e+00,-3.000000000000000000e+00,0.000000000000000000e+00,6.000000000000000000e+00,5.328979492187500000e-01,1.553955078125000000e-01,-8.312988281250000000e-01,2.899169921875000000e-02
-7.000000000000000000e+00,-4.000000000000000000e+00,-9.000000000000000000e+00,2.000000000000000000e+00,-4.000000000000000000e+00,-1.000000000000000000e+00,-6.000000000000000000e+00,-2.000000000000000000e+00,5.328979492187500000e-01,1.553955078125000000e-01,-8.312988281250000000e-01,2.899169921875000000e-02
-6.000000000000000000e+00,1.000000000000000000e+00,3.000000000000000000e+00,-2.000000000000000000e+00,3.000000000000000000e+00,2.000000000000000000e+00,0.000000000000000000e+00,-2.000000000000000000e+00,5.328979492187500000e-01,1.553955078125000000e-01,-8.312988281250000000e-01,2.899169921875000000e-02
3.000000000000000000e+00,-6.000000000000000000e+00,-1.300000000000000000e+01,-1.000000000000000000e+00,-1.000000000000000000e+01,-6.000000000000000000e+00,-3.000000000000000000e+00,2.000000000000000000e+00,5.328979492187500000e-01,1.553955078125000000e-01,-8.312988281250000000e-01,2.905273437500000000e-02
6.000000000000000000e+00,1.000000000000000000e+00,1.300000000000000000e+01,-2.000000000000000000e+00,-2.000000000000000000e+00,-2.000000000000000000e+00,-3.000000000000000000e+00,-2.000000000000000000e+00,5.328979492187500000e-01,1.553955078125000000e-01,-8.312988281250000000e-01,2.905273437500000000e-02
2.000000000000000000e+00,2.000000000000000000e+00,2.000000000000000000e+00,4.000000000000000000e+00,-3.000000000000000000e+00,-1.000000000000000000e+00,7.000000000000000000e+00,-3.000000000000000000e+00,5.328979492187500000e-01,1.553955078125000000e-01,-8.312988281250000000e-01,2.905273437500000000e-02
1.000000000000000000e+00,1.000000000000000000e+00,8.000000000000000000e+00,-3.000000000000000000e+00,2.000000000000000000e+00,4.000000000000000000e+00,-8.000000000000000000e+00,-1.000000000000000000e+00,5.328979492187500000e-01,1.553955078125000000e-01,-8.312988281250000000e-01,2.905273437500000000e-02
0.000000000000000000e+00,-5.000000000000000000e+00,-7.000000000000000000e+00,7.000000000000000000e+00,7.000000000000000000e+00,-4.000000000000000000e+00,4.000000000000000000e+00,-3.000000000000000000e+00,5.329589843750000000e-01,1.552124023437500000e-01,-8.312988281250000000e-01,2.929687500000000000e-02
-1.000000000000000000e+00,-4.000000000000000000e+00,-3.000000000000000000e+00,-8.000000000000000000e+00,1.000000000000000000e+00,5.000000000000000000e+00,1.500000000000000000e+01,0.000000000000000000e+00,5.329589843750000000e-01,1.552124023437500000e-01,-8.312988281250000000e-01,2.929687500000000000e-02
2.000000000000000000e+00,-4.000000000000000000e+00,-1.000000000000000000e+01,-2.000000000000000000e+00,-1.100000000000000000e+01,-4.000000000000000000e+00,-4.000000000000000000e+00,-2.000000000000000000e+00,5.329589843750000000e-01,1.552124023437500000e-01,-8.312988281250000000e-01,2.929687500000000000e-02
-6.000000000000000000e+00,3.000000000000000000e+00,2.000000000000000000e+00,-5.000000000000000000e+00,1.500000000000000000e+01,4.000000000000000000e+00,-2.000000000000000000e+00,-3.000000000000000000e+00,5.329589843750000000e-01,1.552124023437500000e-01,-8.312988281250000000e-01,2.929687500000000000e-02
2.000000000000000000e+00,1.000000000000000000e+00,-6.000000000000000000e+00,-1.000000000000000000e+00,-4.000000000000000000e+00,1.000000000000000000e+00,0.000000000000000000e+00,5.000000000000000000e+00,5.329589843750000000e-01,1.548461914062500000e-01,-8.312988281250000000e-01,2.941894531250000000e-02
-2.000000000000000000e+00,2.000000000000000000e+00,-7.000000000000000000e+00,0.000000000000000000e+00,-4.000000000000000000e+00,-6.000000000000000000e+00,-9.000000000000000000e+00,-2.000000000000000000e+00,5.329589843750000000e-01,1.548461914062500000e-01,-8.312988281250000000e-01,2.941894531250000000e-02
4.000000000000000000e+00,1.000000000000000000e+00,2.000000000000000000e+01,2.000000000000000000e+00,-1.000000000000000000e+01,-2.000000000000000000e+00,5.000000000000000000e+00,1.000000000000000000e+00,5.329589843750000000e-01,1.548461914062500000e-01,-8.312988281250000000e-01,2.941894531250000000e-02
5.000000000000000000e+00,-3.000000000000000000e+00,-2.200000000000000000e+01,-1.200000000000000000e+01,2.000000000000000000e+00,-4.000000000000000000e+00,0.000000000000000000e+00,-2.000000000000000000e+00,5.329589843750000000e-01,1.548461914062500000e-01,-8.312988281250000000e-01,2.941894531250000000e-02
-7.000000000000000000e+00,-1.000000000000000000e+00,-1.100000000000000000e+01,4.000000000000000000e+00,-1.000000000000000000e+00,-2.000000000000000000e+00,-4.000000000000000000e+00,-2.000000000000000000e+00,5.331420898437500000e-01,1.542968750000000000e-01,-8.312988281250000000e-01,2.941894531250000000e-02
-2.000000000000000000e+00,-4.000000000000000000e+00,1.000000000000000000e+00,-1.000000000000000000e+00,2.000000000000000000e+00,-1.000000000000000000e+00,-2.000000000000000000e+00,1.000000000000000000e+00,5.331420898437500000e-01,1.542968750000000000e-01,-8.312988281250000000e-01,2.941894531250000000e-02
-1.000000000000000000e+00,0.000000000000000000e+00,-1.000000000000000000e+00,-4.000000000000000000e+00,-5.000000000000000000e+00,0.000000000000000000e+00,-2.000000000000000000e+00,0.000000000000000000e+00,5.331420898437500000e-01,1.542968750000000000e-01,-8.312988281250000000e-01,2.941894531250000000e-02
-5.000000000000000000e+00,0.000000000000000000e+00,5.000000000000000000e+00,-3.000000000000000000e+00,6.000000000000000000e+00,3.000000000000000000e+00,1.000000000000000000e+00,0.000000000000000000e+00,5.331420898437500000e-01,1.542968750000000000e-01,-8.312988281250000000e-01,2.941894531250000000e-02
1.000000000000000000e+00,2.000000000000000000e+00,-1.000000000000000000e+00,4.000000000000000000e+00,-7.000000000000000000e+00,-3.000000000000000000e+00,-2.000000000000000000e+00,0.000000000000000000e+00,5.331420898437500000e-01,1.542968750000000000e-01,-8.312988281250000000e-01,2.947998046875000000e-02
-6.000000000000000000e+00,-3.000000000000000000e+00,-1.300000000000000000e+01,-6.000000000000000000e+00,-5.000000000000000000e+00,-3.000000000000000000e+00,-5.000000000000000000e+00,0.000000000000000000e+00,5.331420898437500000e-01,1.542968750000000000e-01,-8.312988281250000000e-01,2.947998046875000000e-02
2.000000000000000000e+00,5.000000000000000000e+00,-3.000000000000000000e+00,0.000000000000000000e+00,5.000000000000000000e+00,1.000000000000000000e+00,-1.000000000000000000e+00,-2.000000000000000000e+00,5.331420898437500000e-01,1.542968750000000000e-01,-8.312988281250000000e-01,2.947998046875000000e-02
-6.000000000000000000e+00,-1.500000000000000000e+01,2.000000000000000000e+00,-5.000000000000000000e+00,-1.000000000000000000e+01,-3.000000000000000000e+00,-1.000000000000000000e+00,-1.000000000000000000e+00,5.331420898437500000e-01,1.542968750000000000e-01,-8.312988281250000000e-01,2.947998046875000000e-02
-2.000000000000000000e+00,0.000000000000000000e+00,6.000000000000000000e+00,-1.000000000000000000e+00,1.000000000000000000e+00,2.000000000000000000e+00,3.000000000000000000e+00,-2.000000000000000000e+00,5.330810546875000000e-01,1.546020507812500000e-01,-8.312988281250000000e-01,2.954101562500000000e-02
1.000000000000000000e+00,2.000000000000000000e+00,-4.000000000000000000e+00,6.000000000000000000e+00,9.000000000000000000e+00,2.000000000000000000e+00,-2.000000000000000000e+00,-1.000000000000000000e+00,5.330810546875000000e-01,1.546020507812500000e-01,-8.312988281250000000e-01,2.954101562500000000e-02
2.000000000000000000e+00,2.000000000000000000e+00,-7.000000000000000000e+00,4.000000000000000000e+00,2.000000000000000000e+00,4.000000000000000000e+00,7.000000000000000000e+00,0.000000000000000000e+00,5.330810546875000000e-01,1.546020507812500000e-01,-8.312988281250000000e-01,2.954101562500000000e-02
3.000000000000000000e+00,-1.000000000000000000e+00,-4.000000000000000000e+00,-8.000000000000000000e+00,-5.000000000000000000e+00,-2.000000000000000000e+00,1.000000000000000000e+00,0.000000000000000000e+00,5.330810546875000000e-01,1.546020507812500000e-01,-8.312988281250000000e-01,2.954101562500000000e-02
-8.000000000000000000e+00,-2.000000000000000000e+00,4.000000000000000000e+00,3.000000000000000000e+00,-4.000000000000000000e+00,0.000000000000000000e+00,0.000000000000000000e+00,-4.000000000000000000e+00,5.328979492187500000e-01,1.551513671875000000e-01,-8.312988281250000000e-01,2.960205078125000000e-02
-2.000000000000000000e+00,-1.300000000000000000e+01,-5.000000000000000000e+00,4.000000000000000000e+00,-1.000000000000000000e+00,-4.000000000000000000e+00,-3.000000000000000000e+00,5.000000000000000000e+00,5.328979492187500000e-01,1.551513671875000000e-01,-8.312988281250000000e-01,2.960205078125000000e-02
-1.100000000000000000e+01,2.000000000000000000e+00,-8.000000000000000000e+00,-4.000000000000000000e+00,4.000000000000000000e+00,0.000000000000000000e+00,4.000000000000000000e+00,-3.000000000000000000e+00,5.328979492187500000e-01,1.551513671875000000e-01,-8.312988281250000000e-01,2.960205078125000000e-02
1.000000000000000000e+00,4.000000000000000000e+00,1.300000000000000000e+01,5.000000000000000000e+00,1.000000000000000000e+00,-1.000000000000000000e+00,-1.000000000000000000e+00,2.000000000000000000e+00,5.328979492187500000e-01,1.551513671875000000e-01,-8.312988281250000000e-01,2.960205078125000000e-02
4.000000000000000000e+00,-3.000000000000000000e+00,6.000000000000000000e+00,-2.000000000000000000e+00,-8.000000000000000000e+00,-3.000000000000000000e+00,-3.000000000000000000e+00,-1.000000000000000000e+00,5.327148437500000000e-01,1.559448242187500000e-01,-8.312988281250000000e-01,2.966308593750000000e-02
-7.000000000000000000e+00,7.000000000000000000e+00,-8.000000000000000000e+00,-1.000000000000000000e+01,-2.000000000000000000e+00,2.000000000000000000e+00,0.000000000000000000e+00,-3.000000000000000000e+00,5.327148437500000000e-01,1.559448242187500000e-01,-8.312988281250000000e-01,2.966308593750000000e-02
0.000000000000000000e+00,-9.000000000000000000e+00,-2.000000000000000000e+00,-4.000000000000000000e+00,1.000000000000000000e+00,-3.000000000000000000e+00,-8.000000000000000000e+00,-3.000000000000000000e+00,5.327148437500000000e-01,1.559448242187500000e-01,-8.312988281250000000e-01,2.966308593750000000e-02
-1.000000000000000000e+00,0.000000000000000000e+00,1.100000000000000000e+01,-4.000000000000000000e+00,-6.000000000000000000e+00,-2.000000000000000000e+00,1.000000000000000000e+00,0.000000000000000000e+00,5.327148437500000000e-01,1.559448242187500000e-01,-8.312988281250000000e-01,2.966308593750000000e-02
-3.000000000000000000e+00,3.000000000000000000e+00,5.000000000000000000e+00,1.500000000000000000e+01,3.000000000000000000e+00,-1.000000000000000000e+00,-4.000000000000000000e+00,0.000000000000000000e+00,5.325317382812500000e-01,1.564331054687500000e-01,-8.312988281250000000e-01,2.954101562500000000e-02
0.000000000000000000e+00,-1.000000000000000000e+00,9.000000000000000000e+00,-1.300000000000000000e+01,-4.000000000000000000e+00,-1.000000000000000000e+00,-3.000000000000000000e+00,-2.000000000000000000e+00,5.325317382812500000e-01,1.564331054687500000e-01,-8.312988281250000000e-01,2.954101562500000000e-02
-1.000000000000000000e+00,-4.000000000000000000e+00,-1.700000000000000000e+01,-2.000000000000000000e+00,-3.000000000000000000e+00,-1.000000000000000000e+00,-3.000000000000000000e+00,1.000000000000000000e+00,5.325317382812500000e-01,1.564331054687500000e-01,-8.312988281250000000e-01,2.954101562500000000e-02
-1.000000000000000000e+00,0.000000000000000000e+00,-2.000000000000000000e+00,-2.000000000000000000e+00,5.000000000000000000e+00,2.000000000000000000e+00,1.000000000000000000e+00,-2.000000000000000000e+00,5.325317382812500000e-01,1.564331054687500000e-01,-8.312988281250000000e-01,2.954101562500000000e-02
5.000000000000000000e+00,2.000000000000000000e+00,-4.000000000000000000e+00,-1.000000000000000000e+00,-7.000000000000000000e+00,-3.000000000000000000e+00,-8.000000000000000000e+00,1.000000000000000000e+00,5.324096679687500000e-01,1.568603515625000000e-01,-8.312988281250000000e-01,2.923583984375000000e-02
-3.000000000000000000e+00,1.000000000000000000e+00,5.000000000000000000e+00,5.000000000000000000e+00,3.000000000000000000e+00,0.000000000000000000e+00,-4.000000000000000000e+00,-2.000000000000000000e+00,5.324096679687500000e-01,1.568603515625000000e-01,-8.312988281250000000e-01,2.923583984375000000e-02
2.000000000000000000e+00,3.000000000000000000e+00,-2.000000000000000000e+00,-7.000000000000000000e+00,-6.000000000000000000e+00,1.000000000000000000e+00,1.800000000000000000e+01,3.000000000000000000e+00,5.324096679687500000e-01,1.568603515625000000e-01,-8.312988281250000000e-01,2.923583984375000000e-02
5.000000000000000000e+00,-2.000000000000000000e+00,8.000000000000000000e+00,5.000000000000000000e+00,2.000000000000000000e+00,-2.000000000000000000e+00,-4.000000000000000000e+00,0.000000000000000000e+00,5.324096679687500000e-01,1.568603515625000000e-01,-8.312988281250000000e-01,2.923583984375000000e-02
7.000000000000000000e+00,-2.000000000000000000e+00,2.000000000000000000e+00,-6.000000000000000000e+00,2.000000000000000000e+00,1.000000000000000000e+00,-5.000000000000000000e+00,0.000000000000000000e+00,5.324096679687500000e-01,1.569213867187500000e-01,-8.312988281250000000e-01,2.893066406250000000e-02
-2.100000000000000000e+01,-1.100000000000000000e+01,3.000000000000000000e+00,2.000000000000000000e+00,-7.000000000000000000e+00,0.000000000000000000e+00,1.000000000000000000e+01,-1.000000000000000000e+00,5.324096679687500000e-01,1.569213867187500000e-01,-8.312988281250000000e-01,2.893066406250000000e-02
-1.000000000000000000e+00,1.000000000000000000e+00,-1.000000000000000000e+01,-2.000000000000000000e+00,-2.000000000000000000e+00,-2.000000000000000000e+00,-1.000000000000000000e+01,-3.000000000000000000e+00,5.324096679687500000e-01,1.569213867187500000e-01,-8.312988281250000000e-01,2.893066406250000000e-02
-8.000000000000000000e+00,-8.000000000000000000e+00,2.000000000000000000e+01,-1.000000000000000000e+01,-4.000000000000000000e+00,-4.000000000000000000e+00,-4.000000000000000000e+00,-4.000000000000000000e+00,5.324096679687500000e-01,1.569213867187500000e-01,-8.312988281250000000e-01,2.893066406250000000e-02
6.000000000000000000e+00,1.000000000000000000e+00,-1.000000000000000000e+00,-1.000000000000000000e+00,-2.000000000000000000e+00,0.000000000000000000e+00,6.000000000000000000e+00,3.000000000000000000e+00,5.324096679687500000e-01,1.569213867187500000e-01,-8.313598632812500000e-01,2.893066406250000000e-02
6.000000000000000000e+00,0.000000000000000000e+00,-9.000000000000000000e+00,-6.000000000000000000e+00,-5.000000000000000000e+00,-3.000000000000000000e+00,-7.000000000000000000e+00,-3.000000000000000000e+00,5.324096679687500000e-01,1.569213867187500000e-01,-8.313598632812500000e-01,2.893066406250000000e-02
3.000000000000000000e+00,0.000000000000000000e+00,3.000000000000000000e+00,6.000000000000000000e+00,-1.000000000000000000e+00,1.000000000000000000e+00,-4.000000000000000000e+00,1.000000000000000000e+00,5.324096679687500000e-01,1.569213867187500000e-01,-8.313598632812500000e-01,2.893066406250000000e-02
0.000000000000000000e+00,-1.000000000000000000e+00,-1.200000000000000000e+01,2.000000000000000000e+00,2.000000000000000000e+00,-2.000000000000000000e+00,3.000000000000000000e+00,0.000000000000000000e+00,5.324096679687500000e-01,1.569213867187500000e-01,-8.313598632812500000e-01,2.893066406250000000e-02
-1.000000000000000000e+00,1.000000000000000000e+00,1.300000000000000000e+01,0.000000000000000000e+00,-1.000000000000000000e+00,0.000000000000000000e+00,-1.000000000000000000e+00,-2.000000000000000000e+00,5.323486328125000000e-01,1.570434570312500000e-01,-8.313598632812500000e-01,2.929687500000000000e-02
6.000000000000000000e+00,-4.000000000000000000e+00,-3.000000000000000000e+01,-8.000000000000000000e+00,-6.000000000000000000e+00,-3.000000000000000000e+00,-3.000000000000000000e+00,-3.000000000000000000e+00,5.323486328125000000e-01,1.570434570312500000e-01,-8.313598632812500000e-01,2.929687500000000000e-02
-4.000000000000000000e+00,1.000000000000000000e+00,1.200000000000000000e+01,1.000000000000000000e+01,8.000000000000000000e+00,-1.000000000000000000e+00,-1.000000000000000000e+00,0.000000000000000000e+00,5.323486328125000000e-01,1.570434570312500000e-01,-8.313598632812500000e-01,2.929687500000000000e-02
-3.000000000000000000e+00,2.000000000000000000e+00,-7.000000000000000000e+00,3.000000000000000000e+00,-9.000000000000000000e+00,-2.000000000000000000e+00,-8.000000000000000000e+00,-3.000000000000000000e+00,5.323486328125000000e-01,1.570434570312500000e-01,-8.313598632812500000e-01,2.929687500000000000e-02
-7.000000000000000000e+00,-1.200000000000000000e+01,-1.400000000000000000e+01,-5.000000000000000000e+00,1.200000000000000000e+01,0.000000000000000000e+00,-1.000000000000000000e+00,-1.000000000000000000e+00,5.321044921875000000e-01,1.574707031250000000e-01,-8.313598632812500000e-01,2.966308593750000000e-02
3.000000000000000000e+00,1.000000000000000000e+00,6.000000000000000000e+00,6.000000000000000000e+00,-5.000000000000000000e+00,-3.000000000000000000e+00,-4.000000000000000000e+00,-1.000000000000000000e+00,5.321044921875000000e-01,1.574707031250000000e-01,-8.313598632812500000e-01,2.966308593750000000e-02
6.000000000000000000e+00,1.000000000000000000e+00,8.000000000000000000e+00,-3.000000000000000000e+00,1.000000000000000000e+00,-1.000000000000000000e+00,0.000000000000000000e+00,-1.000000000000000000e+00,5.321044921875000000e-01,1.574707031250000000e-01,-8.313598632812500000e-01,2.966308593750000000e-02
-1.000000000000000000e+00,0.000000000000000000e+00,-1.000000000000000000e+01,0.000000000000000000e+00,-5.000000000000000000e+00,0.000000000000000000e+00,-2.000000000000000000e+00,-1.000000000000000000e+00,5.321044921875000000e-01,1.574707031250000000e-01,-8.313598632812500000e-01,2.966308593750000000e-02
-2.000000000000000000e+00,2.000000000000000000e+00,1.000000000000000000e+00,2.000000000000000000e+00,-4.000000000000000000e+00,0.000000000000000000e+00,2.000000000000000000e+00,-4.000000000000000000e+00,5.319824218750000000e-01,1.579589843750000000e-01,-8.313598632812500000e-01,2.966308593750000000e-02
4.000000000000000000e+00,5.000000000000000000e+00,5.000000000000000000e+00,-3.000000000000000000e+00,1.000000000000000000e+00,-3.000000000000000000e+00,-4.000000000000000000e+00,2.000000000000000000e+00,5.319824218750000000e-01,1.579589843750000000e-01,-8.313598632812500000e-01,2.966308593750000000e-02
-4.000000000000000000e+00,-1.000000000000000000e+00,1.800000000000000000e+01,3.000000000000000000e+00,-5.000000000000000000e+00,-5.000000000000000000e+00,-1.000000000000000000e+01,1.000000000000000000e+00,5.319824218750000000e-01,1.579589843750000000e-01,-8.313598632812500000e-01,2.966308593750000000e-02
-3.000000000000000000e+00,-2.000000000000000000e+00,-5.000000000000000000e+00,-9.000000000000000000e+00,-1.000000000000000000e+00,1.000000000000000000e+00,5.000000000000000000e+00,-1.000000000000000000e+00,5.319824218750000000e-01,1.579589843750000000e-01,-8.313598632812500000e-01,2.966308593750000000e-02
-9.000000000000000000e+00,-1.300000000000000000e+01,-9.000000000000000000e+00,-1.000000000000000000e+00,-3.000000000000000000e+00,-4.000000000000000000e+00,-8.000000000000000000e+00,-4.000000000000000000e+00,5.319824218750000000e-01,1.580200195312500000e-01,-8.313598632812500000e-01,2.966308593750000000e-02
3.000000000000000000e+00,-3.000000000000000000e+00,-5.000000000000000000e+00,1.000000000000000000e+00,7.000000000000000000e+00,2.000000000000000000e+00,6.000000000000000000e+00,-2.000000000000000000e+00,5.319824218750000000e-01,1.580200195312500000e-01,-8.313598632812500000e-01,2.966308593750000000e-02
0.000000000000000000e+00,0.000000000000000000e+00,7.000000000000000000e+00,-1.000000000000000000e+00,-1.000000000000000000e+00,2.000000000000000000e+00,-6.000000000000000000e+00,-2.000000000000000000e+00,5.319824218750000000e-01,1.580200195312500000e-01,-8.313598632812500000e-01,2.966308593750000000e-02
3.000000000000000000e+00,4.000000000000000000e+00,-1.500000000000000000e+01,4.000000000000000000e+00,2.000000000000000000e+00,1.000000000000000000e+00,4.000000000000000000e+00,0.000000000000000000e+00,5.319824218750000000e-01,1.580200195312500000e-01,-8.313598632812500000e-01,2.966308593750000000e-02
-1.000000000000000000e+00,1.300000000000000000e+01,1.400000000000000000e+01,0.000000000000000000e+00,-3.000000000000000000e+00,-1.000000000000000000e+00,-6.000000000000000000e+00,0.000000000000000000e+00,5.317382812500000000e-01,1.579589843750000000e-01,-8.314819335937500000e-01,2.972412109375000000e-02
-1.000000000000000000e+00,0.000000000000000000e+00,-6.000000000000000000e+00,-1.000000000000000000e+00,2.000000000000000000e+00,0.000000000000000000e+00,0.000000000000000000e+00,0.000000000000000000e+00,5.317382812500000000e-01,1.579589843750000000e-01,-8.314819335937500000e-01,2.972412109375000000e-02
-3.000000000000000000e+00,-1.200000000000000000e+01,-1.700000000000000000e+01,0.000000000000000000e+00,-1.100000000000000000e+01,-6.000000000000000000e+00,-6.000000000000000000e+00,-3.000000000000000000e+00,5.317382812500000000e-01,1.579589843750000000e-01,-8.314819335937500000e-01,2.972412109375000000e-02
2.000000000000000000e+00,-3.000000000000000000e+00,-1.300000000000000000e+01,-7.000000000000000000e+00,-1.000000000000000000e+00,-1.000000000000000000e+00,0.000000000000000000e+00,-2.000000000000000000e+00,5.317382812500000000e-01,1.579589843750000000e-01,-8.314819335937500000e-01,2.972412109375000000e-02
-3.000000000000000000e+00,-3.000000000000000000e+00,-1.000000000000000000e+01,-6.000000000000000000e+00,3.000000000000000000e+00,2.000000000000000000e+00,-3.000000000000000000e+00,0.000000000000000000e+00,5.312500000000000000e-01,1.583251953125000000e-01,-8.317260742187500000e-01,2.984619140625000000e-02
1.000000000000000000e+00,6.000000000000000000e+00,1.900000000000000000e+01,8.000000000000000000e+00,1.000000000000000000e+01,-2.000000000000000000e+00,-3.000000000000000000e+00,-2.000000000000000000e+00,5.312500000000000000e-01,1.583251953125000000e-01,-8.317260742187500000e-01,2.984619140625000000e-02
-1.200000000000000000e+01,-4.000000000000000000e+00,-7.000000000000000000e+00,-1.000000000000000000e+00,-1.000000000000000000e+00,1.000000000000000000e+00,7.000000000000000000e+00,-2.000000000000000000e+00,5.312500000000000000e-01,1.583251953125000000e-01,-8.317260742187500000e-01,2.984619140625000000e-02
1.000000000000000000e+00,-2.000000000000000000e+00,1.000000000000000000e+00,-2.000000000000000000e+00,-3.000000000000000000e+00,-5.000000000000000000e+00,-8.000000000000000000e+00,-3.000000000000000000e+00,5.312500000000000000e-01,1.583251953125000000e-01,-8.317260742187500000e-01,2.984619140625000000e-02
-2.000000000000000000e+00,3.000000000000000000e+00,-4.000000000000000000e+00,-4.000000000000000000e+00,-7.000000000000000000e+00,-1.000000000000000000e+00,3.000000000000000000e+00,0.000000000000000000e+00,5.307617187500000000e-01,1.588134765625000000e-01,-8.319702148437500000e-01,2.978515625000000000e-02
4.000000000000000000e+00,3.000000000000000000e+00,1.000000000000000000e+01,0.000000000000000000e+00,-2.000000000000000000e+00,0.000000000000000000e+00,0.000000000000000000e+00,0.000000000000000000e+00,5.307617187500000000e-01,1.588134765625000000e-01,-8.319702148437500000e-01,2.978515625000000000e-02
3.000000000000000000e+00,-3.000000000000000000e+00,-1.800000000000000000e+01,-2.000000000000000000e+00,-4.000000000000000000e+00,-2.000000000000000000e+00,1.000000000000000000e+00,-2.000000000000000000e+00,5.307617187500000000e-01,1.588134765625000000e-01,-8.319702148437500000e-01,2.978515625000000000e-02
-1.000000000000000000e+01,-1.000000000000000000e+01,6.000000000000000000e+00,-1.800000000000000000e+01,-6.000000000000000000e+00,-2.000000000000000000e+00,-4.000000000000000000e+00,-4.000000000000000000e+00,5.307617187500000000e-01,1.588134765625000000e-01,-8.319702148437500000e-01,2.978515625000000000e-02
-4.000000000000000000e+00,-1.300000000000000000e+01,2.000000000000000000e+00,1.000000000000000000e+00,4.000000000000000000e+00,-4.000000000000000000e+00,7.000000000000000000e+00,2.000000000000000000e+00,5.302124023437500000e-01,1.592407226562500000e-01,-8.322143554687500000e-01,2.996826171875000000e-02
-1.000000000000000000e+00,-2.000000000000000000e+00,-4.000000000000000000e+00,-2.000000000000000000e+00,-3.000000000000000000e+00,0.000000000000000000e+00,-3.000000000000000000e+00,-4.000000000000000000e+00,5.302124023437500000e-01,1.592407226562500000e-01,-8.322143554687500000e-01,2.996826171875000000e-02
5.000000000000000000e+00,0.000000000000000000e+00,-3.000000000000000000e+00,1.000000000000000000e+00,5.000000000000000000e+00,0.000000000000000000e+00,-7.000000000000000000e+00,0.000000000000000000e+00,5.302124023437500000e-01,1.592407226562500000e-01,-8.322143554687500000e-01,2.996826171875000000e-02
-2.000000000000000000e+00,3.000000000000000000e+00,6.000000000000000000e+00,1.100000000000000000e+01,1.000000000000000000e+00,1.000000000000000000e+00,1.000000000000000000e+00,2.000000000000000000e+00,5.302124023437500000e-01,1.592407226562500000e-01,-8.322143554687500000e-01,2.996826171875000000e-02
