-1.000000000000000000e+00,-2.000000000000000000e+00,-6.000000000000000000e+00,-3.000000000000000000e+00,6.000000000000000000e+00,-2.000000000000000000e+00,0.000000000000000000e+00,-2.000000000000000000e+00,-2.980957031250000000e-01,4.105224609375000000e-01,3.121948242187500000e-01,8.031616210937500000e-01
-3.000000000000000000e+00,1.000000000000000000e+00,9.000000000000000000e+00,8.000000000000000000e+00,5.000000000000000000e+00,3.000000000000000000e+00,0.000000000000000000e+00,0.000000000000000000e+00,-2.980957031250000000e-01,4.105224609375000000e-01,3.121948242187500000e-01,8.031616210937500000e-01
-1.000000000000000000e+00,-3.000000000000000000e+00,-1.700000000000000000e+01,-4.000000000000000000e+00,2.000000000000000000e+00,1.000000000000000000e+00,2.000000000000000000e+00,-1.000000000000000000e+00,-2.980957031250000000e-01,4.105224609375000000e-01,3.121948242187500000e-01,8.031616210937500000e-01
0.000000000000000000e+00,4.000000000000000000e+00,-1.000000000000000000e+00,-1.000000000000000000e+00,-2.000000000000000000e+00,-2.000000000000000000e+00,2.000000000000000000e+00,0.000000000000000000e+00,-2.980957031250000000e-01,4.105224609375000000e-01,3.121948242187500000e-01,8.031616210937500000e-01
-4.000000000000000000e+00,-1.000000000000000000e+01,-7.000000000000000000e+00,-1.400000000000000000e+01,-1.600000000000000000e+01,-7.000000000000000000e+00,-4.000000000000000000e+00,-3.000000000000000000e+00,-2.958374023437500000e-01,4.104614257812500000e-01,3.074340820312500000e-01,8.059082031250000000e-01
-1.000000000000000000e+00,-2.000000000000000000e+00,-1.200000000000000000e+01,-6.000000000000000000e+00,-7.000000000000000000e+00,-3.000000000000000000e+00,0.000000000000000000e+00,-1.000000000000000000e+00,-2.958374023437500000e-01,4.104614257812500000e-01,3.074340820312500000e-01,8.059082031250000000e-01
0.000000000000000000e+00,1.000000000000000000e+00,1.600000000000000000e+01,1.000000000000000000e+01,6.000000000000000000e+00,1.000000000000000000e+00,-3.000000000000000000e+00,-1.000000000000000000e+00,-2.958374023437500000e-01,4.104614257812500000e-01,3.074340820312500000e-01,8.059082031250000000e-01
-1.000000000000000000e+00,1.000000000000000000e+00,0.000000000000000000e+00,-1.100000000000000000e+01,-7.000000000000000000e+00,0.000000000000000000e+00,0.000000000000000000e+00,0.000000000000000000e+00,-2.958374023437500000e-01,4.104614257812500000e-01,3.074340820312500000e-01,8.059082031250000000e-01
0.000000000000000000e+00,0.000000000000000000e+00,-2.000000000000000000e+00,1.000000000000000000e+01,5.000000000000000000e+00,-2.000000000000000000e+00,0.000000000000000000e+00,-1.000000000000000000e+00,-2.947387695312500000e-01,4.102172851562500000e-01,3.040771484375000000e-01,8.076782226562500000e-01
3.000000000000000000e+00,2.000000000000000000e+00,6.000000000000000000e+00,-4.000000000000000000e+00,-6.000000000000000000e+00,0.000000000000000000e+00,0.000000000000000000e+00,0.000000000000000000e+00,-2.947387695312500000e-01,4.102172851562500000e-01,3.040771484375000000e-01,8.076782226562500000e-01
-4.000000000000000000e+00,-5.000000000000000000e+00,-1.000000000000000000e+00,1.400000000000000000e+01,6.000000000000000000e+00,0.000000000000000000e+00,-3.000000000000000000e+00,0.000000000000000000e+00,-2.947387695312500000e-01,4.102172851562500000e-01,3.040771484375000000e-01,8.076782226562500000e-01
-2.000000000000000000e+00,-3.000000000000000000e+00,-8.000000000000000000e+00,-2.800000000000000000e+01,-3.000000000000000000e+00,-4.000000000000000000e+00,-1.000000000000000000e+00,-3.000000000000000000e+00,-2.947387695312500000e-01,4.102172851562500000e-01,3.040771484375000000e-01,8.076782226562500000e-01
-1.000000000000000000e+00,0.000000000000000000e+00,9.000000000000000000e+00,8.000000000000000000e+00,-1.000000000000000000e+01,-5.000000000000000000e+00,-1.000000000000000000e+00,-1.000000000000000000e+00,-2.937011718750000000e-01,4.103393554687500000e-01,3.010253906250000000e-01,8.090820312500000000e-01
0.000000000000000000e+00,-1.000000000000000000e+00,-3.000000000000000000e+00,-5.000000000000000000e+00,-4.000000000000000000e+00,0.000000000000000000e+00,-3.000000000000000000e+00,0.000000000000000000e+00,-2.937011718750000000e-01,4.103393554687500000e-01,3.010253906250000000e-01,8.090820312500000000e-01
1.000000000000000000e+00,2.000000000000000000e+00,0.000000000000000000e+00,0.000000000000000000e+00,2.000000000000000000e+00,1.000000000000000000e+00,-4.000000000000000000e+00,1.000000000000000000e+00,-2.937011718750000000e-01,4.103393554687500000e-01,3.010253906250000000e-01,8.090820312500000000e-01
-1.000000000000000000e+00,-5.000000000000000000e+00,2.000000000000000000e+00,-4.000000000000000000e+00,-3.000000000000000000e+00,2.000000000000000000e+00,0.000000000000000000e+00,-1.000000000000000000e+00,-2.937011718750000000e-01,4.103393554687500000e-01,3.010253906250000000e-01,8.090820312500000000e-01
-2.000000000000000000e+00,-2.000000000000000000e+00,1.000000000000000000e+00,8.000000000000000000e+00,3.000000000000000000e+00,1.000000000000000000e+00,0.000000000000000000e+00,0.000000000000000000e+00,-2.930297851562500000e-01,4.110717773437500000e-01,2.979125976562500000e-01,8.101806640625000000e-01
-4.000000000000000000e+00,-4.000000000000000000e+00,-5.000000000000000000e+00,-1.300000000000000000e+01,-6.000000000000000000e+00,-1.000000000000000000e+00,-6.000000000000000000e+00,-2.000000000000000000e+00,-2.930297851562500000e-01,4.110717773437500000e-01,2.979125976562500000e-01,8.101806640625000000e-01
0.000000000000000000e+00,1.000000000000000000e+00,-3.000000000000000000e+00,-4.000000000000000000e+00,-4.000000000000000000e+00,-3.000000000000000000e+00,6.000000000000000000e+00,0.000000000000000000e+00,-2.930297851562500000e-01,4.110717773437500000e-01,2.979125976562500000e-01,8.101806640625000000e-01
-2.000000000000000000e+00,-3.000000000000000000e+00,-4.000000000000000000e+00,-9.000000000000000000e+00,-4.000000000000000000e+00,-4.000000000000000000e+00,-4.000000000000000000e+00,0.000000000000000000e+00,-2.930297851562500000e-01,4.110717773437500000e-01,2.979125976562500000e-01,8.101806640625000000e-01
0.000000000000000000e+00,-1.000000000000000000e+00,2.000000000000000000e+00,-1.100000000000000000e+01,-9.000000000000000000e+00,-3.000000000000000000e+00,-2.000000000000000000e+00,-3.000000000000000000e+00,-2.916870117187500000e-01,4.120483398437500000e-01,2.943115234375000000e-01,8.114624023437500000e-01
-2.000000000000000000e+00,1.000000000000000000e+00,-3.000000000000000000e+00,2.200000000000000000e+01,-8.000000000000000000e+00,-4.000000000000000000e+00,-2.000000000000000000e+00,-2.000000000000000000e+00,-2.916870117187500000e-01,4.120483398437500000e-01,2.943115234375000000e-01,8.114624023437500000e-01
1.000000000000000000e+00,3.000000000000000000e+00,2.000000000000000000e+00,2.000000000000000000e+00,1.900000000000000000e+01,5.000000000000000000e+00,3.000000000000000000e+00,1.000000000000000000e+00,-2.916870117187500000e-01,4.120483398437500000e-01,2.943115234375000000e-01,8.114624023437500000e-01
-1.000000000000000000e+00,0.000000000000000000e+00,1.000000000000000000e+00,9.000000000000000000e+00,9.000000000000000000e+00,4.000000000000000000e+00,-4.000000000000000000e+00,-2.000000000000000000e+00,-2.916870117187500000e-01,4.120483398437500000e-01,2.943115234375000000e-01,8.114624023437500000e-01
-2.000000000000000000e+00,0.000000000000000000e+00,1.800000000000000000e+01,-1.000000000000000000e+00,-7.000000000000000000e+00,-1.000000000000000000e+00,4.000000000000000000e+00,1.000000000000000000e+00,-2.897949218750000000e-01,4.133300781250000000e-01,2.901000976562500000e-01,8.129882812500000000e-01
0.000000000000000000e+00,-2.000000000000000000e+00,-1.500000000000000000e+01,-7.000000000000000000e+00,-3.000000000000000000e+00,-3.000000000000000000e+00,-3.000000000000000000e+00,-1.000000000000000000e+00,-2.897949218750000000e-01,4.133300781250000000e-01,2.901000976562500000e-01,8.129882812500000000e-01
-2.000000000000000000e+00,-1.000000000000000000e+00,8.000000000000000000e+00,-3.000000000000000000e+00,-1.100000000000000000e+01,-2.000000000000000000e+00,-4.000000000000000000e+00,-2.000000000000000000e+00,-2.897949218750000000e-01,4.133300781250000000e-01,2.901000976562500000e-01,8.129882812500000000e-01
0.000000000000000000e+00,-4.000000000000000000e+00,1.000000000000000000e+00,-4.000000000000000000e+00,5.000000000000000000e+00,2.000000000000000000e+00,0.000000000000000000e+00,-3.000000000000000000e+00,-2.897949218750000000e-01,4.133300781250000000e-01,2.901000976562500000e-01,8.129882812500000000e-01
2.000000000000000000e+00,-1.000000000000000000e+00,-1.600000000000000000e+01,3.000000000000000000e+00,6.000000000000000000e+00,1.000000000000000000e+00,-1.000000000000000000e+00,-1.000000000000000000e+00,-2.875976562500000000e-01,4.149169921875000000e-01,2.860107421875000000e-01,8.143920898437500000e-01
0.000000000000000000e+00,1.000000000000000000e+00,1.000000000000000000e+01,9.000000000000000000e+00,4.000000000000000000e+00,0.000000000000000000e+00,0.000000000000000000e+00,0.000000000000000000e+00,-2.875976562500000000e-01,4.149169921875000000e-01,2.860107421875000000e-01,8.143920898437500000e-01
0.000000000000000000e+00,1.000000000000000000e+00,-9.000000000000000000e+00,-1.100000000000000000e+01,-4.000000000000000000e+00,-1.000000000000000000e+00,1.000000000000000000e+00,-1.000000000000000000e+00,-2.875976562500000000e-01,4.149169921875000000e-01,2.860107421875000000e-01,8.143920898437500000e-01
-2.000000000000000000e+00,-2.000000000000000000e+00,5.000000000000000000e+00,1.000000000000000000e+00,1.000000000000000000e+00,-3.000000000000000000e+00,-2.000000000000000000e+00,0.000000000000000000e+00,-2.875976562500000000e-01,4.149169921875000000e-01,2.860107421875000000e-01,8.143920898437500000e-01
-1.000000000000000000e+00,-1.000000000000000000e+00,-8.000000000000000000e+00,-4.000000000000000000e+00,-6.000000000000000000e+00,-3.000000000000000000e+00,-5.000000000000000000e+00,0.000000000000000000e+00,-2.857055664062500000e-01,4.166870117187500000e-01,2.820434570312500000e-01,8.155517578125000000e-01
-1.000000000000000000e+00,0.000000000000000000e+00,2.000000000000000000e+00,4.000000000000000000e+00,7.000000000000000000e+00,1.000000000000000000e+00,-2.000000000000000000e+00,-1.000000000000000000e+00,-2.857055664062500000e-01,4.166870117187500000e-01,2.820434570312500000e-01,8.155517578125000000e-01
-1.000000000000000000e+00,-3.000000000000000000e+00,1.100000000000000000e+01,4.000000000000000000e+00,-2.000000000000000000e+00,-3.000000000000000000e+00,-4.000000000000000000e+00,-3.000000000000000000e+00,-2.857055664062500000e-01,4.166870117187500000e-01,2.820434570312500000e-01,8.155517578125000000e-01
-2.000000000000000000e+00,-1.000000000000000000e+00,-1.800000000000000000e+01,-6.000000000000000000e+00,-4.000000000000000000e+00,-2.000000000000000000e+00,0.000000000000000000e+00,-1.000000000000000000e+00,-2.857055664062500000e-01,4.166870117187500000e-01,2.820434570312500000e-01,8.155517578125000000e-01
0.000000000000000000e+00,-3.000000000000000000e+00,-9.000000000000000000e+00,5.000000000000000000e+00,-1.000000000000000000e+00,-1.000000000000000000e+00,-1.000000000000000000e+00,-2.000000000000000000e+00,-2.846069335937500000e-01,4.183959960937500000e-01,2.785644531250000000e-01,8.162841796875000000e-01
3.000000000000000000e+00,0.000000000000000000e+00,7.000000000000000000e+00,-9.000000000000000000e+00,3.000000000000000000e+00,0.000000000000000000e+00,1.000000000000000000e+00,2.000000000000000000e+00,-2.846069335937500000e-01,4.183959960937500000e-01,2.785644531250000000e-01,8.162841796875000000e-01
-2.000000000000000000e+00,-3.000000000000000000e+00,5.000000000000000000e+00,0.000000000000000000e+00,1.000000000000000000e+00,-1.000000000000000000e+00,-1.000000000000000000e+00,-1.000000000000000000e+00,-2.846069335937500000e-01,4.183959960937500000e-01,2.785644531250000000e-01,8.162841796875000000e-01
-2.000000000000000000e+00,0.000000000000000000e+00,-1.200000000000000000e+01,1.000000000000000000e+00,-6.000000000000000000e+00,-2.000000000000000000e+00,-2.000000000000000000e+00,0.000000000000000000e+00,-2.846069335937500000e-01,4.183959960937500000e-01,2.785644531250000000e-01,8.162841796875000000e-01
-2.000000000000000000e+00,0.000000000000000000e+00,-1.300000000000000000e+01,0.000000000000000000e+00,5.000000000000000000e+00,-1.000000000000000000e+00,-2.000000000000000000e+00,-1.000000000000000000e+00,-2.835693359375000000e-01,4.199829101562500000e-01,2.755126953125000000e-01,8.168334960937500000e-01
-2.000000000000000000e+00,0.000000000000000000e+00,1.000000000000000000e+01,-9.000000000000000000e+00,-1.400000000000000000e+01,-3.000000000000000000e+00,-2.000000000000000000e+00,-2.000000000000000000e+00,-2.835693359375000000e-01,4.199829101562500000e-01,2.755126953125000000e-01,8.168334960937500000e-01
-2.000000000000000000e+00,-6.000000000000000000e+00,-1.000000000000000000e+00,9.000000000000000000e+00,1.300000000000000000e+01,5.000000000000000000e+00,5.000000000000000000e+00,1.000000000000000000e+00,-2.835693359375000000e-01,4.199829101562500000e-01,2.755126953125000000e-01,8.168334960937500000e-01
0.000000000000000000e+00,-4.000000000000000000e+00,-1.100000000000000000e+01,-1.400000000000000000e+01,-1.000000000000000000e+00,-3.000000000000000000e+00,0.000000000000000000e+00,-1.000000000000000000e+00,-2.835693359375000000e-01,4.199829101562500000e-01,2.755126953125000000e-01,8.168334960937500000e-01
0.000000000000000000e+00,2.000000000000000000e+00,3.000000000000000000e+00,-4.000000000000000000e+00,-7.000000000000000000e+00,-3.000000000000000000e+00,-2.000000000000000000e+00,1.000000000000000000e+00,-2.820434570312500000e-01,4.213867187500000000e-01,2.723999023437500000e-01,8.176879882812500000e-01
-4.000000000000000000e+00,-5.000000000000000000e+00,3.000000000000000000e+00,8.000000000000000000e+00,4.000000000000000000e+00,-3.000000000000000000e+00,-5.000000000000000000e+00,-2.000000000000000000e+00,-2.820434570312500000e-01,4.213867187500000000e-01,2.723999023437500000e-01,8.176879882812500000e-01
3.000000000000000000e+00,1.000000000000000000e+00,-8.000000000000000000e+00,-1.600000000000000000e+01,-1.300000000000000000e+01,-2.000000000000000000e+00,0.000000000000000000e+00,0.000000000000000000e+00,-2.820434570312500000e-01,4.213867187500000000e-01,2.723999023437500000e-01,8.176879882812500000e-01
0.000000000000000000e+00,2.000000000000000000e+00,2.000000000000000000e+00,2.000000000000000000e+00,-2.000000000000000000e+00,-2.000000000000000000e+00,-3.000000000000000000e+00,-2.000000000000000000e+00,-2.820434570312500000e-01,4.213867187500000000e-01,2.723999023437500000e-01,8.176879882812500000e-01
-2.000000000000000000e+00,0.000000000000000000e+00,7.000000000000000000e+00,5.000000000000000000e+00,3.000000000000000000e+00,-1.000000000000000000e+00,-5.000000000000000000e+00,-1.000000000000000000e+00,-2.807006835937500000e-01,4.228515625000000000e-01,2.692260742187500000e-01,8.184204101562500000e-01
0.000000000000000000e+00,-1.000000000000000000e+00,-1.400000000000000000e+01,-6.000000000000000000e+00,-4.000000000000000000e+00,3.000000000000000000e+00,9.000000000000000000e+00,0.000000000000000000e+00,-2.807006835937500000e-01,4.228515625000000000e-01,2.692260742187500000e-01,8.184204101562500000e-01
-2.000000000000000000e+00,0.000000000000000000e+00,2.000000000000000000e+00,1.000000000000000000e+00,-3.000000000000000000e+00,-3.000000000000000000e+00,-3.000000000000000000e+00,-2.000000000000000000e+00,-2.807006835937500000e-01,4.228515625000000000e-01,2.692260742187500000e-01,8.184204101562500000e-01
0.000000000000000000e+00,-2.000000000000000000e+00,1.000000000000000000e+00,4.000000000000000000e+00,9.000000000000000000e+00,1.000000000000000000e+00,-1.000000000000000000e+00,1.000000000000000000e+00,-2.807006835937500000e-01,4.228515625000000000e-01,2.692260742187500000e-01,8.184204101562500000e-01
0.000000000000000000e+00,4.000000000000000000e+00,-5.000000000000000000e+00,1.000000000000000000e+00,-4.000000000000000000e+00,-6.000000000000000000e+00,-4.000000000000000000e+00,-2.000000000000000000e+00,-2.792968750000000000e-01,4.246826171875000000e-01,2.658081054687500000e-01,8.190917968750000000e-01
-1.000000000000000000e+00,0.000000000000000000e+00,2.000000000000000000e+00,-9.000000000000000000e+00,3.000000000000000000e+00,8.000000000000000000e+00,2.000000000000000000e+00,0.000000000000000000e+00,-2.792968750000000000e-01,4.246826171875000000e-01,2.658081054687500000e-01,8.190917968750000000e-01
-2.000000000000000000e+00,-1.000000000000000000e+00,-3.000000000000000000e+00,-1.100000000000000000e+01,-2.000000000000000000e+00,-4.000000000000000000e+00,-1.000000000000000000e+00,-2.000000000000000000e+00,-2.792968750000000000e-01,4.246826171875000000e-01,2.658081054687500000e-01,8.190917968750000000e-01
0.000000000000000000e+00,0.000000000000000000e+00,3.000000000000000000e+00,1.300000000000000000e+01,6.000000000000000000e+00,0.000000000000000000e+00,3.000000000000000000e+00,-1.000000000000000000e+00,-2.792968750000000000e-01,4.246826171875000000e-01,2.658081054687500000e-01,8.190917968750000000e-01
-1.000000000000000000e+00,-1.000000000000000000e+00,-6.000000000000000000e+00,-2.000000000000000000e+00,0.000000000000000000e+00,-2.000000000000000000e+00,-2.000000000000000000e+00,-2.000000000000000000e+00,-2.770996093750000000e-01,4.270629882812500000e-01,2.623291015625000000e-01,8.197021484375000000e-01
-1.000000000000000000e+00,-2.000000000000000000e+00,1.000000000000000000e+00,1.000000000000000000e+00,3.000000000000000000e+00,-2.000000000000000000e+00,-4.000000000000000000e+00,-1.000000000000000000e+00,-2.770996093750000000e-01,4.270629882812500000e-01,2.623291015625000000e-01,8.197021484375000000e-01
-1.000000000000000000e+00,0.000000000000000000e+00,-7.000000000000000000e+00,-7.000000000000000000e+00,-3.000000000000000000e+00,0.000000000000000000e+00,2.000000000000000000e+00,-1.000000000000000000e+00,-2.770996093750000000e-01,4.270629882812500000e-01,2.623291015625000000e-01,8.197021484375000000e-01
-2.000000000000000000e+00,2.000000000000000000e+00,7.000000000000000000e+00,4.000000000000000000e+00,-8.000000000000000000e+00,-3.000000000000000000e+00,-3.000000000000000000e+00,-1.000000000000000000e+00,-2.770996093750000000e-01,4.270629882812500000e-01,2.623291015625000000e-01,8.197021484375000000e-01
-2.000000000000000000e+00,-3.000000000000000000e+00,2.000000000000000000e+00,-8.000000000000000000e+00,-1.100000000000000000e+01,-3.000000000000000000e+00,-1.000000000000000000e+00,0.000000000000000000e+00,-2.749023437500000000e-01,4.294433593750000000e-01,2.592773437500000000e-01,8.201904296875000000e-01
0.000000000000000000e+00,1.000000000000000000e+00,-8.000000000000000000e+00,7.000000000000000000e+00,6.000000000000000000e+00,-1.000000000000000000e+00,-1.000000000000000000e+00,-3.000000000000000000e+00,-2.749023437500000000e-01,4.294433593750000000e-01,2.592773437500000000e-01,8.201904296875000000e-01
-3.000000000000000000e+00,-4.000000000000000000e+00,-1.400000000000000000e+01,-6.000000000000000000e+00,-1.000000000000000000e+00,1.000000000000000000e+00,-3.000000000000000000e+00,0.000000000000000000e+00,-2.749023437500000000e-01,4.294433593750000000e-01,2.592773437500000000e-01,8.201904296875000000e-01
-3.000000000000000000e+00,0.000000000000000000e+00,1.000000000000000000e+01,7.000000000000000000e+00,4.000000000000000000e+00,0.000000000000000000e+00,-1.000000000000000000e+00,2.000000000000000000e+00,-2.749023437500000000e-01,4.294433593750000000e-01,2.592773437500000000e-01,8.201904296875000000e-01
-3.000000000000000000e+00,-2.000000000000000000e+00,-1.400000000000000000e+01,4.000000000000000000e+00,1.000000000000000000e+00,0.000000000000000000e+00,3.000000000000000000e+00,-2.000000000000000000e+00,-2.731933593750000000e-01,4.314575195312500000e-01,2.568359375000000000e-01,8.204956054687500000e-01
-3.000000000000000000e+00,1.000000000000000000e+00,8.000000000000000000e+00,-1.200000000000000000e+01,2.000000000000000000e+00,1.000000000000000000e+00,0.000000000000000000e+00,0.000000000000000000e+00,-2.731933593750000000e-01,4.314575195312500000e-01,2.568359375000000000e-01,8.204956054687500000e-01
1.000000000000000000e+00,0.000000000000000000e+00,3.000000000000000000e+00,4.000000000000000000e+00,-1.000000000000000000e+00,-4.000000000000000000e+00,-1.000000000000000000e+00,-1.000000000000000000e+00,-2.731933593750000000e-01,4.314575195312500000e-01,2.568359375000000000e-01,8.204956054687500000e-01
1.000000000000000000e+00,-1.000000000000000000e+00,-1.000000000000000000e+00,-5.000000000000000000e+00,-4.000000000000000000e+00,-5.000000000000000000e+00,-6.000000000000000000e+00,0.000000000000000000e+00,-2.731933593750000000e-01,4.314575195312500000e-01,2.568359375000000000e-01,8.204956054687500000e-01
0.000000000000000000e+00,0.000000000000000000e+00,-1.000000000000000000e+00,-4.000000000000000000e+00,0.000000000000000000e+00,6.000000000000000000e+00,4.000000000000000000e+00,2.000000000000000000e+00,-2.722167968750000000e-01,4.331665039062500000e-01,2.545776367187500000e-01,8.205566406250000000e-01
1.000000000000000000e+00,1.000000000000000000e+00,0.000000000000000000e+00,4.000000000000000000e+00,-3.000000000000000000e+00,7.000000000000000000e+00,5.000000000000000000e+00,0.000000000000000000e+00,-2.722167968750000000e-01,4.331665039062500000e-01,2.545776367187500000e-01,8.205566406250000000e-01
0.000000000000000000e+00,2.000000000000000000e+00,-1.000000000000000000e+00,4.000000000000000000e+00,0.000000000000000000e+00,-3.000000000000000000e+00,-4.000000000000000000e+00,-2.000000000000000000e+00,-2.722167968750000000e-01,4.331665039062500000e-01,2.545776367187500000e-01,8.205566406250000000e-01
-1.000000000000000000e+00,2.000000000000000000e+00,1.000000000000000000e+01,2.000000000000000000e+00,-5.000000000000000000e+00,-1.000000000000000000e+00,1.000000000000000000e+00,-2.000000000000000000e+00,-2.722167968750000000e-01,4.331665039062500000e-01,2.545776367187500000e-01,8.205566406250000000e-01
-2.000000000000000000e+00,-9.000000000000000000e+00,-3.700000000000000000e+01,-2.000000000000000000e+01,-9.000000000000000000e+00,-4.000000000000000000e+00,-1.000000000000000000e+00,0.000000000000000000e+00,-2.711181640625000000e-01,4.347534179687500000e-01,2.522583007812500000e-01,8.208618164062500000e-01
0.000000000000000000e+00,-2.000000000000000000e+00,-6.000000000000000000e+00,1.000000000000000000e+01,1.200000000000000000e+01,-2.000000000000000000e+00,0.000000000000000000e+00,-1.000000000000000000e+00,-2.711181640625000000e-01,4.347534179687500000e-01,2.522583007812500000e-01,8.208618164062500000e-01
-1.000000000000000000e+00,-3.000000000000000000e+00,-4.000000000000000000e+00,-2.000000000000000000e+00,-1.000000000000000000e+00,1.000000000000000000e+00,-2.000000000000000000e+00,0.000000000000000000e+00,-2.711181640625000000e-01,4.347534179687500000e-01,2.522583007812500000e-01,8.208618164062500000e-01
1.000000000000000000e+00,-1.000000000000000000e+00,6.000000000000000000e+00,-1.000000000000000000e+00,-4.000000000000000000e+00,-4.000000000000000000e+00,-2.000000000000000000e+00,0.000000000000000000e+00,-2.711181640625000000e-01,4.347534179687500000e-01,2.522583007812500000e-01,8.208618164062500000e-01
0.000000000000000000e+00,-1.000000000000000000e+00,1.500000000000000000e+01,7.000000000000000000e+00,6.000000000000000000e+00,2.000000000000000000e+00,-2.000000000000000000e+00,-3.000000000000000000e+00,-2.694091796875000000e-01,4.364013671875000000e-01,2.499389648437500000e-01,8.212280273437500000e-01
-1.000000000000000000e+00,0.000000000000000000e+00,-3.000000000000000000e+00,-7.000000000000000000e+00,-8.000000000000000000e+00,-6.000000000000000000e+00,-2.000000000000000000e+00,-1.000000000000000000e+00,-2.694091796875000000e-01,4.364013671875000000e-01,2.499389648437500000e-01,8.212280273437500000e-01
0.000000000000000000e+00,1.000000000000000000e+00,1.000000000000000000e+00,4.000000000000000000e+00,1.000000000000000000e+00,1.000000000000000000e+00,-3.000000000000000000e+00,0.000000000000000000e+00,-2.694091796875000000e-01,4.364013671875000000e-01,2.499389648437500000e-01,8.212280273437500000e-01
-3.000000000000000000e+00,-6.000000000000000000e+00,-1.500000000000000000e+01,0.000000000000000000e+00,7.000000000000000000e+00,2.000000000000000000e+00,1.000000000000000000e+00,-2.000000000000000000e+00,-2.694091796875000000e-01,4.364013671875000000e-01,2.499389648437500000e-01,8.212280273437500000e-01
0.000000000000000000e+00,1.000000000000000000e+00,-1.000000000000000000e+00,1.000000000000000000e+01,8.000000000000000000e+00,4.000000000000000000e+00,3.000000000000000000e+00,0.000000000000000000e+00,-2.673950195312500000e-01,4.378051757812500000e-01,2.479858398437500000e-01,8.217163085937500000e-01
-2.000000000000000000e+00,0.000000000000000000e+00,3.000000000000000000e+00,3.000000000000000000e+00,0.000000000000000000e+00,-2.000000000000000000e+00,-2.000000000000000000e+00,-1.000000000000000000e+00,-2.673950195312500000e-01,4.378051757812500000e-01,2.479858398437500000e-01,8.217163085937500000e-01
-2.000000000000000000e+00,-1.000000000000000000e+00,1.600000000000000000e+01,-2.000000000000000000e+00,-4.000000000000000000e+00,-3.000000000000000000e+00,-5.000000000000000000e+00,-3.000000000000000000e+00,-2.673950195312500000e-01,4.378051757812500000e-01,2.479858398437500000e-01,8.217163085937500000e-01
-1.000000000000000000e+00,-2.000000000000000000e+00,-8.000000000000000000e+00,-8.000000000000000000e+00,-8.000000000000000000e+00,-1.000000000000000000e+00,6.000000000000000000e+00,0.000000000000000000e+00,-2.673950195312500000e-01,4.378051757812500000e-01,2.479858398437500000e-01,8.217163085937500000e-01
-2.000000000000000000e+00,-4.000000000000000000e+00,-3.600000000000000000e+01,-1.500000000000000000e+01,-4.000000000000000000e+00,1.000000000000000000e+00,1.000000000000000000e+00,1.000000000000000000e+00,-2.662963867187500000e-01,4.388427734375000000e-01,2.465820312500000000e-01,8.219604492187500000e-01
-1.000000000000000000e+00,-2.000000000000000000e+00,0.000000000000000000e+00,-2.000000000000000000e+00,0.000000000000000000e+00,-1.000000000000000000e+00,-1.000000000000000000e+00,-2.000000000000000000e+00,-2.662963867187500000e-01,4.388427734375000000e-01,2.465820312500000000e-01,8.219604492187500000e-01
0.000000000000000000e+00,-1.000000000000000000e+00,7.000000000000000000e+00,1.000000000000000000e+00,1.000000000000000000e+00,1.000000000000000000e+00,-1.000000000000000000e+00,-2.000000000000000000e+00,-2.662963867187500000e-01,4.388427734375000000e-01,2.465820312500000000e-01,8.219604492187500000e-01
-2.000000000000000000e+00,-2.000000000000000000e+00,-1.800000000000000000e+01,-7.000000000000000000e+00,-4.000000000000000000e+00,-1.000000000000000000e+00,-3.000000000000000000e+00,0.000000000000000000e+00,-2.662963867187500000e-01,4.388427734375000000e-01,2.465820312500000000e-01,8.219604492187500000e-01
-1.000000000000000000e+00,1.000000000000000000e+00,1.500000000000000000e+01,3.000000000000000000e+00,-5.000000000000000000e+00,-6.000000000000000000e+00,-4.000000000000000000e+00,-1.000000000000000000e+00,-2.659301757812500000e-01,4.393310546875000000e-01,2.454833984375000000e-01,8.221435546875000000e-01
-1.000000000000000000e+00,1.000000000000000000e+00,4.000000000000000000e+00,5.000000000000000000e+00,0.000000000000000000e+00,-1.000000000000000000e+00,2.000000000000000000e+00,2.000000000000000000e+00,-2.659301757812500000e-01,4.393310546875000000e-01,2.454833984375000000e-01,8.221435546875000000e-01
-3.000000000000000000e+00,-4.000000000000000000e+00,-2.200000000000000000e+01,5.000000000000000000e+00,0.000000000000000000e+00,-3.000000000000000000e+00,0.000000000000000000e+00,-2.000000000000000000e+00,-2.659301757812500000e-01,4.393310546875000000e-01,2.454833984375000000e-01,8.221435546875000000e-01
-2.000000000000000000e+00,0.000000000000000000e+00,-3.000000000000000000e+00,-1.500000000000000000e+01,-4.000000000000000000e+00,-1.000000000000000000e+00,-2.000000000000000000e+00,-3.000000000000000000e+00,-2.659301757812500000e-01,4.393310546875000000e-01,2.454833984375000000e-01,8.221435546875000000e-01
2.000000000000000000e+00,0.000000000000000000e+00,1.400000000000000000e+01,1.200000000000000000e+01,1.100000000000000000e+01,3.000000000000000000e+00,-1.000000000000000000e+00,1.000000000000000000e+00,-2.651367187500000000e-01,4.396972656250000000e-01,2.442626953125000000e-01,8.225708007812500000e-01
-1.000000000000000000e+00,-1.000000000000000000e+00,1.000000000000000000e+00,4.000000000000000000e+00,-2.000000000000000000e+00,-2.000000000000000000e+00,-3.000000000000000000e+00,-2.000000000000000000e+00,-2.651367187500000000e-01,4.396972656250000000e-01,2.442626953125000000e-01,8.225708007812500000e-01
0.000000000000000000e+00,-4.000000000000000000e+00,1.100000000000000000e+01,5.000000000000000000e+00,-1.000000000000000000e+00,-3.000000000000000000e+00,-1.000000000000000000e+00,-3.000000000000000000e+00,-2.651367187500000000e-01,4.396972656250000000e-01,2.442626953125000000e-01,8.225708007812500000e-01
1.000000000000000000e+00,1.000000000000000000e+00,2.300000000000000000e+01,-8.000000000000000000e+00,3.000000000000000000e+00,2.000000000000000000e+00,0.000000000000000000e+00,-3.000000000000000000e+00,-2.651367187500000000e-01,4.396972656250000000e-01,2.442626953125000000e-01,8.225708007812500000e-01
-3.000000000000000000e+00,0.000000000000000000e+00,3.100000000000000000e+01,1.600000000000000000e+01,4.000000000000000000e+00,0.000000000000000000e+00,-3.000000000000000000e+00,-3.000000000000000000e+00,-2.637939453125000000e-01,4.403076171875000000e-01,2.428588867187500000e-01,8.230590820312500000e-01
-1.000000000000000000e+00,-2.000000000000000000e+00,-1.900000000000000000e+01,-1.400000000000000000e+01,0.000000000000000000e+00,0.000000000000000000e+00,0.000000000000000000e+00,0.000000000000000000e+00,-2.637939453125000000e-01,4.403076171875000000e-01,2.428588867187500000e-01,8.230590820312500000e-01
-2.000000000000000000e+00,-1.000000000000000000e+00,-1.100000000000000000e+01,-1.000000000000000000e+00,-1.000000000000000000e+00,0.000000000000000000e+00,-1.000000000000000000e+00,0.000000000000000000e+00,-2.637939453125000000e-01,4.403076171875000000e-01,2.428588867187500000e-01,8.230590820312500000e-01
-1.000000000000000000e+00,1.000000000000000000e+00,5.000000000000000000e+00,-6.000000000000000000e+00,-8.000000000000000000e+00,-6.000000000000000000e+00,1.000000000000000000e+00,-3.000000000000000000e+00,-2.637939453125000000e-01,4.403076171875000000e-01,2.428588867187500000e-01,8.230590820312500000e-01
1.000000000000000000e+00,1.000000000000000000e+00,-2.000000000000000000e+00,-5.000000000000000000e+00,-3.000000000000000000e+00,-5.000000000000000000e+00,-6.000000000000000000e+00,-1.000000000000000000e+00,-2.626953125000000000e-01,4.408569335937500000e-01,2.417602539062500000e-01,8.234863281250000000e-01
0.000000000000000000e+00,-2.000000000000000000e+00,7.000000000000000000e+00,9.000000000000000000e+00,1.000000000000000000e+00,7.000000000000000000e+00,3.000000000000000000e+00,-2.000000000000000000e+00,-2.626953125000000000e-01,4.408569335937500000e-01,2.417602539062500000e-01,8.234863281250000000e-01
-1.000000000000000000e+00,3.000000000000000000e+00,-3.000000000000000000e+00,-9.000000000000000000e+00,-4.000000000000000000e+00,-5.000000000000000000e+00,-6.000000000000000000e+00,-3.000000000000000000e+00,-2.626953125000000000e-01,4.408569335937500000e-01,2.417602539062500000e-01,8.234863281250000000e-01
0.000000000000000000e+00,-1.000000000000000000e+00,-1.200000000000000000e+01,-3.000000000000000000e+00,2.000000000000000000e+00,7.000000000000000000e+00,5.000000000000000000e+00,2.000000000000000000e+00,-2.626953125000000000e-01,4.408569335937500000e-01,2.417602539062500000e-01,8.234863281250000000e-01
-2.000000000000000000e+00,2.000000000000000000e+00,2.500000000000000000e+01,7.000000000000000000e+00,0.000000000000000000e+00,-1.000000000000000000e+00,5.000000000000000000e+00,1.000000000000000000e+00,-2.617187500000000000e-01,4.412841796875000000e-01,2.409057617187500000e-01,8.237915039062500000e-01
-1.000000000000000000e+00,-6.000000000000000000e+00,-2.800000000000000000e+01,-1.300000000000000000e+01,-7.000000000000000000e+00,-6.000000000000000000e+00,-4.000000000000000000e+00,-2.000000000000000000e+00,-2.617187500000000000e-01,4.412841796875000000e-01,2.409057617187500000e-01,8.237915039062500000e-01
1.000000000000000000e+00,0.000000000000000000e+00,3.000000000000000000e+00,0.000000000000000000e+00,0.000000000000000000e+00,0.000000000000000000e+00,-1.000000000000000000e+00,0.000000000000000000e+00,-2.617187500000000000e-01,4.412841796875000000e-01,2.409057617187500000e-01,8.237915039062500000e-01
-1.000000000000000000e+00,2.000000000000000000e+00,-3.000000000000000000e+00,1.000000000000000000e+01,5.000000000000000000e+00,-3.000000000000000000e+00,-5.000000000000000000e+00,0.000000000000000000e+00,-2.617187500000000000e-01,4.412841796875000000e-01,2.409057617187500000e-01,8.237915039062500000e-01
-1.000000000000000000e+00,0.000000000000000000e+00,9.000000000000000000e+00,-2.900000000000000000e+01,-1.900000000000000000e+01,-3.000000000000000000e+00,-2.000000000000000000e+00,-2.000000000000000000e+00,-2.610473632812500000e-01,4.418945312500000000e-01,2.399902343750000000e-01,8.239746093750000000e-01
-2.000000000000000000e+00,3.000000000000000000e+00,1.700000000000000000e+01,2.500000000000000000e+01,2.500000000000000000e+01,3.000000000000000000e+00,0.000000000000000000e+00,0.000000000000000000e+00,-2.610473632812500000e-01,4.418945312500000000e-01,2.399902343750000000e-01,8.239746093750000000e-01
-1.000000000000000000e+00,1.000000000000000000e+00,3.000000000000000000e+00,-1.000000000000000000e+00,-4.000000000000000000e+00,1.000000000000000000e+00,0.000000000000000000e+00,-1.000000000000000000e+00,-2.610473632812500000e-01,4.418945312500000000e-01,2.399902343750000000e-01,8.239746093750000000e-01
-4.000000000000000000e+00,-9.000000000000000000e+00,-7.000000000000000000e+00,1.000000000000000000e+00,-4.000000000000000000e+00,-2.000000000000000000e+00,-2.000000000000000000e+00,-2.000000000000000000e+00,-2.610473632812500000e-01,4.418945312500000000e-01,2.399902343750000000e-01,8.239746093750000000e-01
-1.000000000000000000e+00,-2.000000000000000000e+00,-9.000000000000000000e+00,-1.100000000000000000e+01,-8.000000000000000000e+00,-2.000000000000000000e+00,-1.000000000000000000e+00,-2.000000000000000000e+00,-2.600097656250000000e-01,4.427490234375000000e-01,2.391357421875000000e-01,8.240966796875000000e-01
-3.000000000000000000e+00,-2.000000000000000000e+00,3.000000000000000000e+00,-1.000000000000000000e+01,-1.100000000000000000e+01,-5.000000000000000000e+00,-2.000000000000000000e+00,0.000000000000000000e+00,-2.600097656250000000e-01,4.427490234375000000e-01,2.391357421875000000e-01,8.240966796875000000e-01
-1.000000000000000000e+00,0.000000000000000000e+00,7.000000000000000000e+00,1.000000000000000000e+01,0.000000000000000000e+00,-1.000000000000000000e+00,1.000000000000000000e+00,0.000000000000000000e+00,-2.600097656250000000e-01,4.427490234375000000e-01,2.391357421875000000e-01,8.240966796875000000e-01
1.000000000000000000e+00,0.000000000000000000e+00,-1.700000000000000000e+01,1.000000000000000000e+01,1.200000000000000000e+01,0.000000000000000000e+00,-3.000000000000000000e+00,-3.000000000000000000e+00,-2.600097656250000000e-01,4.427490234375000000e-01,2.391357421875000000e-01,8.240966796875000000e-01
0.000000000000000000e+00,0.000000000000000000e+00,-6.000000000000000000e+00,-1.200000000000000000e+01,-3.000000000000000000e+00,-2.000000000000000000e+00,-1.000000000000000000e+00,-1.000000000000000000e+00,-2.589721679687500000e-01,4.434814453125000000e-01,2.384033203125000000e-01,8.242187500000000000e-01
2.000000000000000000e+00,0.000000000000000000e+00,8.000000000000000000e+00,-6.000000000000000000e+00,-8.000000000000000000e+00,-1.000000000000000000e+00,-2.000000000000000000e+00,-2.000000000000000000e+00,-2.589721679687500000e-01,4.434814453125000000e-01,2.384033203125000000e-01,8.242187500000000000e-01
-1.000000000000000000e+00,-2.000000000000000000e+00,-1.800000000000000000e+01,-3.000000000000000000e+00,0.000000000000000000e+00,1.000000000000000000e+00,0.000000000000000000e+00,0.000000000000000000e+00,-2.589721679687500000e-01,4.434814453125000000e-01,2.384033203125000000e-01,8.242187500000000000e-01
0.000000000000000000e+00,1.000000000000000000e+00,3.000000000000000000e+00,6.000000000000000000e+00,-5.000000000000000000e+00,-3.000000000000000000e+00,-1.000000000000000000e+00,1.000000000000000000e+00,-2.589721679687500000e-01,4.434814453125000000e-01,2.384033203125000000e-01,8.242187500000000000e-01
-1.000000000000000000e+00,-1.000000000000000000e+00,-1.300000000000000000e+01,-5.000000000000000000e+00,0.000000000000000000e+00,-4.000000000000000000e+00,-2.000000000000000000e+00,1.000000000000000000e+00,-2.589111328125000000e-01,4.438476562500000000e-01,2.382202148437500000e-01,8.240966796875000000e-01
-2.000000000000000000e+00,-3.000000000000000000e+00,3.000000000000000000e+00,0.000000000000000000e+00,2.000000000000000000e+00,6.000000000000000000e+00,5.000000000000000000e+00,-1.000000000000000000e+00,-2.589111328125000000e-01,4.438476562500000000e-01,2.382202148437500000e-01,8.240966796875000000e-01
1.000000000000000000e+00,5.000000000000000000e+00,1.500000000000000000e+01,5.000000000000000000e+00,2.000000000000000000e+00,-1.000000000000000000e+00,-7.000000000000000000e+00,0.000000000000000000e+00,-2.589111328125000000e-01,4.438476562500000000e-01,2.382202148437500000e-01,8.240966796875000000e-01
-3.000000000000000000e+00,-5.000000000000000000e+00,-1.100000000000000000e+01,-1.800000000000000000e+01,-7.000000000000000000e+00,-1.000000000000000000e+00,4.000000000000000000e+00,1.000000000000000000e+00,-2.589111328125000000e-01,4.438476562500000000e-01,2.382202148437500000e-01,8.240966796875000000e-01
-2.000000000000000000e+00,-2.000000000000000000e+00,-4.000000000000000000e+00,1.400000000000000000e+01,-3.000000000000000000e+00,-2.000000000000000000e+00,-3.000000000000000000e+00,-1.000000000000000000e+00,-2.592773437500000000e-01,4.440307617187500000e-01,2.384033203125000000e-01,8.238525390625000000e-01
0.000000000000000000e+00,0.000000000000000000e+00,1.100000000000000000e+01,-5.000000000000000000e+00,1.000000000000000000e+00,-3.000000000000000000e+00,0.000000000000000000e+00,-1.000000000000000000e+00,-2.592773437500000000e-01,4.440307617187500000e-01,2.384033203125000000e-01,8.238525390625000000e-01
-1.000000000000000000e+00,0.000000000000000000e+00,-1.400000000000000000e+01,-9.000000000000000000e+00,-2.000000000000000000e+00,-3.000000000000000000e+00,1.000000000000000000e+00,-1.000000000000000000e+00,-2.592773437500000000e-01,4.440307617187500000e-01,2.384033203125000000e-01,8.238525390625000000e-01
-2.000000000000000000e+00,-2.000000000000000000e+00,0.000000000000000000e+00,3.000000000000000000e+00,2.000000000000000000e+00,-1.000000000000000000e+00,-3.000000000000000000e+00,-2.000000000000000000e+00,-2.592773437500000000e-01,4.440307617187500000e-01,2.384033203125000000e-01,8.238525390625000000e-01
0.000000000000000000e+00,2.000000000000000000e+00,8.000000000000000000e+00,1.000000000000000000e+01,4.000000000000000000e+00,0.000000000000000000e+00,-3.000000000000000000e+00,-1.000000000000000000e+00,-2.595214843750000000e-01,4.441528320312500000e-01,2.384033203125000000e-01,8.236694335937500000e-01
-1.000000000000000000e+00,-2.000000000000000000e+00,-7.000000000000000000e+00,-2.000000000000000000e+00,-5.000000000000000000e+00,-2.000000000000000000e+00,-2.000000000000000000e+00,0.000000000000000000e+00,-2.595214843750000000e-01,4.441528320312500000e-01,2.384033203125000000e-01,8.236694335937500000e-01
-1.000000000000000000e+00,-4.000000000000000000e+00,2.000000000000000000e+00,0.000000000000000000e+00,-5.000000000000000000e+00,-3.000000000000000000e+00,2.000000000000000000e+00,0.000000000000000000e+00,-2.595214843750000000e-01,4.441528320312500000e-01,2.384033203125000000e-01,8.236694335937500000e-01
-1.000000000000000000e+00,1.000000000000000000e+00,1.700000000000000000e+01,4.000000000000000000e+00,-7.000000000000000000e+00,-2.000000000000000000e+00,-1.000000000000000000e+00,-1.000000000000000000e+00,-2.595214843750000000e-01,4.441528320312500000e-01,2.384033203125000000e-01,8.236694335937500000e-01
0.000000000000000000e+00,0.000000000000000000e+00,-4.000000000000000000e+00,-1.900000000000000000e+01,-8.000000000000000000e+00,-2.000000000000000000e+00,1.000000000000000000e+00,-1.000000000000000000e+00,-2.596435546875000000e-01,4.443359375000000000e-01,2.386474609375000000e-01,8.234863281250000000e-01
-2.000000000000000000e+00,1.000000000000000000e+00,1.000000000000000000e+00,4.000000000000000000e+00,1.500000000000000000e+01,4.000000000000000000e+00,-3.000000000000000000e+00,-2.000000000000000000e+00,-2.596435546875000000e-01,4.443359375000000000e-01,2.386474609375000000e-01,8.234863281250000000e-01
-3.000000000000000000e+00,-2.000000000000000000e+00,-6.000000000000000000e+00,1.000000000000000000e+00,4.000000000000000000e+00,-4.000000000000000000e+00,-1.000000000000000000e+00,-1.000000000000000000e+00,-2.596435546875000000e-01,4.443359375000000000e-01,2.386474609375000000e-01,8.234863281250000000e-01
0.000000000000000000e+00,1.000000000000000000e+00,1.300000000000000000e+01,1.000000000000000000e+00,-4.000000000000000000e+00,0.000000000000000000e+00,-1.000000000000000000e+00,0.000000000000000000e+00,-2.596435546875000000e-01,4.443359375000000000e-01,2.386474609375000000e-01,8.234863281250000000e-01
0.000000000000000000e+00,1.000000000000000000e+00,-1.200000000000000000e+01,4.000000000000000000e+00,0.000000000000000000e+00,2.000000000000000000e+00,2.000000000000000000e+00,1.000000000000000000e+00,-2.600097656250000000e-01,4.442138671875000000e-01,2.388305664062500000e-01,8.234252929687500000e-01
4.000000000000000000e+00,-1.000000000000000000e+00,-6.000000000000000000e+00,-7.000000000000000000e+00,-1.100000000000000000e+01,-8.000000000000000000e+00,-1.000000000000000000e+00,0.000000000000000000e+00,-2.600097656250000000e-01,4.442138671875000000e-01,2.388305664062500000e-01,8.234252929687500000e-01
-2.000000000000000000e+00,-5.000000000000000000e+00,-4.000000000000000000e+00,-2.000000000000000000e+00,0.000000000000000000e+00,-3.000000000000000000e+00,-7.000000000000000000e+00,0.000000000000000000e+00,-2.600097656250000000e-01,4.442138671875000000e-01,2.388305664062500000e-01,8.234252929687500000e-01
-1.000000000000000000e+00,0.000000000000000000e+00,7.000000000000000000e+00,-1.000000000000000000e+00,-1.000000000000000000e+00,-2.000000000000000000e+00,0.000000000000000000e+00,-1.000000000000000000e+00,-2.600097656250000000e-01,4.442138671875000000e-01,2.388305664062500000e-01,8.234252929687500000e-01
-2.000000000000000000e+00,-2.000000000000000000e+00,7.000000000000000000e+00,3.000000000000000000e+00,3.000000000000000000e+00,-1.000000000000000000e+00,-3.000000000000000000e+00,-2.000000000000000000e+00,-2.602539062500000000e-01,4.439697265625000000e-01,2.390136718750000000e-01,8.233642578125000000e-01
-1.000000000000000000e+00,1.000000000000000000e+00,7.000000000000000000e+00,5.000000000000000000e+00,-1.000000000000000000e+00,-7.000000000000000000e+00,-2.000000000000000000e+00,-2.000000000000000000e+00,-2.602539062500000000e-01,4.439697265625000000e-01,2.390136718750000000e-01,8.233642578125000000e-01
-1.000000000000000000e+00,-7.000000000000000000e+00,-3.700000000000000000e+01,-1.700000000000000000e+01,-6.000000000000000000e+00,1.200000000000000000e+01,1.000000000000000000e+01,0.000000000000000000e+00,-2.602539062500000000e-01,4.439697265625000000e-01,2.390136718750000000e-01,8.233642578125000000e-01
0.000000000000000000e+00,-2.000000000000000000e+00,-7.000000000000000000e+00,2.000000000000000000e+00,1.000000000000000000e+01,0.000000000000000000e+00,-3.000000000000000000e+00,0.000000000000000000e+00,-2.602539062500000000e-01,4.439697265625000000e-01,2.390136718750000000e-01,8.233642578125000000e-01
-1.000000000000000000e+00,0.000000000000000000e+00,-1.000000000000000000e+00,-9.000000000000000000e+00,-1.000000000000000000e+00,2.000000000000000000e+00,-1.000000000000000000e+00,-2.000000000000000000e+00,-2.604370117187500000e-01,4.436035156250000000e-01,2.393798828125000000e-01,8.234252929687500000e-01
-1.000000000000000000e+00,-2.000000000000000000e+00,4.000000000000000000e+00,9.000000000000000000e+00,-2.000000000000000000e+00,-4.000000000000000000e+00,-6.000000000000000000e+00,-1.000000000000000000e+00,-2.604370117187500000e-01,4.436035156250000000e-01,2.393798828125000000e-01,8.234252929687500000e-01
1.000000000000000000e+00,1.000000000000000000e+00,1.700000000000000000e+01,1.800000000000000000e+01,1.800000000000000000e+01,-1.000000000000000000e+00,-3.000000000000000000e+00,-2.000000000000000000e+00,-2.604370117187500000e-01,4.436035156250000000e-01,2.393798828125000000e-01,8.234252929687500000e-01
1.000000000000000000e+00,1.000000000000000000e+00,-3.000000000000000000e+00,-2.000000000000000000e+00,-2.000000000000000000e+00,0.000000000000000000e+00,-1.000000000000000000e+00,1.000000000000000000e+00,-2.604370117187500000e-01,4.436035156250000000e-01,2.393798828125000000e-01,8.234252929687500000e-01
-3.000000000000000000e+00,-4.000000000000000000e+00,-1.400000000000000000e+01,2.000000000000000000e+00,4.000000000000000000e+00,-1.000000000000000000e+00,-1.000000000000000000e+00,-2.000000000000000000e+00,-2.606201171875000000e-01,4.431762695312500000e-01,2.396240234375000000e-01,8.235473632812500000e-01
-2.000000000000000000e+00,-3.000000000000000000e+00,-5.000000000000000000e+00,-1.300000000000000000e+01,-1.300000000000000000e+01,-5.000000000000000000e+00,-3.000000000000000000e+00,0.000000000000000000e+00,-2.606201171875000000e-01,4.431762695312500000e-01,2.396240234375000000e-01,8.235473632812500000e-01
-1.000000000000000000e+00,1.000000000000000000e+00,3.000000000000000000e+00,5.000000000000000000e+00,-5.000000000000000000e+00,-3.000000000000000000e+00,-1.000000000000000000e+00,-2.000000000000000000e+00,-2.606201171875000000e-01,4.431762695312500000e-01,2.396240234375000000e-01,8.235473632812500000e-01
-2.000000000000000000e+00,-1.000000000000000000e+00,3.000000000000000000e+00,-2.200000000000000000e+01,-8.000000000000000000e+00,0.000000000000000000e+00,-1.000000000000000000e+00,-3.000000000000000000e+00,-2.606201171875000000e-01,4.431762695312500000e-01,2.396240234375000000e-01,8.235473632812500000e-01
-1.000000000000000000e+00,-1.000000000000000000e+00,5.000000000000000000e+00,1.800000000000000000e+01,1.300000000000000000e+01,-1.000000000000000000e+00,2.000000000000000000e+00,-1.000000000000000000e+00,-2.609252929687500000e-01,4.425659179687500000e-01,2.399291992187500000e-01,8.236694335937500000e-01
0.000000000000000000e+00,3.000000000000000000e+00,7.000000000000000000e+00,-9.000000000000000000e+00,-5.000000000000000000e+00,1.000000000000000000e+00,0.000000000000000000e+00,-1.000000000000000000e+00,-2.609252929687500000e-01,4.425659179687500000e-01,2.399291992187500000e-01,8.236694335937500000e-01
-1.000000000000000000e+00,-2.000000000000000000e+00,3.000000000000000000e+00,-5.000000000000000000e+00,-1.000000000000000000e+00,-3.000000000000000000e+00,3.000000000000000000e+00,-1.000000000000000000e+00,-2.609252929687500000e-01,4.425659179687500000e-01,2.399291992187500000e-01,8.236694335937500000e-01
0.000000000000000000e+00,0.000000000000000000e+00,-5.000000000000000000e+00,2.000000000000000000e+00,-1.000000000000000000e+00,-4.000000000000000000e+00,-3.000000000000000000e+00,-2.000000000000000000e+00,-2.609252929687500000e-01,4.425659179687500000e-01,2.399291992187500000e-01,8.236694335937500000e-01
-1.000000000000000000e+00,-5.000000000000000000e+00,-7.000000000000000000e+00,-5.000000000000000000e+00,-7.000000000000000000e+00,-1.000000000000000000e+00,-4.000000000000000000e+00,-1.000000000000000000e+00,-2.611694335937500000e-01,4.417724609375000000e-01,2.401733398437500000e-01,8.239135742187500000e-01
-2.000000000000000000e+00,-2.000000000000000000e+00,0.000000000000000000e+00,5.000000000000000000e+00,1.000000000000000000e+00,0.000000000000000000e+00,0.000000000000000000e+00,1.000000000000000000e+00,-2.611694335937500000e-01,4.417724609375000000e-01,2.401733398437500000e-01,8.239135742187500000e-01
-1.000000000000000000e+00,1.000000000000000000e+00,-1.000000000000000000e+00,1.000000000000000000e+00,-3.000000000000000000e+00,-4.000000000000000000e+00,-2.000000000000000000e+00,0.000000000000000000e+00,-2.611694335937500000e-01,4.417724609375000000e-01,2.401733398437500000e-01,8.239135742187500000e-01
0.000000000000000000e+00,0.000000000000000000e+00,-9.000000000000000000e+00,-1.200000000000000000e+01,-3.000000000000000000e+00,0.000000000000000000e+00,-6.000000000000000000e+00,-2.000000000000000000e+00,-2.611694335937500000e-01,4.417724609375000000e-01,2.401733398437500000e-01,8.239135742187500000e-01
-3.000000000000000000e+00,-1.000000000000000000e+00,-7.000000000000000000e+00,-3.000000000000000000e+00,-5.000000000000000000e+00,-3.000000000000000000e+00,3.000000000000000000e+00,0.000000000000000000e+00,-2.617797851562500000e-01,4.409179687500000000e-01,2.406616210937500000e-01,8.240356445312500000e-01
-1.000000000000000000e+00,0.000000000000000000e+00,-3.000000000000000000e+00,-2.000000000000000000e+00,0.000000000000000000e+00,-1.000000000000000000e+00,-1.000000000000000000e+00,-2.000000000000000000e+00,-2.617797851562500000e-01,4.409179687500000000e-01,2.406616210937500000e-01,8.240356445312500000e-01
-1.000000000000000000e+00,0.000000000000000000e+00,2.000000000000000000e+00,1.200000000000000000e+01,1.000000000000000000e+00,-1.000000000000000000e+00,-2.000000000000000000e+00,1.000000000000000000e+00,-2.617797851562500000e-01,4.409179687500000000e-01,2.406616210937500000e-01,8.240356445312500000e-01
-2.000000000000000000e+00,-3.000000000000000000e+00,3.000000000000000000e+00,2.000000000000000000e+00,0.000000000000000000e+00,-3.000000000000000000e+00,0.000000000000000000e+00,-1.000000000000000000e+00,-2.617797851562500000e-01,4.409179687500000000e-01,2.406616210937500000e-01,8.240356445312500000e-01
0.000000000000000000e+00,-3.000000000000000000e+00,-1.600000000000000000e+01,-5.000000000000000000e+00,-2.000000000000000000e+00,0.000000000000000000e+00,-1.000000000000000000e+00,1.000000000000000000e+00,-2.625122070312500000e-01,4.400024414062500000e-01,2.411499023437500000e-01,8.241577148437500000e-01
-2.000000000000000000e+00,-3.000000000000000000e+00,-1.100000000000000000e+01,-2.000000000000000000e+00,-7.000000000000000000e+00,-5.000000000000000000e+00,-2.000000000000000000e+00,-3.000000000000000000e+00,-2.625122070312500000e-01,4.400024414062500000e-01,2.411499023437500000e-01,8.241577148437500000e-01
-3.000000000000000000e+00,-4.000000000000000000e+00,-8.000000000000000000e+00,-1.600000000000000000e+01,-1.300000000000000000e+01,-2.000000000000000000e+00,-1.000000000000000000e+00,-3.000000000000000000e+00,-2.625122070312500000e-01,4.400024414062500000e-01,2.411499023437500000e-01,8.241577148437500000e-01
-2.000000000000000000e+00,2.000000000000000000e+00,7.000000000000000000e+00,2.000000000000000000e+00,1.000000000000000000e+00,1.000000000000000000e+00,1.000000000000000000e+00,-1.000000000000000000e+00,-2.625122070312500000e-01,4.400024414062500000e-01,2.411499023437500000e-01,8.241577148437500000e-01
-1.000000000000000000e+00,-2.000000000000000000e+00,7.000000000000000000e+00,1.200000000000000000e+01,1.400000000000000000e+01,1.000000000000000000e+00,-1.000000000000000000e+00,-3.000000000000000000e+00,-2.630615234375000000e-01,4.393310546875000000e-01,2.413940429687500000e-01,8.242797851562500000e-01
1.000000000000000000e+00,-3.000000000000000000e+00,-9.000000000000000000e+00,-3.000000000000000000e+00,-3.000000000000000000e+00,0.000000000000000000e+00,-2.000000000000000000e+00,-1.000000000000000000e+00,-2.630615234375000000e-01,4.393310546875000000e-01,2.413940429687500000e-01,8.242797851562500000e-01
0.000000000000000000e+00,2.000000000000000000e+00,9.000000000000000000e+00,1.100000000000000000e+01,-4.000000000000000000e+00,0.000000000000000000e+00,0.000000000000000000e+00,-1.000000000000000000e+00,-2.630615234375000000e-01,4.393310546875000000e-01,2.413940429687500000e-01,8.242797851562500000e-01
1.000000000000000000e+00,2.000000000000000000e+00,1.000000000000000000e+00,7.000000000000000000e+00,1.100000000000000000e+01,1.000000000000000000e+00,0.000000000000000000e+00,1.000000000000000000e+00,-2.630615234375000000e-01,4.393310546875000000e-01,2.413940429687500000e-01,8.242797851562500000e-01
-3.000000000000000000e+00,-4.000000000000000000e+00,-1.600000000000000000e+01,-1.200000000000000000e+01,-1.000000000000000000e+01,-3.000000000000000000e+00,-2.000000000000000000e+00,-1.000000000000000000e+00,-2.634887695312500000e-01,4.387207031250000000e-01,2.415771484375000000e-01,8.244018554687500000e-01
-3.000000000000000000e+00,-3.000000000000000000e+00,-1.700000000000000000e+01,0.000000000000000000e+00,-6.000000000000000000e+00,-2.000000000000000000e+00,-2.000000000000000000e+00,-2.000000000000000000e+00,-2.634887695312500000e-01,4.387207031250000000e-01,2.415771484375000000e-01,8.244018554687500000e-01
-1.000000000000000000e+00,0.000000000000000000e+00,2.000000000000000000e+00,-1.000000000000000000e+00,7.000000000000000000e+00,2.000000000000000000e+00,-3.000000000000000000e+00,0.000000000000000000e+00,-2.634887695312500000e-01,4.387207031250000000e-01,2.415771484375000000e-01,8.244018554687500000e-01
1.000000000000000000e+00,-1.000000000000000000e+00,0.000000000000000000e+00,3.000000000000000000e+00,-1.000000000000000000e+00,-3.000000000000000000e+00,-5.000000000000000000e+00,0.000000000000000000e+00,-2.634887695312500000e-01,4.387207031250000000e-01,2.415771484375000000e-01,8.244018554687500000e-01
0.000000000000000000e+00,0.000000000000000000e+00,6.000000000000000000e+00,-4.000000000000000000e+00,2.000000000000000000e+00,2.000000000000000000e+00,5.000000000000000000e+00,1.000000000000000000e+00,-2.642211914062500000e-01,4.381713867187500000e-01,2.418212890625000000e-01,8.244018554687500000e-01
-1.000000000000000000e+00,-2.000000000000000000e+00,7.000000000000000000e+00,2.000000000000000000e+00,3.000000000000000000e+00,-1.000000000000000000e+00,-3.000000000000000000e+00,-1.000000000000000000e+00,-2.642211914062500000e-01,4.381713867187500000e-01,2.418212890625000000e-01,8.244018554687500000e-01
0.000000000000000000e+00,-2.000000000000000000e+00,-9.000000000000000000e+00,-9.000000000000000000e+00,0.000000000000000000e+00,9.000000000000000000e+00,7.000000000000000000e+00,1.000000000000000000e+00,-2.642211914062500000e-01,4.381713867187500000e-01,2.418212890625000000e-01,8.244018554687500000e-01
-2.000000000000000000e+00,-2.000000000000000000e+00,-5.000000000000000000e+00,-3.000000000000000000e+00,-7.000000000000000000e+00,-5.000000000000000000e+00,-1.000000000000000000e+00,-1.000000000000000000e+00,-2.642211914062500000e-01,4.381713867187500000e-01,2.418212890625000000e-01,8.244018554687500000e-01
0.000000000000000000e+00,-1.000000000000000000e+00,3.000000000000000000e+00,1.000000000000000000e+00,3.000000000000000000e+00,-2.000000000000000000e+00,-4.000000000000000000e+00,-3.000000000000000000e+00,-2.647705078125000000e-01,4.378662109375000000e-01,2.419433593750000000e-01,8.243408203125000000e-01
-2.000000000000000000e+00,-1.000000000000000000e+00,5.000000000000000000e+00,2.000000000000000000e+00,2.000000000000000000e+00,-2.000000000000000000e+00,1.000000000000000000e+00,0.000000000000000000e+00,-2.647705078125000000e-01,4.378662109375000000e-01,2.419433593750000000e-01,8.243408203125000000e-01
-1.000000000000000000e+00,2.000000000000000000e+00,1.000000000000000000e+00,-1.300000000000000000e+01,-2.000000000000000000e+00,-5.000000000000000000e+00,-1.000000000000000000e+00,-1.000000000000000000e+00,-2.647705078125000000e-01,4.378662109375000000e-01,2.419433593750000000e-01,8.243408203125000000e-01
0.000000000000000000e+00,0.000000000000000000e+00,-1.300000000000000000e+01,4.000000000000000000e+00,1.000000000000000000e+00,1.000000000000000000e+00,2.000000000000000000e+00,0.000000000000000000e+00,-2.647705078125000000e-01,4.378662109375000000e-01,2.419433593750000000e-01,8.243408203125000000e-01
0.000000000000000000e+00,-1.000000000000000000e+00,3.000000000000000000e+00,-3.000000000000000000e+00,-7.000000000000000000e+00,-5.000000000000000000e+00,-3.000000000000000000e+00,-1.000000000000000000e+00,-2.650146484375000000e-01,4.378662109375000000e-01,2.418823242187500000e-01,8.242797851562500000e-01
-1.000000000000000000e+00,0.000000000000000000e+00,-5.000000000000000000e+00,-5.000000000000000000e+00,4.000000000000000000e+00,3.000000000000000000e+00,-1.000000000000000000e+00,-1.000000000000000000e+00,-2.650146484375000000e-01,4.378662109375000000e-01,2.418823242187500000e-01,8.242797851562500000e-01
-1.000000000000000000e+00,-3.000000000000000000e+00,2.000000000000000000e+00,-6.000000000000000000e+00,-2.000000000000000000e+00,-3.000000000000000000e+00,-4.000000000000000000e+00,-1.000000000000000000e+00,-2.650146484375000000e-01,4.378662109375000000e-01,2.418823242187500000e-01,8.242797851562500000e-01
-2.000000000000000000e+00,-1.000000000000000000e+00,1.000000000000000000e+00,-1.600000000000000000e+01,-1.400000000000000000e+01,-3.000000000000000000e+00,-2.000000000000000000e+00,0.000000000000000000e+00,-2.650146484375000000e-01,4.378662109375000000e-01,2.418823242187500000e-01,8.242797851562500000e-01
0.000000000000000000e+00,0.000000000000000000e+00,3.000000000000000000e+00,9.000000000000000000e+00,9.000000000000000000e+00,2.000000000000000000e+00,0.000000000000000000e+00,-1.000000000000000000e+00,-2.654418945312500000e-01,4.379272460937500000e-01,2.418823242187500000e-01,8.240966796875000000e-01
1.000000000000000000e+00,-2.000000000000000000e+00,1.000000000000000000e+00,0.000000000000000000e+00,2.000000000000000000e+00,1.000000000000000000e+00,1.000000000000000000e+00,0.000000000000000000e+00,-2.654418945312500000e-01,4.379272460937500000e-01,2.418823242187500000e-01,8.240966796875000000e-01
-1.000000000000000000e+00,-1.000000000000000000e+00,2.000000000000000000e+00,-4.000000000000000000e+00,0.000000000000000000e+00,-2.000000000000000000e+00,-4.000000000000000000e+00,-2.000000000000000000e+00,-2.654418945312500000e-01,4.379272460937500000e-01,2.418823242187500000e-01,8.240966796875000000e-01
0.000000000000000000e+00,-3.000000000000000000e+00,1.000000000000000000e+00,0.000000000000000000e+00,-3.000000000000000000e+00,-1.000000000000000000e+00,0.000000000000000000e+00,-1.000000000000000000e+00,-2.654418945312500000e-01,4.379272460937500000e-01,2.418823242187500000e-01,8.240966796875000000e-01
-2.000000000000000000e+00,-1.000000000000000000e+00,0.000000000000000000e+00,1.000000000000000000e+00,-3.000000000000000000e+00,-2.000000000000000000e+00,-5.000000000000000000e+00,0.000000000000000000e+00,-2.659912109375000000e-01,4.381713867187500000e-01,2.420043945312500000e-01,8.237915039062500000e-01
-3.000000000000000000e+00,0.000000000000000000e+00,5.000000000000000000e+00,-2.000000000000000000e+00,-5.000000000000000000e+00,1.000000000000000000e+00,-1.000000000000000000e+00,0.000000000000000000e+00,-2.659912109375000000e-01,4.381713867187500000e-01,2.420043945312500000e-01,8.237915039062500000e-01
-1.000000000000000000e+00,-1.000000000000000000e+00,2.000000000000000000e+00,6.000000000000000000e+00,0.000000000000000000e+00,-2.000000000000000000e+00,3.000000000000000000e+00,1.000000000000000000e+00,-2.659912109375000000e-01,4.381713867187500000e-01,2.420043945312500000e-01,8.237915039062500000e-01
-1.000000000000000000e+00,-1.000000000000000000e+00,5.000000000000000000e+00,-3.000000000000000000e+00,1.000000000000000000e+00,-3.000000000000000000e+00,2.000000000000000000e+00,-2.000000000000000000e+00,-2.659912109375000000e-01,4.381713867187500000e-01,2.420043945312500000e-01,8.237915039062500000e-01
-1.000000000000000000e+00,1.000000000000000000e+00,8.000000000000000000e+00,5.000000000000000000e+00,-2.000000000000000000e+00,2.000000000000000000e+00,-2.000000000000000000e+00,-1.000000000000000000e+00,-2.666625976562500000e-01,4.382324218750000000e-01,2.424316406250000000e-01,8.234252929687500000e-01
1.000000000000000000e+00,-2.000000000000000000e+00,-4.000000000000000000e+00,-6.000000000000000000e+00,4.000000000000000000e+00,5.000000000000000000e+00,5.000000000000000000e+00,0.000000000000000000e+00,-2.666625976562500000e-01,4.382324218750000000e-01,2.424316406250000000e-01,8.234252929687500000e-01
-1.000000000000000000e+00,-2.000000000000000000e+00,7.000000000000000000e+00,-1.000000000000000000e+00,-3.000000000000000000e+00,-3.000000000000000000e+00,-5.000000000000000000e+00,0.000000000000000000e+00,-2.666625976562500000e-01,4.382324218750000000e-01,2.424316406250000000e-01,8.234252929687500000e-01
-3.000000000000000000e+00,-3.000000000000000000e+00,2.000000000000000000e+00,1.100000000000000000e+01,2.000000000000000000e+00,1.000000000000000000e+00,0.000000000000000000e+00,-3.000000000000000000e+00,-2.666625976562500000e-01,4.382324218750000000e-01,2.424316406250000000e-01,8.234252929687500000e-01
0.000000000000000000e+00,0.000000000000000000e+00,-1.200000000000000000e+01,0.000000000000000000e+00,-3.000000000000000000e+00,-4.000000000000000000e+00,-3.000000000000000000e+00,-2.000000000000000000e+00,-2.675781250000000000e-01,4.382324218750000000e-01,2.430419921875000000e-01,8.229370117187500000e-01
-1.000000000000000000e+00,-3.000000000000000000e+00,-4.000000000000000000e+00,-2.000000000000000000e+00,-3.000000000000000000e+00,-5.000000000000000000e+00,1.000000000000000000e+00,-1.000000000000000000e+00,-2.675781250000000000e-01,4.382324218750000000e-01,2.430419921875000000e-01,8.229370117187500000e-01
0.000000000000000000e+00,0.000000000000000000e+00,2.000000000000000000e+00,4.000000000000000000e+00,2.000000000000000000e+00,2.000000000000000000e+00,1.000000000000000000e+00,-1.000000000000000000e+00,-2.675781250000000000e-01,4.382324218750000000e-01,2.430419921875000000e-01,8.229370117187500000e-01
0.000000000000000000e+00,-2.000000000000000000e+00,5.000000000000000000e+00,-1.000000000000000000e+01,-4.000000000000000000e+00,-3.000000000000000000e+00,-2.000000000000000000e+00,-2.000000000000000000e+00,-2.675781250000000000e-01,4.382324218750000000e-01,2.430419921875000000e-01,8.229370117187500000e-01
0.000000000000000000e+00,2.000000000000000000e+00,8.000000000000000000e+00,2.400000000000000000e+01,9.000000000000000000e+00,-1.000000000000000000e+00,-2.000000000000000000e+00,1.000000000000000000e+00,-2.681274414062500000e-01,4.383544921875000000e-01,2.433471679687500000e-01,8.226318359375000000e-01
-1.000000000000000000e+00,-4.000000000000000000e+00,-1.500000000000000000e+01,-1.600000000000000000e+01,-3.000000000000000000e+00,1.000000000000000000e+00,0.000000000000000000e+00,-1.000000000000000000e+00,-2.681274414062500000e-01,4.383544921875000000e-01,2.433471679687500000e-01,8.226318359375000000e-01
-5.000000000000000000e+00,-4.000000000000000000e+00,-6.000000000000000000e+00,-2.000000000000000000e+00,-4.000000000000000000e+00,-1.000000000000000000e+00,1.000000000000000000e+00,-3.000000000000000000e+00,-2.681274414062500000e-01,4.383544921875000000e-01,2.433471679687500000e-01,8.226318359375000000e-01
0.000000000000000000e+00,0.000000000000000000e+00,-2.000000000000000000e+01,-1.000000000000000000e+01,6.000000000000000000e+00,0.000000000000000000e+00,1.000000000000000000e+00,-1.000000000000000000e+00,-2.681274414062500000e-01,4.383544921875000000e-01,2.433471679687500000e-01,8.226318359375000000e-01
0.000000000000000000e+00,-4.000000000000000000e+00,-5.000000000000000000e+00,-1.000000000000000000e+01,-7.000000000000000000e+00,-2.000000000000000000e+00,0.000000000000000000e+00,-3.000000000000000000e+00,-2.683105468750000000e-01,4.385375976562500000e-01,2.434692382812500000e-01,8.223876953125000000e-01
-1.000000000000000000e+00,2.000000000000000000e+00,6.000000000000000000e+00,1.500000000000000000e+01,1.000000000000000000e+00,-2.000000000000000000e+00,-3.000000000000000000e+00,0.000000000000000000e+00,-2.683105468750000000e-01,4.385375976562500000e-01,2.434692382812500000e-01,8.223876953125000000e-01
0.000000000000000000e+00,-2.000000000000000000e+00,6.000000000000000000e+00,-4.000000000000000000e+00,-2.000000000000000000e+00,-3.000000000000000000e+00,-6.000000000000000000e+00,-1.000000000000000000e+00,-2.683105468750000000e-01,4.385375976562500000e-01,2.434692382812500000e-01,8.223876953125000000e-01
-4.000000000000000000e+00,-3.000000000000000000e+00,-7.000000000000000000e+00,4.000000000000000000e+00,0.000000000000000000e+00,1.000000000000000000e+00,-2.000000000000000000e+00,-2.000000000000000000e+00,-2.683105468750000000e-01,4.385375976562500000e-01,2.434692382812500000e-01,8.223876953125000000e-01
0.000000000000000000e+00,3.000000000000000000e+00,2.000000000000000000e+00,-4.000000000000000000e+00,-5.000000000000000000e+00,0.000000000000000000e+00,5.000000000000000000e+00,0.000000000000000000e+00,-2.684936523437500000e-01,4.385375976562500000e-01,2.436523437500000000e-01,8.222656250000000000e-01
1.000000000000000000e+00,0.000000000000000000e+00,1.000000000000000000e+00,0.000000000000000000e+00,0.000000000000000000e+00,-1.100000000000000000e+01,-1.000000000000000000e+01,-2.000000000000000000e+00,-2.684936523437500000e-01,4.385375976562500000e-01,2.436523437500000000e-01,8.222656250000000000e-01
-1.000000000000000000e+00,1.000000000000000000e+00,-6.000000000000000000e+00,-5.000000000000000000e+00,-2.000000000000000000e+00,2.000000000000000000e+00,0.000000000000000000e+00,-2.000000000000000000e+00,-2.684936523437500000e-01,4.385375976562500000e-01,2.436523437500000000e-01,8.222656250000000000e-01
0.000000000000000000e+00,-1.000000000000000000e+00,7.000000000000000000e+00,8.000000000000000000e+00,-1.000000000000000000e+00,2.000000000000000000e+00,2.000000000000000000e+00,-2.000000000000000000e+00,-2.684936523437500000e-01,4.385375976562500000e-01,2.436523437500000000e-01,8.222656250000000000e-01
-1.000000000000000000e+00,-2.000000000000000000e+00,5.000000000000000000e+00,-3.000000000000000000e+00,3.000000000000000000e+00,1.000000000000000000e+00,2.000000000000000000e+00,2.000000000000000000e+00,-2.686767578125000000e-01,4.382934570312500000e-01,2.438964843750000000e-01,8.222656250000000000e-01
-3.000000000000000000e+00,-5.000000000000000000e+00,-2.500000000000000000e+01,-1.600000000000000000e+01,-6.000000000000000000e+00,1.000000000000000000e+00,1.000000000000000000e+00,-1.000000000000000000e+00,-2.686767578125000000e-01,4.382934570312500000e-01,2.438964843750000000e-01,8.222656250000000000e-01
-1.000000000000000000e+00,0.000000000000000000e+00,3.000000000000000000e+00,2.000000000000000000e+00,-2.000000000000000000e+00,-7.000000000000000000e+00,-4.000000000000000000e+00,-1.000000000000000000e+00,-2.686767578125000000e-01,4.382934570312500000e-01,2.438964843750000000e-01,8.222656250000000000e-01
0.000000000000000000e+00,-2.000000000000000000e+00,-1.100000000000000000e+01,-9.000000000000000000e+00,-8.000000000000000000e+00,-2.000000000000000000e+00,-4.000000000000000000e+00,-1.000000000000000000e+00,-2.686767578125000000e-01,4.382934570312500000e-01,2.438964843750000000e-01,8.222656250000000000e-01
-1.000000000000000000e+00,0.000000000000000000e+00,5.000000000000000000e+00,2.000000000000000000e+00,8.000000000000000000e+00,2.000000000000000000e+00,1.000000000000000000e+00,-3.000000000000000000e+00,-2.689819335937500000e-01,4.379882812500000000e-01,2.442016601562500000e-01,8.222656250000000000e-01
-1.000000000000000000e+00,1.000000000000000000e+00,1.300000000000000000e+01,2.000000000000000000e+00,-4.000000000000000000e+00,-2.000000000000000000e+00,-1.000000000000000000e+00,-1.000000000000000000e+00,-2.689819335937500000e-01,4.379882812500000000e-01,2.442016601562500000e-01,8.222656250000000000e-01
0.000000000000000000e+00,-1.000000000000000000e+00,-1.000000000000000000e+01,-1.000000000000000000e+00,4.000000000000000000e+00,0.000000000000000000e+00,0.000000000000000000e+00,1.000000000000000000e+00,-2.689819335937500000e-01,4.379882812500000000e-01,2.442016601562500000e-01,8.222656250000000000e-01
0.000000000000000000e+00,0.000000000000000000e+00,-6.000000000000000000e+00,8.000000000000000000e+00,1.500000000000000000e+01,2.000000000000000000e+00,-1.000000000000000000e+00,0.000000000000000000e+00,-2.689819335937500000e-01,4.379882812500000000e-01,2.442016601562500000e-01,8.222656250000000000e-01
-4.000000000000000000e+00,-6.000000000000000000e+00,4.000000000000000000e+00,0.000000000000000000e+00,-9.000000000000000000e+00,-1.000000000000000000e+00,-3.000000000000000000e+00,-3.000000000000000000e+00,-2.692871093750000000e-01,4.376220703125000000e-01,2.443847656250000000e-01,8.222656250000000000e-01
1.000000000000000000e+00,2.000000000000000000e+00,0.000000000000000000e+00,-3.000000000000000000e+00,9.000000000000000000e+00,3.000000000000000000e+00,1.000000000000000000e+00,0.000000000000000000e+00,-2.692871093750000000e-01,4.376220703125000000e-01,2.443847656250000000e-01,8.222656250000000000e-01
-2.000000000000000000e+00,0.000000000000000000e+00,6.000000000000000000e+00,-1.000000000000000000e+01,-6.000000000000000000e+00,-2.000000000000000000e+00,0.000000000000000000e+00,-2.000000000000000000e+00,-2.692871093750000000e-01,4.376220703125000000e-01,2.443847656250000000e-01,8.222656250000000000e-01
0.000000000000000000e+00,-3.000000000000000000e+00,-1.800000000000000000e+01,-2.000000000000000000e+00,-3.000000000000000000e+00,-4.000000000000000000e+00,-3.000000000000000000e+00,-2.000000000000000000e+00,-2.692871093750000000e-01,4.376220703125000000e-01,2.443847656250000000e-01,8.222656250000000000e-01
0.000000000000000000e+00,3.000000000000000000e+00,-6.000000000000000000e+00,-7.000000000000000000e+00,-2.000000000000000000e+00,-2.000000000000000000e+00,-5.000000000000000000e+00,-2.000000000000000000e+00,-2.697143554687500000e-01,4.370727539062500000e-01,2.445678710937500000e-01,8.223876953125000000e-01
-2.000000000000000000e+00,-2.000000000000000000e+00,1.400000000000000000e+01,1.400000000000000000e+01,0.000000000000000000e+00,0.000000000000000000e+00,0.000000000000000000e+00,-1.000000000000000000e+00,-2.697143554687500000e-01,4.370727539062500000e-01,2.445678710937500000e-01,8.223876953125000000e-01
-2.000000000000000000e+00,-6.000000000000000000e+00,-1.400000000000000000e+01,-8.000000000000000000e+00,-5.000000000000000000e+00,-5.000000000000000000e+00,-4.000000000000000000e+00,-3.000000000000000000e+00,-2.697143554687500000e-01,4.370727539062500000e-01,2.445678710937500000e-01,8.223876953125000000e-01
-1.000000000000000000e+00,-1.000000000000000000e+00,4.000000000000000000e+00,-1.000000000000000000e+00,0.000000000000000000e+00,-4.000000000000000000e+00,-2.000000000000000000e+00,0.000000000000000000e+00,-2.697143554687500000e-01,4.370727539062500000e-01,2.445678710937500000e-01,8.223876953125000000e-01
1.000000000000000000e+00,-1.000000000000000000e+00,5.000000000000000000e+00,-4.000000000000000000e+00,0.000000000000000000e+00,3.000000000000000000e+00,4.000000000000000000e+00,1.000000000000000000e+00,-2.703247070312500000e-01,4.364013671875000000e-01,2.448120117187500000e-01,8.224487304687500000e-01
-2.000000000000000000e+00,-2.000000000000000000e+00,-1.400000000000000000e+01,-1.000000000000000000e+00,-2.000000000000000000e+00,2.000000000000000000e+00,1.000000000000000000e+00,-2.000000000000000000e+00,-2.703247070312500000e-01,4.364013671875000000e-01,2.448120117187500000e-01,8.224487304687500000e-01
2.000000000000000000e+00,1.000000000000000000e+00,2.000000000000000000e+00,2.000000000000000000e+00,0.000000000000000000e+00,-2.000000000000000000e+00,2.000000000000000000e+00,0.000000000000000000e+00,-2.703247070312500000e-01,4.364013671875000000e-01,2.448120117187500000e-01,8.224487304687500000e-01
-1.000000000000000000e+00,-1.000000000000000000e+00,-1.000000000000000000e+00,-3.000000000000000000e+00,-2.000000000000000000e+00,-7.000000000000000000e+00,-3.000000000000000000e+00,0.000000000000000000e+00,-2.703247070312500000e-01,4.364013671875000000e-01,2.448120117187500000e-01,8.224487304687500000e-01
-2.000000000000000000e+00,-3.000000000000000000e+00,-1.700000000000000000e+01,-1.000000000000000000e+01,-1.000000000000000000e+00,5.000000000000000000e+00,-1.000000000000000000e+00,-1.000000000000000000e+00,-2.709960937500000000e-01,4.357910156250000000e-01,2.451782226562500000e-01,8.224487304687500000e-01
0.000000000000000000e+00,2.000000000000000000e+00,9.000000000000000000e+00,1.000000000000000000e+00,-2.000000000000000000e+00,2.000000000000000000e+00,2.000000000000000000e+00,1.000000000000000000e+00,-2.709960937500000000e-01,4.357910156250000000e-01,2.451782226562500000e-01,8.224487304687500000e-01
-2.000000000000000000e+00,-2.000000000000000000e+00,5.000000000000000000e+00,7.000000000000000000e+00,-1.000000000000000000e+00,-2.000000000000000000e+00,-3.000000000000000000e+00,-3.000000000000000000e+00,-2.709960937500000000e-01,4.357910156250000000e-01,2.451782226562500000e-01,8.224487304687500000e-01
0.000000000000000000e+00,-2.000000000000000000e+00,1.100000000000000000e+01,4.000000000000000000e+00,-5.000000000000000000e+00,0.000000000000000000e+00,1.000000000000000000e+00,-1.000000000000000000e+00,-2.709960937500000000e-01,4.357910156250000000e-01,2.451782226562500000e-01,8.224487304687500000e-01
0.000000000000000000e+00,3.000000000000000000e+00,-3.000000000000000000e+00,-1.600000000000000000e+01,-1.200000000000000000e+01,-5.000000000000000000e+00,-3.000000000000000000e+00,0.000000000000000000e+00,-2.716674804687500000e-01,4.354248046875000000e-01,2.455444335937500000e-01,8.223266601562500000e-01
1.000000000000000000e+00,0.000000000000000000e+00,1.000000000000000000e+00,2.200000000000000000e+01,1.800000000000000000e+01,-1.000000000000000000e+00,-2.000000000000000000e+00,-1.000000000000000000e+00,-2.716674804687500000e-01,4.354248046875000000e-01,2.455444335937500000e-01,8.223266601562500000e-01
-2.000000000000000000e+00,-2.000000000000000000e+00,-4.000000000000000000e+00,-6.000000000000000000e+00,-2.000000000000000000e+00,-1.000000000000000000e+00,-1.000000000000000000e+00,-3.000000000000000000e+00,-2.716674804687500000e-01,4.354248046875000000e-01,2.455444335937500000e-01,8.223266601562500000e-01
-1.000000000000000000e+00,-1.000000000000000000e+00,1.000000000000000000e+00,-5.000000000000000000e+00,-1.300000000000000000e+01,-4.000000000000000000e+00,-1.000000000000000000e+00,-2.000000000000000000e+00,-2.716674804687500000e-01,4.354248046875000000e-01,2.455444335937500000e-01,8.223266601562500000e-01
0.000000000000000000e+00,0.000000000000000000e+00,7.000000000000000000e+00,0.000000000000000000e+00,6.000000000000000000e+00,0.000000000000000000e+00,0.000000000000000000e+00,-1.000000000000000000e+00,-2.723999023437500000e-01,4.350585937500000000e-01,2.457885742187500000e-01,8.222045898437500000e-01
0.000000000000000000e+00,0.000000000000000000e+00,-3.000000000000000000e+00,2.000000000000000000e+00,-2.000000000000000000e+00,-3.000000000000000000e+00,-4.000000000000000000e+00,-1.000000000000000000e+00,-2.723999023437500000e-01,4.350585937500000000e-01,2.457885742187500000e-01,8.222045898437500000e-01
0.000000000000000000e+00,-1.000000000000000000e+00,-3.000000000000000000e+00,-1.100000000000000000e+01,-2.000000000000000000e+00,0.000000000000000000e+00,0.000000000000000000e+00,1.000000000000000000e+00,-2.723999023437500000e-01,4.350585937500000000e-01,2.457885742187500000e-01,8.222045898437500000e-01
0.000000000000000000e+00,3.000000000000000000e+00,1.200000000000000000e+01,7.000000000000000000e+00,7.000000000000000000e+00,3.000000000000000000e+00,0.000000000000000000e+00,0.000000000000000000e+00,-2.723999023437500000e-01,4.350585937500000000e-01,2.457885742187500000e-01,8.222045898437500000e-01
0.000000000000000000e+00,-5.000000000000000000e+00,-1.100000000000000000e+01,-2.000000000000000000e+00,-5.000000000000000000e+00,-4.000000000000000000e+00,-2.000000000000000000e+00,-2.000000000000000000e+00,-2.730102539062500000e-01,4.346313476562500000e-01,2.460937500000000000e-01,8.221435546875000000e-01
-4.000000000000000000e+00,-4.000000000000000000e+00,-6.000000000000000000e+00,-2.000000000000000000e+00,-7.000000000000000000e+00,-4.000000000000000000e+00,-5.000000000000000000e+00,-2.000000000000000000e+00,-2.730102539062500000e-01,4.346313476562500000e-01,2.460937500000000000e-01,8.221435546875000000e-01
