-2.000000000000000000e+00,5.000000000000000000e+00,1.800000000000000000e+01,-3.000000000000000000e+00,-2.000000000000000000e+00,3.000000000000000000e+00,3.900000000000000000e+01,-2.000000000000000000e+00,4.493408203125000000e-01,2.810058593750000000e-01,-8.277587890625000000e-01,1.843872070312500000e-01
-7.000000000000000000e+00,-1.300000000000000000e+01,5.000000000000000000e+00,-6.000000000000000000e+00,-1.200000000000000000e+01,-4.000000000000000000e+00,-1.400000000000000000e+01,-2.000000000000000000e+00,4.493408203125000000e-01,2.810058593750000000e-01,-8.277587890625000000e-01,1.843872070312500000e-01
2.000000000000000000e+00,-1.200000000000000000e+01,-2.700000000000000000e+01,-5.000000000000000000e+00,-4.000000000000000000e+00,-5.000000000000000000e+00,-8.000000000000000000e+00,-1.000000000000000000e+00,4.496459960937500000e-01,2.803955078125000000e-01,-8.278198242187500000e-01,1.840209960937500000e-01
0.000000000000000000e+00,7.000000000000000000e+00,2.300000000000000000e+01,3.000000000000000000e+00,-1.200000000000000000e+01,-1.300000000000000000e+01,-1.500000000000000000e+01,-6.000000000000000000e+00,4.496459960937500000e-01,2.803955078125000000e-01,-8.278198242187500000e-01,1.840209960937500000e-01
2.000000000000000000e+00,1.000000000000000000e+00,-6.000000000000000000e+00,2.000000000000000000e+00,1.500000000000000000e+01,2.000000000000000000e+00,5.000000000000000000e+00,-1.000000000000000000e+00,4.496459960937500000e-01,2.803955078125000000e-01,-8.278198242187500000e-01,1.840209960937500000e-01
4.000000000000000000e+00,1.000000000000000000e+00,0.000000000000000000e+00,-1.800000000000000000e+01,3.000000000000000000e+00,7.000000000000000000e+00,2.300000000000000000e+01,-1.000000000000000000e+00,4.496459960937500000e-01,2.803955078125000000e-01,-8.278198242187500000e-01,1.840209960937500000e-01
0.000000000000000000e+00,2.000000000000000000e+00,8.000000000000000000e+00,4.000000000000000000e+00,6.000000000000000000e+00,2.000000000000000000e+00,-6.000000000000000000e+00,4.000000000000000000e+00,4.499511718750000000e-01,2.800903320312500000e-01,-8.278808593750000000e-01,1.835327148437500000e-01
2.000000000000000000e+00,-5.000000000000000000e+00,0.000000000000000000e+00,-6.000000000000000000e+00,-1.000000000000000000e+00,-3.000000000000000000e+00,-1.000000000000000000e+01,0.000000000000000000e+00,4.499511718750000000e-01,2.800903320312500000e-01,-8.278808593750000000e-01,1.835327148437500000e-01
1.000000000000000000e+00,0.000000000000000000e+00,9.000000000000000000e+00,6.000000000000000000e+00,-6.000000000000000000e+00,-3.000000000000000000e+00,-1.600000000000000000e+01,-1.000000000000000000e+00,4.499511718750000000e-01,2.800903320312500000e-01,-8.278808593750000000e-01,1.835327148437500000e-01
0.000000000000000000e+00,8.000000000000000000e+00,-1.200000000000000000e+01,6.000000000000000000e+00,-4.000000000000000000e+00,-2.000000000000000000e+00,3.000000000000000000e+00,-1.000000000000000000e+00,4.499511718750000000e-01,2.800903320312500000e-01,-8.278808593750000000e-01,1.835327148437500000e-01
0.000000000000000000e+00,-4.000000000000000000e+00,3.000000000000000000e+00,-1.300000000000000000e+01,-4.000000000000000000e+00,-9.000000000000000000e+00,-1.900000000000000000e+01,-1.000000000000000000e+00,4.501953125000000000e-01,2.796630859375000000e-01,-8.280029296875000000e-01,1.831054687500000000e-01
-7.000000000000000000e+00,-6.000000000000000000e+00,-2.000000000000000000e+00,2.000000000000000000e+00,-9.000000000000000000e+00,-2.000000000000000000e+00,5.000000000000000000e+00,0.000000000000000000e+00,4.501953125000000000e-01,2.796630859375000000e-01,-8.280029296875000000e-01,1.831054687500000000e-01
5.000000000000000000e+00,3.000000000000000000e+00,-1.900000000000000000e+01,-3.000000000000000000e+00,1.000000000000000000e+01,4.000000000000000000e+00,0.000000000000000000e+00,0.000000000000000000e+00,4.501953125000000000e-01,2.796630859375000000e-01,-8.280029296875000000e-01,1.831054687500000000e-01
7.000000000000000000e+00,7.000000000000000000e+00,1.300000000000000000e+01,1.800000000000000000e+01,1.700000000000000000e+01,6.000000000000000000e+00,-6.000000000000000000e+00,3.000000000000000000e+00,4.501953125000000000e-01,2.796630859375000000e-01,-8.280029296875000000e-01,1.831054687500000000e-01
-1.700000000000000000e+01,-2.100000000000000000e+01,-6.500000000000000000e+01,-2.500000000000000000e+01,-1.500000000000000000e+01,-3.000000000000000000e+00,1.500000000000000000e+01,-5.000000000000000000e+00,4.501342773437500000e-01,2.788696289062500000e-01,-8.282470703125000000e-01,1.832275390625000000e-01
-5.000000000000000000e+00,-5.000000000000000000e+00,6.000000000000000000e+00,-1.100000000000000000e+01,7.000000000000000000e+00,9.000000000000000000e+00,3.300000000000000000e+01,-2.000000000000000000e+00,4.501342773437500000e-01,2.788696289062500000e-01,-8.282470703125000000e-01,1.832275390625000000e-01
-4.000000000000000000e+00,-7.000000000000000000e+00,-6.000000000000000000e+00,-1.300000000000000000e+01,-2.000000000000000000e+01,-1.000000000000000000e+00,5.000000000000000000e+00,-3.000000000000000000e+00,4.501342773437500000e-01,2.788696289062500000e-01,-8.282470703125000000e-01,1.832275390625000000e-01
1.000000000000000000e+00,5.000000000000000000e+00,-5.000000000000000000e+00,-1.000000000000000000e+00,-7.000000000000000000e+00,-5.000000000000000000e+00,-7.000000000000000000e+00,-3.000000000000000000e+00,4.501342773437500000e-01,2.788696289062500000e-01,-8.282470703125000000e-01,1.832275390625000000e-01
1.200000000000000000e+01,1.300000000000000000e+01,1.100000000000000000e+01,1.400000000000000000e+01,9.000000000000000000e+00,0.000000000000000000e+00,-1.700000000000000000e+01,8.000000000000000000e+00,4.500122070312500000e-01,2.791137695312500000e-01,-8.281250000000000000e-01,1.837768554687500000e-01
-1.000000000000000000e+00,1.000000000000000000e+00,-9.000000000000000000e+00,-5.000000000000000000e+00,-2.000000000000000000e+00,-1.000000000000000000e+00,1.000000000000000000e+00,-1.000000000000000000e+00,4.500122070312500000e-01,2.791137695312500000e-01,-8.281250000000000000e-01,1.837768554687500000e-01
0.000000000000000000e+00,2.000000000000000000e+00,1.300000000000000000e+01,6.000000000000000000e+00,1.000000000000000000e+01,2.000000000000000000e+00,-1.900000000000000000e+01,2.000000000000000000e+00,4.500122070312500000e-01,2.791137695312500000e-01,-8.281250000000000000e-01,1.837768554687500000e-01
1.100000000000000000e+01,1.000000000000000000e+01,-2.200000000000000000e+01,3.000000000000000000e+00,-6.000000000000000000e+00,-7.000000000000000000e+00,-7.000000000000000000e+00,1.000000000000000000e+00,4.500122070312500000e-01,2.791137695312500000e-01,-8.281250000000000000e-01,1.837768554687500000e-01
-3.000000000000000000e+00,-8.000000000000000000e+00,6.000000000000000000e+00,6.000000000000000000e+00,3.000000000000000000e+00,2.000000000000000000e+00,0.000000000000000000e+00,-2.000000000000000000e+00,4.497680664062500000e-01,2.789306640625000000e-01,-8.281860351562500000e-01,1.843872070312500000e-01
-3.000000000000000000e+01,-2.000000000000000000e+01,-1.200000000000000000e+01,1.000000000000000000e+00,1.000000000000000000e+00,-4.000000000000000000e+00,-1.400000000000000000e+01,-7.000000000000000000e+00,4.497680664062500000e-01,2.789306640625000000e-01,-8.281860351562500000e-01,1.843872070312500000e-01
0.000000000000000000e+00,-8.000000000000000000e+00,-1.700000000000000000e+01,-3.200000000000000000e+01,-4.000000000000000000e+00,-5.000000000000000000e+00,5.000000000000000000e+00,2.000000000000000000e+00,4.497680664062500000e-01,2.789306640625000000e-01,-8.281860351562500000e-01,1.843872070312500000e-01
3.000000000000000000e+00,7.000000000000000000e+00,4.200000000000000000e+01,1.200000000000000000e+01,-6.000000000000000000e+00,-2.000000000000000000e+00,-1.000000000000000000e+01,-1.000000000000000000e+00,4.497680664062500000e-01,2.789306640625000000e-01,-8.281860351562500000e-01,1.843872070312500000e-01
1.100000000000000000e+01,4.000000000000000000e+00,-3.000000000000000000e+00,1.300000000000000000e+01,-1.300000000000000000e+01,-9.000000000000000000e+00,-9.000000000000000000e+00,0.000000000000000000e+00,4.498901367187500000e-01,2.789306640625000000e-01,-8.281250000000000000e-01,1.843261718750000000e-01
9.000000000000000000e+00,5.000000000000000000e+00,-2.300000000000000000e+01,-1.100000000000000000e+01,1.100000000000000000e+01,-2.000000000000000000e+00,-8.000000000000000000e+00,2.000000000000000000e+00,4.498901367187500000e-01,2.789306640625000000e-01,-8.281250000000000000e-01,1.843261718750000000e-01
-7.000000000000000000e+00,4.000000000000000000e+00,7.000000000000000000e+00,1.400000000000000000e+01,-5.000000000000000000e+00,4.000000000000000000e+00,6.000000000000000000e+00,-1.000000000000000000e+00,4.498901367187500000e-01,2.789306640625000000e-01,-8.281250000000000000e-01,1.843261718750000000e-01
-2.000000000000000000e+00,-3.000000000000000000e+00,0.000000000000000000e+00,4.000000000000000000e+00,1.500000000000000000e+01,8.000000000000000000e+00,1.100000000000000000e+01,1.000000000000000000e+00,4.498901367187500000e-01,2.789306640625000000e-01,-8.281250000000000000e-01,1.843261718750000000e-01
-4.000000000000000000e+00,6.000000000000000000e+00,1.300000000000000000e+01,-4.000000000000000000e+00,0.000000000000000000e+00,-1.000000000000000000e+00,-2.000000000000000000e+00,-1.000000000000000000e+00,4.501342773437500000e-01,2.780761718750000000e-01,-8.283691406250000000e-01,1.840209960937500000e-01
7.000000000000000000e+00,1.000000000000000000e+00,1.100000000000000000e+01,6.000000000000000000e+00,2.000000000000000000e+00,-1.000000000000000000e+00,2.100000000000000000e+01,-1.000000000000000000e+00,4.501342773437500000e-01,2.780761718750000000e-01,-8.283691406250000000e-01,1.840209960937500000e-01
3.000000000000000000e+00,1.000000000000000000e+00,1.100000000000000000e+01,5.000000000000000000e+00,-8.000000000000000000e+00,-6.000000000000000000e+00,-7.000000000000000000e+00,-3.000000000000000000e+00,4.501342773437500000e-01,2.780761718750000000e-01,-8.283691406250000000e-01,1.840209960937500000e-01
-1.900000000000000000e+01,-6.000000000000000000e+00,-1.100000000000000000e+01,-1.700000000000000000e+01,-2.000000000000000000e+01,-4.000000000000000000e+00,-6.000000000000000000e+00,-4.000000000000000000e+00,4.501342773437500000e-01,2.780761718750000000e-01,-8.283691406250000000e-01,1.840209960937500000e-01
-6.000000000000000000e+00,7.000000000000000000e+00,4.200000000000000000e+01,4.000000000000000000e+00,1.600000000000000000e+01,0.000000000000000000e+00,-2.000000000000000000e+00,-2.000000000000000000e+00,4.506225585937500000e-01,2.773437500000000000e-01,-8.283081054687500000e-01,1.843261718750000000e-01
2.300000000000000000e+01,2.000000000000000000e+00,-3.800000000000000000e+01,7.000000000000000000e+00,0.000000000000000000e+00,-5.000000000000000000e+00,-1.300000000000000000e+01,0.000000000000000000e+00,4.506225585937500000e-01,2.773437500000000000e-01,-8.283081054687500000e-01,1.843261718750000000e-01
3.000000000000000000e+00,-1.700000000000000000e+01,2.900000000000000000e+01,1.000000000000000000e+00,2.000000000000000000e+00,-1.000000000000000000e+00,1.000000000000000000e+00,0.000000000000000000e+00,4.506225585937500000e-01,2.773437500000000000e-01,-8.283081054687500000e-01,1.843261718750000000e-01
-1.200000000000000000e+01,-1.500000000000000000e+01,-1.000000000000000000e+00,-9.000000000000000000e+00,-8.000000000000000000e+00,0.000000000000000000e+00,6.000000000000000000e+00,-2.000000000000000000e+00,4.506225585937500000e-01,2.773437500000000000e-01,-8.283081054687500000e-01,1.843261718750000000e-01
-2.000000000000000000e+00,-2.000000000000000000e+00,-2.000000000000000000e+00,1.000000000000000000e+00,2.000000000000000000e+00,-3.000000000000000000e+00,-5.000000000000000000e+00,-4.000000000000000000e+00,4.509277343750000000e-01,2.771606445312500000e-01,-8.280029296875000000e-01,1.850585937500000000e-01
-1.000000000000000000e+00,3.000000000000000000e+00,-3.000000000000000000e+00,1.000000000000000000e+00,-3.000000000000000000e+00,2.000000000000000000e+00,-9.000000000000000000e+00,1.000000000000000000e+00,4.509277343750000000e-01,2.771606445312500000e-01,-8.280029296875000000e-01,1.850585937500000000e-01
3.000000000000000000e+00,1.100000000000000000e+01,-8.000000000000000000e+00,4.000000000000000000e+00,5.000000000000000000e+00,1.000000000000000000e+00,-3.000000000000000000e+00,0.000000000000000000e+00,4.509277343750000000e-01,2.771606445312500000e-01,-8.280029296875000000e-01,1.850585937500000000e-01
2.500000000000000000e+01,1.300000000000000000e+01,2.000000000000000000e+00,1.000000000000000000e+00,-1.000000000000000000e+00,-5.000000000000000000e+00,3.000000000000000000e+00,5.000000000000000000e+00,4.509277343750000000e-01,2.771606445312500000e-01,-8.280029296875000000e-01,1.850585937500000000e-01
-9.000000000000000000e+00,-6.000000000000000000e+00,3.500000000000000000e+01,2.100000000000000000e+01,-1.600000000000000000e+01,-2.000000000000000000e+00,-1.600000000000000000e+01,-8.000000000000000000e+00,4.511108398437500000e-01,2.773437500000000000e-01,-8.276977539062500000e-01,1.856689453125000000e-01
-1.200000000000000000e+01,-3.000000000000000000e+00,0.000000000000000000e+00,-5.300000000000000000e+01,9.000000000000000000e+00,-3.000000000000000000e+00,-1.200000000000000000e+01,-1.000000000000000000e+00,4.511108398437500000e-01,2.773437500000000000e-01,-8.276977539062500000e-01,1.856689453125000000e-01
-6.000000000000000000e+00,-2.000000000000000000e+01,-4.200000000000000000e+01,6.000000000000000000e+00,5.000000000000000000e+00,1.000000000000000000e+01,1.900000000000000000e+01,-1.000000000000000000e+00,4.511108398437500000e-01,2.773437500000000000e-01,-8.276977539062500000e-01,1.856689453125000000e-01
-1.000000000000000000e+00,-4.000000000000000000e+00,4.000000000000000000e+00,6.000000000000000000e+00,2.000000000000000000e+00,-6.000000000000000000e+00,-2.800000000000000000e+01,-1.000000000000000000e+00,4.511108398437500000e-01,2.773437500000000000e-01,-8.276977539062500000e-01,1.856689453125000000e-01
1.600000000000000000e+01,1.000000000000000000e+01,-1.800000000000000000e+01,-4.000000000000000000e+00,-1.000000000000000000e+00,0.000000000000000000e+00,1.000000000000000000e+00,1.000000000000000000e+00,4.513549804687500000e-01,2.772216796875000000e-01,-8.275146484375000000e-01,1.859741210937500000e-01
2.000000000000000000e+00,3.000000000000000000e+00,1.300000000000000000e+01,1.900000000000000000e+01,-6.000000000000000000e+00,1.000000000000000000e+00,-3.000000000000000000e+00,-3.000000000000000000e+00,4.513549804687500000e-01,2.772216796875000000e-01,-8.275146484375000000e-01,1.859741210937500000e-01
-6.000000000000000000e+00,5.000000000000000000e+00,2.000000000000000000e+01,-1.000000000000000000e+00,-8.000000000000000000e+00,-8.000000000000000000e+00,-1.000000000000000000e+01,-2.000000000000000000e+00,4.513549804687500000e-01,2.772216796875000000e-01,-8.275146484375000000e-01,1.859741210937500000e-01
-1.000000000000000000e+00,-1.000000000000000000e+00,-2.100000000000000000e+01,-1.400000000000000000e+01,0.000000000000000000e+00,0.000000000000000000e+00,2.000000000000000000e+00,-1.000000000000000000e+00,4.513549804687500000e-01,2.772216796875000000e-01,-8.275146484375000000e-01,1.859741210937500000e-01
-2.000000000000000000e+00,5.000000000000000000e+00,-2.000000000000000000e+00,2.000000000000000000e+00,1.000000000000000000e+00,2.000000000000000000e+00,5.000000000000000000e+00,0.000000000000000000e+00,4.517211914062500000e-01,2.770996093750000000e-01,-8.274536132812500000e-01,1.856079101562500000e-01
1.000000000000000000e+00,0.000000000000000000e+00,1.300000000000000000e+01,4.000000000000000000e+00,-3.000000000000000000e+00,-6.000000000000000000e+00,-7.000000000000000000e+00,1.000000000000000000e+00,4.517211914062500000e-01,2.770996093750000000e-01,-8.274536132812500000e-01,1.856079101562500000e-01
-4.000000000000000000e+00,3.000000000000000000e+00,1.000000000000000000e+01,-1.700000000000000000e+01,-1.100000000000000000e+01,-1.000000000000000000e+01,-1.400000000000000000e+01,1.000000000000000000e+00,4.517211914062500000e-01,2.770996093750000000e-01,-8.274536132812500000e-01,1.856079101562500000e-01
-5.000000000000000000e+00,-1.000000000000000000e+00,1.200000000000000000e+01,1.400000000000000000e+01,1.000000000000000000e+00,3.000000000000000000e+00,-1.400000000000000000e+01,-8.000000000000000000e+00,4.517211914062500000e-01,2.770996093750000000e-01,-8.274536132812500000e-01,1.856079101562500000e-01
0.000000000000000000e+00,-1.400000000000000000e+01,7.000000000000000000e+00,-2.000000000000000000e+01,1.200000000000000000e+01,6.000000000000000000e+00,2.800000000000000000e+01,3.000000000000000000e+00,4.519653320312500000e-01,2.767944335937500000e-01,-8.274536132812500000e-01,1.854858398437500000e-01
-9.000000000000000000e+00,-3.300000000000000000e+01,-1.800000000000000000e+01,-6.000000000000000000e+00,-5.000000000000000000e+00,5.000000000000000000e+00,7.000000000000000000e+00,-3.000000000000000000e+00,4.519653320312500000e-01,2.767944335937500000e-01,-8.274536132812500000e-01,1.854858398437500000e-01
-2.000000000000000000e+00,6.000000000000000000e+00,0.000000000000000000e+00,1.400000000000000000e+01,4.000000000000000000e+00,0.000000000000000000e+00,-6.000000000000000000e+00,-1.000000000000000000e+00,4.519653320312500000e-01,2.767944335937500000e-01,-8.274536132812500000e-01,1.854858398437500000e-01
-4.000000000000000000e+00,4.000000000000000000e+00,-2.200000000000000000e+01,-1.000000000000000000e+01,-8.000000000000000000e+00,-5.000000000000000000e+00,2.000000000000000000e+00,-1.000000000000000000e+00,4.519653320312500000e-01,2.767944335937500000e-01,-8.274536132812500000e-01,1.854858398437500000e-01
0.000000000000000000e+00,8.000000000000000000e+00,1.000000000000000000e+01,-3.000000000000000000e+00,-6.000000000000000000e+00,-4.000000000000000000e+00,-6.000000000000000000e+00,-1.000000000000000000e+00,4.519653320312500000e-01,2.768554687500000000e-01,-8.274536132812500000e-01,1.854858398437500000e-01
6.000000000000000000e+00,1.000000000000000000e+01,1.000000000000000000e+01,7.000000000000000000e+00,0.000000000000000000e+00,1.000000000000000000e+00,-2.000000000000000000e+00,-1.000000000000000000e+00,4.519653320312500000e-01,2.768554687500000000e-01,-8.274536132812500000e-01,1.854858398437500000e-01
2.000000000000000000e+00,0.000000000000000000e+00,1.000000000000000000e+00,3.000000000000000000e+00,-8.000000000000000000e+00,-5.000000000000000000e+00,3.000000000000000000e+00,-4.000000000000000000e+00,4.519653320312500000e-01,2.768554687500000000e-01,-8.274536132812500000e-01,1.854858398437500000e-01
2.000000000000000000e+00,-4.000000000000000000e+00,-7.000000000000000000e+00,-2.700000000000000000e+01,-5.000000000000000000e+00,-2.000000000000000000e+00,4.000000000000000000e+00,0.000000000000000000e+00,4.519653320312500000e-01,2.768554687500000000e-01,-8.274536132812500000e-01,1.854858398437500000e-01
-7.000000000000000000e+00,-6.000000000000000000e+00,-3.000000000000000000e+01,-2.000000000000000000e+00,1.400000000000000000e+01,-8.000000000000000000e+00,-6.000000000000000000e+01,2.000000000000000000e+00,4.517822265625000000e-01,2.770385742187500000e-01,-8.275756835937500000e-01,1.851806640625000000e-01
3.000000000000000000e+00,4.000000000000000000e+00,2.600000000000000000e+01,1.500000000000000000e+01,2.000000000000000000e+00,1.300000000000000000e+01,2.700000000000000000e+01,5.000000000000000000e+00,4.517822265625000000e-01,2.770385742187500000e-01,-8.275756835937500000e-01,1.851806640625000000e-01
-1.000000000000000000e+01,-5.000000000000000000e+00,-1.800000000000000000e+01,-1.000000000000000000e+00,0.000000000000000000e+00,2.000000000000000000e+00,6.000000000000000000e+00,2.000000000000000000e+00,4.517822265625000000e-01,2.770385742187500000e-01,-8.275756835937500000e-01,1.851806640625000000e-01
-5.000000000000000000e+00,-1.400000000000000000e+01,0.000000000000000000e+00,-7.000000000000000000e+00,-7.000000000000000000e+00,-4.000000000000000000e+00,3.000000000000000000e+00,-5.000000000000000000e+00,4.517822265625000000e-01,2.770385742187500000e-01,-8.275756835937500000e-01,1.851806640625000000e-01
4.000000000000000000e+00,0.000000000000000000e+00,5.000000000000000000e+00,2.000000000000000000e+00,-8.000000000000000000e+00,-6.000000000000000000e+00,-8.000000000000000000e+00,0.000000000000000000e+00,4.514770507812500000e-01,2.777709960937500000e-01,-8.275756835937500000e-01,1.847534179687500000e-01
4.000000000000000000e+00,5.000000000000000000e+00,-1.000000000000000000e+01,1.000000000000000000e+00,-2.000000000000000000e+00,-6.000000000000000000e+00,-1.300000000000000000e+01,-1.000000000000000000e+00,4.514770507812500000e-01,2.777709960937500000e-01,-8.275756835937500000e-01,1.847534179687500000e-01
9.000000000000000000e+00,1.200000000000000000e+01,5.000000000000000000e+00,4.000000000000000000e+00,1.000000000000000000e+00,-7.000000000000000000e+00,0.000000000000000000e+00,1.000000000000000000e+00,4.514770507812500000e-01,2.777709960937500000e-01,-8.275756835937500000e-01,1.847534179687500000e-01
1.500000000000000000e+01,4.000000000000000000e+00,8.000000000000000000e+00,1.600000000000000000e+01,1.400000000000000000e+01,8.000000000000000000e+00,1.300000000000000000e+01,6.000000000000000000e+00,4.514770507812500000e-01,2.777709960937500000e-01,-8.275756835937500000e-01,1.847534179687500000e-01
-1.100000000000000000e+01,-4.000000000000000000e+00,-1.300000000000000000e+01,-3.300000000000000000e+01,-1.500000000000000000e+01,0.000000000000000000e+00,3.400000000000000000e+01,-7.000000000000000000e+00,4.509887695312500000e-01,2.788696289062500000e-01,-8.275756835937500000e-01,1.843872070312500000e-01
-1.800000000000000000e+01,-6.000000000000000000e+00,-1.400000000000000000e+01,1.400000000000000000e+01,1.100000000000000000e+01,0.000000000000000000e+00,-1.400000000000000000e+01,1.000000000000000000e+00,4.509887695312500000e-01,2.788696289062500000e-01,-8.275756835937500000e-01,1.843872070312500000e-01
-6.000000000000000000e+00,-9.000000000000000000e+00,9.000000000000000000e+00,-3.000000000000000000e+00,1.000000000000000000e+00,-2.000000000000000000e+00,-1.000000000000000000e+00,-2.000000000000000000e+00,4.509887695312500000e-01,2.788696289062500000e-01,-8.275756835937500000e-01,1.843872070312500000e-01
-3.000000000000000000e+00,-1.100000000000000000e+01,-8.000000000000000000e+00,6.000000000000000000e+00,0.000000000000000000e+00,-2.000000000000000000e+00,1.100000000000000000e+01,0.000000000000000000e+00,4.509887695312500000e-01,2.788696289062500000e-01,-8.275756835937500000e-01,1.843872070312500000e-01
1.600000000000000000e+01,9.000000000000000000e+00,-1.600000000000000000e+01,8.000000000000000000e+00,-2.000000000000000000e+00,6.000000000000000000e+00,6.000000000000000000e+00,1.000000000000000000e+00,4.511718750000000000e-01,2.796020507812500000e-01,-8.273315429687500000e-01,1.837158203125000000e-01
0.000000000000000000e+00,4.000000000000000000e+00,1.400000000000000000e+01,0.000000000000000000e+00,-5.000000000000000000e+00,-2.000000000000000000e+00,8.000000000000000000e+00,-1.000000000000000000e+00,4.511718750000000000e-01,2.796020507812500000e-01,-8.273315429687500000e-01,1.837158203125000000e-01
-1.000000000000000000e+00,0.000000000000000000e+00,-3.700000000000000000e+01,-1.400000000000000000e+01,0.000000000000000000e+00,-4.000000000000000000e+00,-2.200000000000000000e+01,-4.000000000000000000e+00,4.511718750000000000e-01,2.796020507812500000e-01,-8.273315429687500000e-01,1.837158203125000000e-01
-9.000000000000000000e+00,1.000000000000000000e+00,-1.000000000000000000e+01,-1.600000000000000000e+01,-1.100000000000000000e+01,1.000000000000000000e+00,1.200000000000000000e+01,-3.000000000000000000e+00,4.511718750000000000e-01,2.796020507812500000e-01,-8.273315429687500000e-01,1.837158203125000000e-01
-4.000000000000000000e+00,-7.000000000000000000e+00,6.000000000000000000e+00,1.400000000000000000e+01,6.000000000000000000e+00,3.000000000000000000e+00,1.000000000000000000e+00,-1.000000000000000000e+00,4.515380859375000000e-01,2.803344726562500000e-01,-8.270874023437500000e-01,1.828002929687500000e-01
4.000000000000000000e+00,8.000000000000000000e+00,6.000000000000000000e+00,9.000000000000000000e+00,2.000000000000000000e+00,0.000000000000000000e+00,1.000000000000000000e+00,-2.000000000000000000e+00,4.515380859375000000e-01,2.803344726562500000e-01,-8.270874023437500000e-01,1.828002929687500000e-01
-1.000000000000000000e+01,-9.000000000000000000e+00,-8.000000000000000000e+00,-1.500000000000000000e+01,-5.000000000000000000e+00,0.000000000000000000e+00,-1.000000000000000000e+00,2.000000000000000000e+00,4.515380859375000000e-01,2.803344726562500000e-01,-8.270874023437500000e-01,1.828002929687500000e-01
4.000000000000000000e+00,4.000000000000000000e+00,3.700000000000000000e+01,1.000000000000000000e+01,-6.000000000000000000e+00,-3.000000000000000000e+00,-1.300000000000000000e+01,-4.000000000000000000e+00,4.515380859375000000e-01,2.803344726562500000e-01,-8.270874023437500000e-01,1.828002929687500000e-01
-2.000000000000000000e+00,-3.000000000000000000e+00,1.000000000000000000e+00,0.000000000000000000e+00,1.000000000000000000e+01,3.000000000000000000e+00,1.400000000000000000e+01,1.000000000000000000e+00,4.521484375000000000e-01,2.808227539062500000e-01,-8.268432617187500000e-01,1.819458007812500000e-01
1.000000000000000000e+01,4.000000000000000000e+00,-8.000000000000000000e+00,0.000000000000000000e+00,-3.000000000000000000e+00,-3.000000000000000000e+00,-6.000000000000000000e+00,-3.000000000000000000e+00,4.521484375000000000e-01,2.808227539062500000e-01,-8.268432617187500000e-01,1.819458007812500000e-01
3.000000000000000000e+00,1.000000000000000000e+01,2.100000000000000000e+01,1.100000000000000000e+01,4.000000000000000000e+00,5.000000000000000000e+00,3.000000000000000000e+00,0.000000000000000000e+00,4.521484375000000000e-01,2.808227539062500000e-01,-8.268432617187500000e-01,1.819458007812500000e-01
-1.200000000000000000e+01,-1.300000000000000000e+01,-1.400000000000000000e+01,-6.000000000000000000e+00,0.000000000000000000e+00,-6.000000000000000000e+00,-1.000000000000000000e+01,-5.000000000000000000e+00,4.521484375000000000e-01,2.808227539062500000e-01,-8.268432617187500000e-01,1.819458007812500000e-01
4.000000000000000000e+00,4.000000000000000000e+00,9.000000000000000000e+00,-1.000000000000000000e+00,-9.000000000000000000e+00,1.000000000000000000e+00,6.000000000000000000e+00,7.000000000000000000e+00,4.525756835937500000e-01,2.811279296875000000e-01,-8.265991210937500000e-01,1.812744140625000000e-01
-4.000000000000000000e+00,-3.000000000000000000e+00,-1.200000000000000000e+01,-2.000000000000000000e+00,0.000000000000000000e+00,-7.000000000000000000e+00,-1.600000000000000000e+01,-1.000000000000000000e+00,4.525756835937500000e-01,2.811279296875000000e-01,-8.265991210937500000e-01,1.812744140625000000e-01
1.000000000000000000e+01,-3.000000000000000000e+00,-5.000000000000000000e+00,-9.000000000000000000e+00,-1.100000000000000000e+01,3.000000000000000000e+00,1.000000000000000000e+01,-3.000000000000000000e+00,4.525756835937500000e-01,2.811279296875000000e-01,-8.265991210937500000e-01,1.812744140625000000e-01
-1.000000000000000000e+01,5.000000000000000000e+00,3.000000000000000000e+00,9.000000000000000000e+00,8.000000000000000000e+00,-1.000000000000000000e+00,4.000000000000000000e+00,-1.000000000000000000e+00,4.525756835937500000e-01,2.811279296875000000e-01,-8.265991210937500000e-01,1.812744140625000000e-01
4.000000000000000000e+00,-5.000000000000000000e+00,-4.100000000000000000e+01,-4.000000000000000000e+00,-3.000000000000000000e+00,-2.000000000000000000e+00,-2.000000000000000000e+00,-3.000000000000000000e+00,4.528808593750000000e-01,2.813720703125000000e-01,-8.264160156250000000e-01,1.809082031250000000e-01
-1.000000000000000000e+00,-1.300000000000000000e+01,1.100000000000000000e+01,-3.000000000000000000e+00,-6.000000000000000000e+00,-5.000000000000000000e+00,-1.300000000000000000e+01,-5.000000000000000000e+00,4.528808593750000000e-01,2.813720703125000000e-01,-8.264160156250000000e-01,1.809082031250000000e-01
-7.000000000000000000e+00,1.600000000000000000e+01,4.000000000000000000e+00,3.000000000000000000e+00,3.000000000000000000e+00,6.000000000000000000e+00,3.400000000000000000e+01,-1.000000000000000000e+00,4.528808593750000000e-01,2.813720703125000000e-01,-8.264160156250000000e-01,1.809082031250000000e-01
-1.000000000000000000e+00,-7.000000000000000000e+00,-3.100000000000000000e+01,-2.000000000000000000e+00,-1.000000000000000000e+00,-1.000000000000000000e+00,2.500000000000000000e+01,1.000000000000000000e+00,4.528808593750000000e-01,2.813720703125000000e-01,-8.264160156250000000e-01,1.809082031250000000e-01
0.000000000000000000e+00,7.000000000000000000e+00,1.200000000000000000e+01,0.000000000000000000e+00,-4.000000000000000000e+00,0.000000000000000000e+00,1.000000000000000000e+00,-2.000000000000000000e+00,4.533081054687500000e-01,2.817382812500000000e-01,-8.261718750000000000e-01,1.804809570312500000e-01
2.000000000000000000e+00,-8.000000000000000000e+00,-2.900000000000000000e+01,-1.100000000000000000e+01,-4.000000000000000000e+00,-7.000000000000000000e+00,-1.000000000000000000e+00,2.000000000000000000e+00,4.533081054687500000e-01,2.817382812500000000e-01,-8.261718750000000000e-01,1.804809570312500000e-01
-5.000000000000000000e+00,-6.000000000000000000e+00,3.000000000000000000e+00,5.000000000000000000e+00,-1.000000000000000000e+00,-4.000000000000000000e+00,-2.100000000000000000e+01,-2.000000000000000000e+00,4.533081054687500000e-01,2.817382812500000000e-01,-8.261718750000000000e-01,1.804809570312500000e-01
2.000000000000000000e+00,7.000000000000000000e+00,8.000000000000000000e+00,-9.000000000000000000e+00,7.000000000000000000e+00,-1.000000000000000000e+00,-1.200000000000000000e+01,0.000000000000000000e+00,4.533081054687500000e-01,2.817382812500000000e-01,-8.261718750000000000e-01,1.804809570312500000e-01
-1.200000000000000000e+01,-9.000000000000000000e+00,-1.000000000000000000e+00,1.000000000000000000e+00,3.000000000000000000e+00,2.000000000000000000e+00,1.500000000000000000e+01,1.000000000000000000e+00,4.534912109375000000e-01,2.819213867187500000e-01,-8.261108398437500000e-01,1.799926757812500000e-01
3.000000000000000000e+00,1.000000000000000000e+00,1.200000000000000000e+01,-6.000000000000000000e+00,-1.600000000000000000e+01,0.000000000000000000e+00,-1.400000000000000000e+01,-1.000000000000000000e+00,4.534912109375000000e-01,2.819213867187500000e-01,-8.261108398437500000e-01,1.799926757812500000e-01
2.000000000000000000e+00,-4.000000000000000000e+00,1.100000000000000000e+01,1.700000000000000000e+01,-9.000000000000000000e+00,-8.000000000000000000e+00,-1.400000000000000000e+01,-2.000000000000000000e+00,4.534912109375000000e-01,2.819213867187500000e-01,-8.261108398437500000e-01,1.799926757812500000e-01
2.000000000000000000e+00,7.000000000000000000e+00,-4.900000000000000000e+01,-1.100000000000000000e+01,2.100000000000000000e+01,8.000000000000000000e+00,3.000000000000000000e+00,1.000000000000000000e+00,4.534912109375000000e-01,2.819213867187500000e-01,-8.261108398437500000e-01,1.799926757812500000e-01
-7.000000000000000000e+00,0.000000000000000000e+00,1.000000000000000000e+01,-6.000000000000000000e+00,-8.000000000000000000e+00,-6.000000000000000000e+00,-5.000000000000000000e+00,1.000000000000000000e+00,4.534912109375000000e-01,2.818603515625000000e-01,-8.262329101562500000e-01,1.795043945312500000e-01
-2.000000000000000000e+00,-8.000000000000000000e+00,2.800000000000000000e+01,-1.300000000000000000e+01,4.000000000000000000e+00,0.000000000000000000e+00,4.000000000000000000e+00,-1.000000000000000000e+00,4.534912109375000000e-01,2.818603515625000000e-01,-8.262329101562500000e-01,1.795043945312500000e-01
1.000000000000000000e+00,-5.000000000000000000e+00,-7.000000000000000000e+00,1.000000000000000000e+01,-1.600000000000000000e+01,-6.000000000000000000e+00,0.000000000000000000e+00,-1.000000000000000000e+00,4.534912109375000000e-01,2.818603515625000000e-01,-8.262329101562500000e-01,1.795043945312500000e-01
-1.000000000000000000e+00,5.000000000000000000e+00,5.000000000000000000e+00,-3.000000000000000000e+00,-5.000000000000000000e+00,-5.000000000000000000e+00,-9.000000000000000000e+00,1.000000000000000000e+00,4.534912109375000000e-01,2.818603515625000000e-01,-8.262329101562500000e-01,1.795043945312500000e-01
-7.000000000000000000e+00,-4.000000000000000000e+00,2.000000000000000000e+00,-8.000000000000000000e+00,-4.000000000000000000e+00,5.000000000000000000e+00,1.600000000000000000e+01,-3.000000000000000000e+00,4.533081054687500000e-01,2.822265625000000000e-01,-8.262329101562500000e-01,1.792602539062500000e-01
-1.600000000000000000e+01,5.000000000000000000e+00,-1.600000000000000000e+01,7.000000000000000000e+00,8.000000000000000000e+00,3.000000000000000000e+00,7.000000000000000000e+00,-6.000000000000000000e+00,4.533081054687500000e-01,2.822265625000000000e-01,-8.262329101562500000e-01,1.792602539062500000e-01
-6.000000000000000000e+00,-7.000000000000000000e+00,1.200000000000000000e+01,-9.000000000000000000e+00,7.000000000000000000e+00,0.000000000000000000e+00,0.000000000000000000e+00,5.000000000000000000e+00,4.533081054687500000e-01,2.822265625000000000e-01,-8.262329101562500000e-01,1.792602539062500000e-01
3.000000000000000000e+00,5.000000000000000000e+00,2.200000000000000000e+01,1.000000000000000000e+01,-8.000000000000000000e+00,1.000000000000000000e+00,-1.000000000000000000e+01,0.000000000000000000e+00,4.533081054687500000e-01,2.822265625000000000e-01,-8.262329101562500000e-01,1.792602539062500000e-01
5.000000000000000000e+00,0.000000000000000000e+00,-1.600000000000000000e+01,-4.000000000000000000e+00,-6.000000000000000000e+00,-3.000000000000000000e+00,3.000000000000000000e+00,-2.000000000000000000e+00,4.526977539062500000e-01,2.824096679687500000e-01,-8.265991210937500000e-01,1.788940429687500000e-01
-1.000000000000000000e+00,1.000000000000000000e+00,2.000000000000000000e+00,2.000000000000000000e+00,-2.000000000000000000e+00,1.000000000000000000e+00,1.000000000000000000e+00,-3.000000000000000000e+00,4.526977539062500000e-01,2.824096679687500000e-01,-8.265991210937500000e-01,1.788940429687500000e-01
7.000000000000000000e+00,-3.000000000000000000e+00,-6.000000000000000000e+00,-1.200000000000000000e+01,8.000000000000000000e+00,0.000000000000000000e+00,-7.000000000000000000e+00,-2.000000000000000000e+00,4.526977539062500000e-01,2.824096679687500000e-01,-8.265991210937500000e-01,1.788940429687500000e-01
-1.200000000000000000e+01,-1.300000000000000000e+01,-2.700000000000000000e+01,-4.000000000000000000e+00,-2.000000000000000000e+00,-3.000000000000000000e+00,-7.000000000000000000e+00,1.000000000000000000e+00,4.526977539062500000e-01,2.824096679687500000e-01,-8.265991210937500000e-01,1.788940429687500000e-01
-5.000000000000000000e+00,-3.000000000000000000e+00,-8.000000000000000000e+00,8.000000000000000000e+00,2.000000000000000000e+00,-5.000000000000000000e+00,-1.600000000000000000e+01,-1.000000000000000000e+00,4.525146484375000000e-01,2.822265625000000000e-01,-8.269042968750000000e-01,1.783447265625000000e-01
2.000000000000000000e+00,6.000000000000000000e+00,2.500000000000000000e+01,1.000000000000000000e+00,-1.000000000000000000e+00,-2.000000000000000000e+00,-2.000000000000000000e+00,0.000000000000000000e+00,4.525146484375000000e-01,2.822265625000000000e-01,-8.269042968750000000e-01,1.783447265625000000e-01
6.000000000000000000e+00,3.000000000000000000e+00,-2.500000000000000000e+01,-6.000000000000000000e+00,4.000000000000000000e+00,5.000000000000000000e+00,-1.000000000000000000e+00,0.000000000000000000e+00,4.525146484375000000e-01,2.822265625000000000e-01,-8.269042968750000000e-01,1.783447265625000000e-01
6.000000000000000000e+00,-6.000000000000000000e+00,1.500000000000000000e+01,7.000000000000000000e+00,-4.000000000000000000e+00,-7.000000000000000000e+00,-6.000000000000000000e+00,1.000000000000000000e+00,4.525146484375000000e-01,2.822265625000000000e-01,-8.269042968750000000e-01,1.783447265625000000e-01
-1.000000000000000000e+00,0.000000000000000000e+00,-4.000000000000000000e+00,-2.100000000000000000e+01,-1.700000000000000000e+01,-6.000000000000000000e+00,-8.000000000000000000e+00,-4.000000000000000000e+00,4.523925781250000000e-01,2.824707031250000000e-01,-8.270263671875000000e-01,1.776123046875000000e-01
-9.000000000000000000e+00,-1.600000000000000000e+01,-1.000000000000000000e+01,1.200000000000000000e+01,1.400000000000000000e+01,3.000000000000000000e+00,1.100000000000000000e+01,0.000000000000000000e+00,4.523925781250000000e-01,2.824707031250000000e-01,-8.270263671875000000e-01,1.776123046875000000e-01
3.000000000000000000e+00,-1.000000000000000000e+00,4.000000000000000000e+00,1.000000000000000000e+00,8.000000000000000000e+00,0.000000000000000000e+00,-4.000000000000000000e+00,-3.000000000000000000e+00,4.523925781250000000e-01,2.824707031250000000e-01,-8.270263671875000000e-01,1.776123046875000000e-01
-6.000000000000000000e+00,-4.000000000000000000e+00,-2.000000000000000000e+00,1.000000000000000000e+00,-1.000000000000000000e+00,0.000000000000000000e+00,2.000000000000000000e+00,-3.000000000000000000e+00,4.523925781250000000e-01,2.824707031250000000e-01,-8.270263671875000000e-01,1.776123046875000000e-01
4.000000000000000000e+00,-1.000000000000000000e+00,-1.300000000000000000e+01,-8.000000000000000000e+00,-5.000000000000000000e+00,-3.000000000000000000e+00,-2.000000000000000000e+00,1.000000000000000000e+00,4.524536132812500000e-01,2.826538085937500000e-01,-8.271484375000000000e-01,1.766967773437500000e-01
0.000000000000000000e+00,2.000000000000000000e+00,-4.000000000000000000e+00,5.000000000000000000e+00,1.000000000000000000e+00,4.000000000000000000e+00,-3.000000000000000000e+00,1.000000000000000000e+00,4.524536132812500000e-01,2.826538085937500000e-01,-8.271484375000000000e-01,1.766967773437500000e-01
-5.000000000000000000e+00,-4.000000000000000000e+00,1.100000000000000000e+01,4.000000000000000000e+00,-3.000000000000000000e+00,4.000000000000000000e+00,-1.700000000000000000e+01,-4.000000000000000000e+00,4.524536132812500000e-01,2.826538085937500000e-01,-8.271484375000000000e-01,1.766967773437500000e-01
3.000000000000000000e+00,7.000000000000000000e+00,5.000000000000000000e+00,-8.000000000000000000e+00,-2.000000000000000000e+00,2.000000000000000000e+00,4.000000000000000000e+00,-3.000000000000000000e+00,4.524536132812500000e-01,2.826538085937500000e-01,-8.271484375000000000e-01,1.766967773437500000e-01
0.000000000000000000e+00,2.000000000000000000e+00,-1.400000000000000000e+01,4.000000000000000000e+00,9.000000000000000000e+00,3.000000000000000000e+00,1.400000000000000000e+01,4.000000000000000000e+00,4.526367187500000000e-01,2.827758789062500000e-01,-8.271484375000000000e-01,1.759643554687500000e-01
1.600000000000000000e+01,1.000000000000000000e+00,2.000000000000000000e+00,3.000000000000000000e+00,2.000000000000000000e+00,-5.000000000000000000e+00,-8.000000000000000000e+00,2.000000000000000000e+00,4.526367187500000000e-01,2.827758789062500000e-01,-8.271484375000000000e-01,1.759643554687500000e-01
-1.100000000000000000e+01,6.000000000000000000e+00,5.000000000000000000e+00,1.800000000000000000e+01,2.000000000000000000e+00,1.000000000000000000e+00,1.500000000000000000e+01,-1.000000000000000000e+00,4.526367187500000000e-01,2.827758789062500000e-01,-8.271484375000000000e-01,1.759643554687500000e-01
-1.500000000000000000e+01,-5.000000000000000000e+00,-3.200000000000000000e+01,-3.300000000000000000e+01,-8.000000000000000000e+00,-3.000000000000000000e+00,0.000000000000000000e+00,0.000000000000000000e+00,4.526367187500000000e-01,2.827758789062500000e-01,-8.271484375000000000e-01,1.759643554687500000e-01
1.000000000000000000e+00,-2.000000000000000000e+00,5.300000000000000000e+01,1.100000000000000000e+01,3.000000000000000000e+00,2.000000000000000000e+00,-7.000000000000000000e+00,-6.000000000000000000e+00,4.528198242187500000e-01,2.828979492187500000e-01,-8.271484375000000000e-01,1.754760742187500000e-01
-7.000000000000000000e+00,-1.000000000000000000e+01,-5.000000000000000000e+00,-2.000000000000000000e+00,-1.400000000000000000e+01,-4.000000000000000000e+00,1.100000000000000000e+01,-1.000000000000000000e+00,4.528198242187500000e-01,2.828979492187500000e-01,-8.271484375000000000e-01,1.754760742187500000e-01
6.000000000000000000e+00,2.000000000000000000e+00,4.000000000000000000e+00,1.000000000000000000e+00,8.000000000000000000e+00,-1.000000000000000000e+00,-2.000000000000000000e+00,0.000000000000000000e+00,4.528198242187500000e-01,2.828979492187500000e-01,-8.271484375000000000e-01,1.754760742187500000e-01
5.000000000000000000e+00,5.000000000000000000e+00,6.000000000000000000e+00,1.900000000000000000e+01,3.000000000000000000e+00,-1.000000000000000000e+00,-4.000000000000000000e+00,1.000000000000000000e+00,4.528198242187500000e-01,2.828979492187500000e-01,-8.271484375000000000e-01,1.754760742187500000e-01
-1.000000000000000000e+00,4.000000000000000000e+00,-1.000000000000000000e+01,1.000000000000000000e+00,5.000000000000000000e+00,1.000000000000000000e+00,-6.000000000000000000e+00,0.000000000000000000e+00,4.528808593750000000e-01,2.836914062500000000e-01,-8.268432617187500000e-01,1.752929687500000000e-01
-1.000000000000000000e+00,8.000000000000000000e+00,1.500000000000000000e+01,-8.000000000000000000e+00,-6.000000000000000000e+00,-4.000000000000000000e+00,4.000000000000000000e+00,0.000000000000000000e+00,4.528808593750000000e-01,2.836914062500000000e-01,-8.268432617187500000e-01,1.752929687500000000e-01
-3.000000000000000000e+00,-1.000000000000000000e+01,-2.400000000000000000e+01,-2.000000000000000000e+00,-2.000000000000000000e+01,-5.000000000000000000e+00,-1.300000000000000000e+01,-5.000000000000000000e+00,4.528808593750000000e-01,2.836914062500000000e-01,-8.268432617187500000e-01,1.752929687500000000e-01
-6.000000000000000000e+00,-1.300000000000000000e+01,6.000000000000000000e+00,4.000000000000000000e+00,1.800000000000000000e+01,9.000000000000000000e+00,4.000000000000000000e+00,-1.000000000000000000e+00,4.528808593750000000e-01,2.836914062500000000e-01,-8.268432617187500000e-01,1.752929687500000000e-01
3.000000000000000000e+00,4.000000000000000000e+00,-6.000000000000000000e+00,-1.200000000000000000e+01,5.000000000000000000e+00,-3.000000000000000000e+00,-7.000000000000000000e+00,-1.000000000000000000e+00,4.530639648437500000e-01,2.838134765625000000e-01,-8.267822265625000000e-01,1.747436523437500000e-01
-4.000000000000000000e+00,2.000000000000000000e+00,1.000000000000000000e+00,-3.000000000000000000e+00,-1.000000000000000000e+00,2.000000000000000000e+00,6.000000000000000000e+00,3.000000000000000000e+00,4.530639648437500000e-01,2.838134765625000000e-01,-8.267822265625000000e-01,1.747436523437500000e-01
-3.000000000000000000e+00,1.000000000000000000e+00,1.800000000000000000e+01,-5.000000000000000000e+00,-2.000000000000000000e+00,-5.000000000000000000e+00,4.000000000000000000e+00,-2.000000000000000000e+00,4.530639648437500000e-01,2.838134765625000000e-01,-8.267822265625000000e-01,1.747436523437500000e-01
3.000000000000000000e+00,4.000000000000000000e+00,2.600000000000000000e+01,1.100000000000000000e+01,-1.000000000000000000e+01,-6.000000000000000000e+00,-6.000000000000000000e+00,-6.000000000000000000e+00,4.530639648437500000e-01,2.838134765625000000e-01,-8.267822265625000000e-01,1.747436523437500000e-01
-1.000000000000000000e+00,-8.000000000000000000e+00,-1.900000000000000000e+01,4.000000000000000000e+00,-5.000000000000000000e+00,6.000000000000000000e+00,2.400000000000000000e+01,4.000000000000000000e+00,4.534301757812500000e-01,2.839355468750000000e-01,-8.266601562500000000e-01,1.743774414062500000e-01
4.000000000000000000e+00,2.000000000000000000e+00,-3.400000000000000000e+01,-2.200000000000000000e+01,-3.000000000000000000e+00,-7.000000000000000000e+00,-2.100000000000000000e+01,1.000000000000000000e+00,4.534301757812500000e-01,2.839355468750000000e-01,-8.266601562500000000e-01,1.743774414062500000e-01
-4.000000000000000000e+00,-4.000000000000000000e+00,-1.000000000000000000e+00,3.000000000000000000e+00,8.000000000000000000e+00,1.200000000000000000e+01,4.700000000000000000e+01,2.000000000000000000e+00,4.534301757812500000e-01,2.839355468750000000e-01,-8.266601562500000000e-01,1.743774414062500000e-01
1.300000000000000000e+01,4.000000000000000000e+00,-1.000000000000000000e+00,4.000000000000000000e+00,-1.000000000000000000e+00,1.000000000000000000e+00,6.000000000000000000e+00,3.000000000000000000e+00,4.534301757812500000e-01,2.839355468750000000e-01,-8.266601562500000000e-01,1.743774414062500000e-01
-1.100000000000000000e+01,-1.000000000000000000e+00,-5.000000000000000000e+00,1.700000000000000000e+01,1.000000000000000000e+01,-2.000000000000000000e+00,-8.000000000000000000e+00,-3.000000000000000000e+00,4.535522460937500000e-01,2.844238281250000000e-01,-8.264160156250000000e-01,1.743164062500000000e-01
-7.000000000000000000e+00,-7.000000000000000000e+00,-1.000000000000000000e+00,-2.000000000000000000e+00,-9.000000000000000000e+00,-2.000000000000000000e+00,-3.000000000000000000e+00,-3.000000000000000000e+00,4.535522460937500000e-01,2.844238281250000000e-01,-8.264160156250000000e-01,1.743164062500000000e-01
7.000000000000000000e+00,0.000000000000000000e+00,2.000000000000000000e+00,-9.000000000000000000e+00,1.000000000000000000e+00,-5.000000000000000000e+00,-1.600000000000000000e+01,0.000000000000000000e+00,4.535522460937500000e-01,2.844238281250000000e-01,-8.264160156250000000e-01,1.743164062500000000e-01
4.000000000000000000e+00,8.000000000000000000e+00,1.200000000000000000e+01,2.000000000000000000e+00,-7.000000000000000000e+00,-7.000000000000000000e+00,-1.000000000000000000e+00,0.000000000000000000e+00,4.535522460937500000e-01,2.844238281250000000e-01,-8.264160156250000000e-01,1.743164062500000000e-01
7.000000000000000000e+00,0.000000000000000000e+00,2.200000000000000000e+01,4.000000000000000000e+00,-6.000000000000000000e+00,4.000000000000000000e+00,1.200000000000000000e+01,-3.000000000000000000e+00,4.534912109375000000e-01,2.850341796875000000e-01,-8.262329101562500000e-01,1.744384765625000000e-01
-7.000000000000000000e+00,-1.000000000000000000e+01,-5.900000000000000000e+01,-1.000000000000000000e+00,3.000000000000000000e+00,5.000000000000000000e+00,2.700000000000000000e+01,-2.000000000000000000e+00,4.534912109375000000e-01,2.850341796875000000e-01,-8.262329101562500000e-01,1.744384765625000000e-01
1.000000000000000000e+00,0.000000000000000000e+00,3.000000000000000000e+01,2.000000000000000000e+00,-9.000000000000000000e+00,-6.000000000000000000e+00,-2.000000000000000000e+01,0.000000000000000000e+00,4.534912109375000000e-01,2.850341796875000000e-01,-8.262329101562500000e-01,1.744384765625000000e-01
2.000000000000000000e+00,-5.000000000000000000e+00,-2.600000000000000000e+01,-2.000000000000000000e+00,1.800000000000000000e+01,4.000000000000000000e+00,-3.000000000000000000e+00,0.000000000000000000e+00,4.534912109375000000e-01,2.850341796875000000e-01,-8.262329101562500000e-01,1.744384765625000000e-01
1.000000000000000000e+00,9.000000000000000000e+00,8.000000000000000000e+00,-1.100000000000000000e+01,-7.000000000000000000e+00,-6.000000000000000000e+00,-1.700000000000000000e+01,-2.000000000000000000e+00,4.533081054687500000e-01,2.852783203125000000e-01,-8.262329101562500000e-01,1.744995117187500000e-01
3.000000000000000000e+00,0.000000000000000000e+00,1.000000000000000000e+00,-6.000000000000000000e+00,4.000000000000000000e+00,4.000000000000000000e+00,7.000000000000000000e+00,0.000000000000000000e+00,4.533081054687500000e-01,2.852783203125000000e-01,-8.262329101562500000e-01,1.744995117187500000e-01
-1.000000000000000000e+00,2.000000000000000000e+00,-7.000000000000000000e+00,3.000000000000000000e+00,-1.000000000000000000e+00,-3.000000000000000000e+00,3.000000000000000000e+00,-1.000000000000000000e+00,4.533081054687500000e-01,2.852783203125000000e-01,-8.262329101562500000e-01,1.744995117187500000e-01
-3.000000000000000000e+00,-1.000000000000000000e+01,-7.000000000000000000e+00,-8.000000000000000000e+00,-1.100000000000000000e+01,-4.000000000000000000e+00,-4.000000000000000000e+00,-2.000000000000000000e+00,4.533081054687500000e-01,2.852783203125000000e-01,-8.262329101562500000e-01,1.744995117187500000e-01
-1.800000000000000000e+01,-1.000000000000000000e+01,2.300000000000000000e+01,1.100000000000000000e+01,-5.000000000000000000e+00,-1.000000000000000000e+00,1.000000000000000000e+01,-3.000000000000000000e+00,4.531250000000000000e-01,2.852172851562500000e-01,-8.264160156250000000e-01,1.743164062500000000e-01
1.200000000000000000e+01,6.000000000000000000e+00,1.000000000000000000e+01,9.000000000000000000e+00,4.000000000000000000e+00,0.000000000000000000e+00,-6.000000000000000000e+00,2.000000000000000000e+00,4.531250000000000000e-01,2.852172851562500000e-01,-8.264160156250000000e-01,1.743164062500000000e-01
-5.000000000000000000e+00,0.000000000000000000e+00,-4.000000000000000000e+00,-1.800000000000000000e+01,-1.400000000000000000e+01,-6.000000000000000000e+00,-1.500000000000000000e+01,0.000000000000000000e+00,4.531250000000000000e-01,2.852172851562500000e-01,-8.264160156250000000e-01,1.743164062500000000e-01
-1.000000000000000000e+00,7.000000000000000000e+00,9.000000000000000000e+00,1.200000000000000000e+01,1.100000000000000000e+01,3.000000000000000000e+00,-9.000000000000000000e+00,1.000000000000000000e+00,4.531250000000000000e-01,2.852172851562500000e-01,-8.264160156250000000e-01,1.743164062500000000e-01
-1.000000000000000000e+00,-1.000000000000000000e+01,-1.700000000000000000e+01,-1.900000000000000000e+01,-6.000000000000000000e+00,2.000000000000000000e+00,3.000000000000000000e+00,-1.000000000000000000e+00,4.525756835937500000e-01,2.854003906250000000e-01,-8.266601562500000000e-01,1.743164062500000000e-01
1.000000000000000000e+00,2.000000000000000000e+00,2.500000000000000000e+01,1.200000000000000000e+01,1.000000000000000000e+01,-2.000000000000000000e+00,-1.100000000000000000e+01,-1.000000000000000000e+00,4.525756835937500000e-01,2.854003906250000000e-01,-8.266601562500000000e-01,1.743164062500000000e-01
3.000000000000000000e+00,-4.000000000000000000e+00,-1.300000000000000000e+01,1.400000000000000000e+01,1.700000000000000000e+01,3.000000000000000000e+00,-7.000000000000000000e+00,-1.000000000000000000e+00,4.525756835937500000e-01,2.854003906250000000e-01,-8.266601562500000000e-01,1.743164062500000000e-01
-4.000000000000000000e+00,-3.000000000000000000e+00,9.000000000000000000e+00,-1.000000000000000000e+01,-1.400000000000000000e+01,-3.000000000000000000e+00,6.000000000000000000e+00,-1.000000000000000000e+00,4.525756835937500000e-01,2.854003906250000000e-01,-8.266601562500000000e-01,1.743164062500000000e-01
-9.000000000000000000e+00,3.000000000000000000e+00,-4.000000000000000000e+00,7.000000000000000000e+00,7.000000000000000000e+00,-5.000000000000000000e+00,-1.300000000000000000e+01,-1.000000000000000000e+00,4.519653320312500000e-01,2.855834960937500000e-01,-8.269042968750000000e-01,1.744384765625000000e-01
8.000000000000000000e+00,-1.000000000000000000e+00,0.000000000000000000e+00,-1.100000000000000000e+01,-1.300000000000000000e+01,-4.000000000000000000e+00,-1.400000000000000000e+01,-2.000000000000000000e+00,4.519653320312500000e-01,2.855834960937500000e-01,-8.269042968750000000e-01,1.744384765625000000e-01
-4.000000000000000000e+00,5.000000000000000000e+00,0.000000000000000000e+00,4.000000000000000000e+00,1.000000000000000000e+00,2.000000000000000000e+00,2.000000000000000000e+00,1.000000000000000000e+00,4.519653320312500000e-01,2.855834960937500000e-01,-8.269042968750000000e-01,1.744384765625000000e-01
5.000000000000000000e+00,-5.000000000000000000e+00,-1.700000000000000000e+01,-1.100000000000000000e+01,-4.000000000000000000e+00,0.000000000000000000e+00,-1.000000000000000000e+00,-2.000000000000000000e+00,4.519653320312500000e-01,2.855834960937500000e-01,-8.269042968750000000e-01,1.744384765625000000e-01
-4.000000000000000000e+00,-1.300000000000000000e+01,1.000000000000000000e+00,-9.000000000000000000e+00,-9.000000000000000000e+00,-4.000000000000000000e+00,4.000000000000000000e+00,-3.000000000000000000e+00,4.509887695312500000e-01,2.863769531250000000e-01,-8.270874023437500000e-01,1.748046875000000000e-01
-1.100000000000000000e+01,3.000000000000000000e+00,1.300000000000000000e+01,0.000000000000000000e+00,-2.000000000000000000e+00,-5.000000000000000000e+00,-1.400000000000000000e+01,-3.000000000000000000e+00,4.509887695312500000e-01,2.863769531250000000e-01,-8.270874023437500000e-01,1.748046875000000000e-01
-4.000000000000000000e+00,-6.000000000000000000e+00,-1.900000000000000000e+01,1.000000000000000000e+00,1.100000000000000000e+01,9.000000000000000000e+00,2.400000000000000000e+01,-2.000000000000000000e+00,4.509887695312500000e-01,2.863769531250000000e-01,-8.270874023437500000e-01,1.748046875000000000e-01
-3.000000000000000000e+00,-1.000000000000000000e+00,2.800000000000000000e+01,-1.800000000000000000e+01,-2.400000000000000000e+01,-9.000000000000000000e+00,-1.800000000000000000e+01,1.000000000000000000e+00,4.509887695312500000e-01,2.863769531250000000e-01,-8.270874023437500000e-01,1.748046875000000000e-01
8.000000000000000000e+00,6.000000000000000000e+00,-1.000000000000000000e+00,1.700000000000000000e+01,1.600000000000000000e+01,0.000000000000000000e+00,-1.400000000000000000e+01,0.000000000000000000e+00,4.501342773437500000e-01,2.869873046875000000e-01,-8.273315429687500000e-01,1.748046875000000000e-01
-3.000000000000000000e+00,-2.000000000000000000e+00,-1.300000000000000000e+01,1.000000000000000000e+00,-4.000000000000000000e+00,0.000000000000000000e+00,6.000000000000000000e+00,0.000000000000000000e+00,4.501342773437500000e-01,2.869873046875000000e-01,-8.273315429687500000e-01,1.748046875000000000e-01
4.000000000000000000e+00,4.000000000000000000e+00,1.200000000000000000e+01,-5.000000000000000000e+00,5.000000000000000000e+00,0.000000000000000000e+00,1.000000000000000000e+00,-2.000000000000000000e+00,4.501342773437500000e-01,2.869873046875000000e-01,-8.273315429687500000e-01,1.748046875000000000e-01
-8.000000000000000000e+00,-7.000000000000000000e+00,-1.000000000000000000e+00,3.000000000000000000e+00,-7.000000000000000000e+00,-5.000000000000000000e+00,-6.000000000000000000e+00,3.000000000000000000e+00,4.501342773437500000e-01,2.869873046875000000e-01,-8.273315429687500000e-01,1.748046875000000000e-01
3.000000000000000000e+00,2.000000000000000000e+00,-9.000000000000000000e+00,-5.000000000000000000e+00,-7.000000000000000000e+00,-4.000000000000000000e+00,-1.000000000000000000e+00,0.000000000000000000e+00,4.496459960937500000e-01,2.871704101562500000e-01,-8.275756835937500000e-01,1.744995117187500000e-01
0.000000000000000000e+00,1.000000000000000000e+01,1.400000000000000000e+01,-3.000000000000000000e+00,0.000000000000000000e+00,0.000000000000000000e+00,3.000000000000000000e+00,-1.000000000000000000e+00,4.496459960937500000e-01,2.871704101562500000e-01,-8.275756835937500000e-01,1.744995117187500000e-01
0.000000000000000000e+00,-6.000000000000000000e+00,-6.000000000000000000e+01,3.000000000000000000e+00,6.000000000000000000e+00,-1.000000000000000000e+00,-1.000000000000000000e+01,-1.000000000000000000e+00,4.496459960937500000e-01,2.871704101562500000e-01,-8.275756835937500000e-01,1.744995117187500000e-01
2.000000000000000000e+00,-8.000000000000000000e+00,3.500000000000000000e+01,4.000000000000000000e+00,-6.000000000000000000e+00,1.000000000000000000e+00,1.200000000000000000e+01,-6.000000000000000000e+00,4.496459960937500000e-01,2.871704101562500000e-01,-8.275756835937500000e-01,1.744995117187500000e-01
-2.500000000000000000e+01,-8.000000000000000000e+00,-3.500000000000000000e+01,1.000000000000000000e+00,-1.200000000000000000e+01,-8.000000000000000000e+00,0.000000000000000000e+00,-2.000000000000000000e+00,4.490966796875000000e-01,2.870483398437500000e-01,-8.279418945312500000e-01,1.743164062500000000e-01
-1.900000000000000000e+01,-1.400000000000000000e+01,-2.000000000000000000e+00,-2.000000000000000000e+01,9.000000000000000000e+00,3.000000000000000000e+00,7.000000000000000000e+00,-1.000000000000000000e+00,4.490966796875000000e-01,2.870483398437500000e-01,-8.279418945312500000e-01,1.743164062500000000e-01
9.000000000000000000e+00,-7.000000000000000000e+00,-1.300000000000000000e+01,-1.800000000000000000e+01,-9.000000000000000000e+00,-8.000000000000000000e+00,-9.000000000000000000e+00,-4.000000000000000000e+00,4.490966796875000000e-01,2.870483398437500000e-01,-8.279418945312500000e-01,1.743164062500000000e-01
-7.000000000000000000e+00,1.000000000000000000e+00,-1.700000000000000000e+01,-1.000000000000000000e+00,-1.000000000000000000e+00,3.000000000000000000e+00,1.500000000000000000e+01,0.000000000000000000e+00,4.490966796875000000e-01,2.870483398437500000e-01,-8.279418945312500000e-01,1.743164062500000000e-01
1.200000000000000000e+01,6.000000000000000000e+00,1.800000000000000000e+01,1.700000000000000000e+01,7.000000000000000000e+00,2.000000000000000000e+00,-2.000000000000000000e+00,-2.000000000000000000e+00,4.485473632812500000e-01,2.872314453125000000e-01,-8.281860351562500000e-01,1.744995117187500000e-01
-2.000000000000000000e+00,7.000000000000000000e+00,7.000000000000000000e+00,1.000000000000000000e+01,-1.300000000000000000e+01,-3.000000000000000000e+00,-4.000000000000000000e+00,-1.000000000000000000e+00,4.485473632812500000e-01,2.872314453125000000e-01,-8.281860351562500000e-01,1.744995117187500000e-01
0.000000000000000000e+00,1.000000000000000000e+00,8.000000000000000000e+00,-1.400000000000000000e+01,5.000000000000000000e+00,-6.000000000000000000e+00,-1.300000000000000000e+01,1.000000000000000000e+00,4.485473632812500000e-01,2.872314453125000000e-01,-8.281860351562500000e-01,1.744995117187500000e-01
1.000000000000000000e+00,0.000000000000000000e+00,-9.000000000000000000e+00,1.300000000000000000e+01,3.000000000000000000e+00,3.000000000000000000e+00,-1.300000000000000000e+01,3.000000000000000000e+00,4.485473632812500000e-01,2.872314453125000000e-01,-8.281860351562500000e-01,1.744995117187500000e-01
5.000000000000000000e+00,1.000000000000000000e+00,1.300000000000000000e+01,2.000000000000000000e+00,2.000000000000000000e+00,0.000000000000000000e+00,1.200000000000000000e+01,1.000000000000000000e+00,4.480590820312500000e-01,2.873535156250000000e-01,-8.283691406250000000e-01,1.746826171875000000e-01
-5.000000000000000000e+00,1.000000000000000000e+00,-1.400000000000000000e+01,-1.500000000000000000e+01,0.000000000000000000e+00,3.000000000000000000e+00,1.600000000000000000e+01,0.000000000000000000e+00,4.480590820312500000e-01,2.873535156250000000e-01,-8.283691406250000000e-01,1.746826171875000000e-01
-3.000000000000000000e+00,-1.000000000000000000e+00,1.100000000000000000e+01,-1.000000000000000000e+00,-4.000000000000000000e+00,-3.000000000000000000e+00,-9.000000000000000000e+00,0.000000000000000000e+00,4.480590820312500000e-01,2.873535156250000000e-01,-8.283691406250000000e-01,1.746826171875000000e-01
1.200000000000000000e+01,8.000000000000000000e+00,2.700000000000000000e+01,1.700000000000000000e+01,-1.000000000000000000e+00,-4.000000000000000000e+00,6.000000000000000000e+00,1.000000000000000000e+00,4.480590820312500000e-01,2.873535156250000000e-01,-8.283691406250000000e-01,1.746826171875000000e-01
-4.000000000000000000e+00,-6.000000000000000000e+00,-2.700000000000000000e+01,-2.400000000000000000e+01,-5.000000000000000000e+00,0.000000000000000000e+00,-1.200000000000000000e+01,-6.000000000000000000e+00,4.477539062500000000e-01,2.876586914062500000e-01,-8.283081054687500000e-01,1.749267578125000000e-01
-5.000000000000000000e+00,-1.000000000000000000e+01,1.000000000000000000e+01,-6.000000000000000000e+00,-6.000000000000000000e+00,-6.000000000000000000e+00,-3.000000000000000000e+00,-5.000000000000000000e+00,4.477539062500000000e-01,2.876586914062500000e-01,-8.283081054687500000e-01,1.749267578125000000e-01
-5.000000000000000000e+00,-1.000000000000000000e+01,1.900000000000000000e+01,1.000000000000000000e+01,1.000000000000000000e+00,5.000000000000000000e+00,1.000000000000000000e+01,3.000000000000000000e+00,4.477539062500000000e-01,2.876586914062500000e-01,-8.283081054687500000e-01,1.749267578125000000e-01
-6.000000000000000000e+00,-1.000000000000000000e+00,-4.200000000000000000e+01,-1.100000000000000000e+01,2.000000000000000000e+00,-1.000000000000000000e+00,-2.000000000000000000e+00,-2.000000000000000000e+00,4.477539062500000000e-01,2.876586914062500000e-01,-8.283081054687500000e-01,1.749267578125000000e-01
1.400000000000000000e+01,1.200000000000000000e+01,3.000000000000000000e+00,-4.000000000000000000e+00,1.000000000000000000e+00,2.000000000000000000e+00,-5.000000000000000000e+00,2.000000000000000000e+00,4.479370117187500000e-01,2.880859375000000000e-01,-8.280639648437500000e-01,1.751098632812500000e-01
4.000000000000000000e+00,-2.000000000000000000e+00,-1.000000000000000000e+00,1.200000000000000000e+01,5.000000000000000000e+00,-1.000000000000000000e+00,1.000000000000000000e+00,2.000000000000000000e+00,4.479370117187500000e-01,2.880859375000000000e-01,-8.280639648437500000e-01,1.751098632812500000e-01
8.000000000000000000e+00,9.000000000000000000e+00,1.300000000000000000e+01,-2.000000000000000000e+00,-6.000000000000000000e+00,-1.000000000000000000e+00,-1.000000000000000000e+00,-4.000000000000000000e+00,4.479370117187500000e-01,2.880859375000000000e-01,-8.280639648437500000e-01,1.751098632812500000e-01
-1.700000000000000000e+01,-3.000000000000000000e+00,8.000000000000000000e+00,4.000000000000000000e+00,-2.000000000000000000e+00,-8.000000000000000000e+00,1.300000000000000000e+01,0.000000000000000000e+00,4.479370117187500000e-01,2.880859375000000000e-01,-8.280639648437500000e-01,1.751098632812500000e-01
5.000000000000000000e+00,5.000000000000000000e+00,0.000000000000000000e+00,2.200000000000000000e+01,-6.000000000000000000e+00,5.000000000000000000e+00,-3.000000000000000000e+00,1.000000000000000000e+00,4.483032226562500000e-01,2.879028320312500000e-01,-8.280029296875000000e-01,1.748046875000000000e-01
2.000000000000000000e+00,3.000000000000000000e+00,-1.200000000000000000e+01,-1.200000000000000000e+01,2.500000000000000000e+01,9.000000000000000000e+00,5.000000000000000000e+00,-1.000000000000000000e+00,4.483032226562500000e-01,2.879028320312500000e-01,-8.280029296875000000e-01,1.748046875000000000e-01
-9.000000000000000000e+00,-1.500000000000000000e+01,-2.200000000000000000e+01,0.000000000000000000e+00,-9.000000000000000000e+00,-3.000000000000000000e+00,2.000000000000000000e+00,-5.000000000000000000e+00,4.483032226562500000e-01,2.879028320312500000e-01,-8.280029296875000000e-01,1.748046875000000000e-01
-1.000000000000000000e+00,-4.000000000000000000e+00,-2.000000000000000000e+01,-9.000000000000000000e+00,7.000000000000000000e+00,-2.000000000000000000e+00,-1.000000000000000000e+00,0.000000000000000000e+00,4.483032226562500000e-01,2.879028320312500000e-01,-8.280029296875000000e-01,1.748046875000000000e-01
-1.000000000000000000e+00,-3.000000000000000000e+00,-3.000000000000000000e+00,-2.000000000000000000e+00,-7.000000000000000000e+00,-1.000000000000000000e+01,-2.300000000000000000e+01,-3.000000000000000000e+00,4.489135742187500000e-01,2.874145507812500000e-01,-8.279418945312500000e-01,1.743774414062500000e-01
4.000000000000000000e+00,5.000000000000000000e+00,1.500000000000000000e+01,7.000000000000000000e+00,-1.000000000000000000e+01,-3.000000000000000000e+00,-6.000000000000000000e+00,-1.000000000000000000e+00,4.489135742187500000e-01,2.874145507812500000e-01,-8.279418945312500000e-01,1.743774414062500000e-01
1.000000000000000000e+01,1.300000000000000000e+01,-1.200000000000000000e+01,1.200000000000000000e+01,2.000000000000000000e+00,4.000000000000000000e+00,8.000000000000000000e+00,-1.000000000000000000e+00,4.489135742187500000e-01,2.874145507812500000e-01,-8.279418945312500000e-01,1.743774414062500000e-01
-1.400000000000000000e+01,-1.000000000000000000e+01,2.000000000000000000e+00,-3.000000000000000000e+00,3.000000000000000000e+00,-1.000000000000000000e+01,-1.800000000000000000e+01,-4.000000000000000000e+00,4.489135742187500000e-01,2.874145507812500000e-01,-8.279418945312500000e-01,1.743774414062500000e-01
-6.000000000000000000e+00,3.000000000000000000e+00,1.000000000000000000e+01,-1.200000000000000000e+01,-3.000000000000000000e+00,1.100000000000000000e+01,6.000000000000000000e+00,-8.000000000000000000e+00,4.492187500000000000e-01,2.874755859375000000e-01,-8.278198242187500000e-01,1.741333007812500000e-01
1.000000000000000000e+00,-1.600000000000000000e+01,-2.000000000000000000e+00,1.200000000000000000e+01,-4.000000000000000000e+00,-6.000000000000000000e+00,-4.000000000000000000e+00,7.000000000000000000e+00,4.492187500000000000e-01,2.874755859375000000e-01,-8.278198242187500000e-01,1.741333007812500000e-01
3.000000000000000000e+00,-5.000000000000000000e+00,-9.000000000000000000e+00,-1.300000000000000000e+01,2.000000000000000000e+00,-1.000000000000000000e+01,-2.000000000000000000e+00,3.000000000000000000e+00,4.492187500000000000e-01,2.874755859375000000e-01,-8.278198242187500000e-01,1.741333007812500000e-01
-3.000000000000000000e+00,1.200000000000000000e+01,6.000000000000000000e+00,2.000000000000000000e+00,-5.000000000000000000e+00,1.700000000000000000e+01,-3.000000000000000000e+00,-1.000000000000000000e+00,4.492187500000000000e-01,2.874755859375000000e-01,-8.278198242187500000e-01,1.741333007812500000e-01
-1.400000000000000000e+01,-7.000000000000000000e+00,3.000000000000000000e+00,-7.000000000000000000e+00,-5.000000000000000000e+00,-4.000000000000000000e+00,-4.000000000000000000e+00,0.000000000000000000e+00,4.495849609375000000e-01,2.876586914062500000e-01,-8.276367187500000000e-01,1.736450195312500000e-01
1.000000000000000000e+00,-1.000000000000000000e+00,0.000000000000000000e+00,6.000000000000000000e+00,1.000000000000000000e+00,-2.000000000000000000e+00,-6.000000000000000000e+00,-3.000000000000000000e+00,4.495849609375000000e-01,2.876586914062500000e-01,-8.276367187500000000e-01,1.736450195312500000e-01
0.000000000000000000e+00,-1.000000000000000000e+00,0.000000000000000000e+00,2.000000000000000000e+01,2.000000000000000000e+00,2.000000000000000000e+00,6.000000000000000000e+00,-1.000000000000000000e+00,4.495849609375000000e-01,2.876586914062500000e-01,-8.276367187500000000e-01,1.736450195312500000e-01
1.600000000000000000e+01,1.000000000000000000e+01,0.000000000000000000e+00,1.700000000000000000e+01,9.000000000000000000e+00,0.000000000000000000e+00,6.000000000000000000e+00,3.000000000000000000e+00,4.495849609375000000e-01,2.876586914062500000e-01,-8.276367187500000000e-01,1.736450195312500000e-01
0.000000000000000000e+00,-3.000000000000000000e+00,-3.000000000000000000e+00,-1.500000000000000000e+01,1.200000000000000000e+01,-3.000000000000000000e+00,2.000000000000000000e+00,0.000000000000000000e+00,4.501953125000000000e-01,2.876586914062500000e-01,-8.274536132812500000e-01,1.729736328125000000e-01
5.000000000000000000e+00,1.000000000000000000e+00,-2.000000000000000000e+01,-8.000000000000000000e+00,-1.100000000000000000e+01,3.000000000000000000e+00,6.000000000000000000e+00,-3.000000000000000000e+00,4.501953125000000000e-01,2.876586914062500000e-01,-8.274536132812500000e-01,1.729736328125000000e-01
-7.000000000000000000e+00,7.000000000000000000e+00,2.600000000000000000e+01,-7.000000000000000000e+00,-9.000000000000000000e+00,-4.000000000000000000e+00,-7.000000000000000000e+00,-2.000000000000000000e+00,4.509277343750000000e-01,2.876586914062500000e-01,-8.272094726562500000e-01,1.721191406250000000e-01
-6.000000000000000000e+00,-3.000000000000000000e+00,-2.100000000000000000e+01,-3.000000000000000000e+00,-2.000000000000000000e+00,-1.000000000000000000e+00,-3.000000000000000000e+00,-4.000000000000000000e+00,4.509277343750000000e-01,2.876586914062500000e-01,-8.272094726562500000e-01,1.721191406250000000e-01
4.000000000000000000e+00,-5.000000000000000000e+00,-5.000000000000000000e+00,5.000000000000000000e+00,-5.000000000000000000e+00,4.000000000000000000e+00,4.300000000000000000e+01,2.000000000000000000e+00,4.509277343750000000e-01,2.876586914062500000e-01,-8.272094726562500000e-01,1.721191406250000000e-01
0.000000000000000000e+00,-1.200000000000000000e+01,0.000000000000000000e+00,1.000000000000000000e+00,3.000000000000000000e+00,-8.000000000000000000e+00,-1.600000000000000000e+01,-3.000000000000000000e+00,4.509277343750000000e-01,2.876586914062500000e-01,-8.272094726562500000e-01,1.721191406250000000e-01
-8.000000000000000000e+00,2.000000000000000000e+00,1.500000000000000000e+01,-8.000000000000000000e+00,1.000000000000000000e+00,9.000000000000000000e+00,3.000000000000000000e+00,-1.000000000000000000e+00,4.517211914062500000e-01,2.873535156250000000e-01,-8.270874023437500000e-01,1.712036132812500000e-01
7.000000000000000000e+00,4.000000000000000000e+00,3.000000000000000000e+00,1.000000000000000000e+00,-3.000000000000000000e+00,-9.000000000000000000e+00,-2.000000000000000000e+00,-1.000000000000000000e+00,4.517211914062500000e-01,2.873535156250000000e-01,-8.270874023437500000e-01,1.712036132812500000e-01
-3.000000000000000000e+00,-7.000000000000000000e+00,8.000000000000000000e+00,0.000000000000000000e+00,0.000000000000000000e+00,1.000000000000000000e+00,-7.000000000000000000e+00,0.000000000000000000e+00,4.517211914062500000e-01,2.873535156250000000e-01,-8.270874023437500000e-01,1.712036132812500000e-01
-3.000000000000000000e+00,-2.000000000000000000e+00,-3.800000000000000000e+01,-4.000000000000000000e+00,0.000000000000000000e+00,5.000000000000000000e+00,1.900000000000000000e+01,5.000000000000000000e+00,4.517211914062500000e-01,2.873535156250000000e-01,-8.270874023437500000e-01,1.712036132812500000e-01
2.000000000000000000e+00,4.000000000000000000e+00,1.900000000000000000e+01,1.000000000000000000e+00,1.000000000000000000e+00,-1.000000000000000000e+00,-4.000000000000000000e+00,0.000000000000000000e+00,4.526367187500000000e-01,2.875366210937500000e-01,-8.266601562500000000e-01,1.705932617187500000e-01
4.000000000000000000e+00,-1.500000000000000000e+01,1.000000000000000000e+01,-1.500000000000000000e+01,-7.000000000000000000e+00,1.000000000000000000e+00,-1.000000000000000000e+00,-1.000000000000000000e+00,4.526367187500000000e-01,2.875366210937500000e-01,-8.266601562500000000e-01,1.705932617187500000e-01
-1.000000000000000000e+00,-3.000000000000000000e+00,-1.400000000000000000e+01,-7.000000000000000000e+00,-8.000000000000000000e+00,-5.000000000000000000e+00,-6.000000000000000000e+00,0.000000000000000000e+00,4.526367187500000000e-01,2.875366210937500000e-01,-8.266601562500000000e-01,1.705932617187500000e-01
-4.000000000000000000e+00,6.000000000000000000e+00,-1.000000000000000000e+00,2.200000000000000000e+01,4.000000000000000000e+00,-1.000000000000000000e+00,-9.000000000000000000e+00,-3.000000000000000000e+00,4.526367187500000000e-01,2.875366210937500000e-01,-8.266601562500000000e-01,1.705932617187500000e-01
-3.000000000000000000e+00,2.000000000000000000e+00,1.100000000000000000e+01,-9.000000000000000000e+00,-1.000000000000000000e+00,-3.000000000000000000e+00,-9.000000000000000000e+00,-2.000000000000000000e+00,4.531860351562500000e-01,2.884521484375000000e-01,-8.261108398437500000e-01,1.700439453125000000e-01
-1.000000000000000000e+00,-9.000000000000000000e+00,7.000000000000000000e+00,5.000000000000000000e+00,7.000000000000000000e+00,3.000000000000000000e+00,-7.000000000000000000e+00,0.000000000000000000e+00,4.531860351562500000e-01,2.884521484375000000e-01,-8.261108398437500000e-01,1.700439453125000000e-01
8.000000000000000000e+00,2.000000000000000000e+00,-1.300000000000000000e+01,1.900000000000000000e+01,1.200000000000000000e+01,-2.000000000000000000e+00,1.000000000000000000e+00,-1.000000000000000000e+00,4.531860351562500000e-01,2.884521484375000000e-01,-8.261108398437500000e-01,1.700439453125000000e-01
3.000000000000000000e+00,1.300000000000000000e+01,-1.000000000000000000e+00,-1.000000000000000000e+01,-2.000000000000000000e+00,-1.000000000000000000e+00,-6.000000000000000000e+00,-2.000000000000000000e+00,4.531860351562500000e-01,2.884521484375000000e-01,-8.261108398437500000e-01,1.700439453125000000e-01
-6.000000000000000000e+00,-1.600000000000000000e+01,-2.000000000000000000e+01,-1.300000000000000000e+01,-1.800000000000000000e+01,-3.000000000000000000e+00,1.000000000000000000e+01,1.000000000000000000e+00,4.537353515625000000e-01,2.890014648437500000e-01,-8.258056640625000000e-01,1.693725585937500000e-01
-3.000000000000000000e+00,3.000000000000000000e+00,4.000000000000000000e+01,-1.000000000000000000e+01,-3.000000000000000000e+00,-2.000000000000000000e+00,-4.000000000000000000e+00,-1.000000000000000000e+00,4.537353515625000000e-01,2.890014648437500000e-01,-8.258056640625000000e-01,1.693725585937500000e-01
-3.000000000000000000e+00,-1.000000000000000000e+01,-2.100000000000000000e+01,-9.000000000000000000e+00,1.000000000000000000e+00,-4.000000000000000000e+00,-4.000000000000000000e+00,-1.000000000000000000e+00,4.537353515625000000e-01,2.890014648437500000e-01,-8.258056640625000000e-01,1.693725585937500000e-01
2.000000000000000000e+00,2.000000000000000000e+00,8.000000000000000000e+00,-1.000000000000000000e+01,-1.100000000000000000e+01,-7.000000000000000000e+00,-9.000000000000000000e+00,-3.000000000000000000e+00,4.537353515625000000e-01,2.890014648437500000e-01,-8.258056640625000000e-01,1.693725585937500000e-01
-1.000000000000000000e+01,-7.000000000000000000e+00,-6.000000000000000000e+00,4.000000000000000000e+00,0.000000000000000000e+00,2.000000000000000000e+00,-4.000000000000000000e+00,0.000000000000000000e+00,4.542236328125000000e-01,2.893676757812500000e-01,-8.255615234375000000e-01,1.685791015625000000e-01
1.000000000000000000e+00,1.000000000000000000e+00,-5.000000000000000000e+00,1.000000000000000000e+00,-1.000000000000000000e+00,0.000000000000000000e+00,0.000000000000000000e+00,-4.000000000000000000e+00,4.542236328125000000e-01,2.893676757812500000e-01,-8.255615234375000000e-01,1.685791015625000000e-01
7.000000000000000000e+00,6.000000000000000000e+00,1.200000000000000000e+01,2.000000000000000000e+00,-1.000000000000000000e+00,-2.000000000000000000e+00,-6.000000000000000000e+00,0.000000000000000000e+00,4.542236328125000000e-01,2.893676757812500000e-01,-8.255615234375000000e-01,1.685791015625000000e-01
7.000000000000000000e+00,1.000000000000000000e+01,2.000000000000000000e+00,1.000000000000000000e+00,1.000000000000000000e+00,2.000000000000000000e+00,4.000000000000000000e+00,0.000000000000000000e+00,4.542236328125000000e-01,2.893676757812500000e-01,-8.255615234375000000e-01,1.685791015625000000e-01
-2.000000000000000000e+00,-3.000000000000000000e+00,-1.400000000000000000e+01,-4.000000000000000000e+00,-2.000000000000000000e+00,-2.000000000000000000e+00,-2.000000000000000000e+00,-2.000000000000000000e+00,4.544677734375000000e-01,2.894897460937500000e-01,-8.254394531250000000e-01,1.683349609375000000e-01
-1.500000000000000000e+01,-1.700000000000000000e+01,7.000000000000000000e+00,-1.000000000000000000e+01,-9.000000000000000000e+00,-1.100000000000000000e+01,6.000000000000000000e+00,-9.000000000000000000e+00,4.544677734375000000e-01,2.894897460937500000e-01,-8.254394531250000000e-01,1.683349609375000000e-01
-1.900000000000000000e+01,-8.000000000000000000e+00,-2.200000000000000000e+01,0.000000000000000000e+00,0.000000000000000000e+00,1.200000000000000000e+01,-2.000000000000000000e+00,4.000000000000000000e+00,4.544677734375000000e-01,2.894897460937500000e-01,-8.254394531250000000e-01,1.683349609375000000e-01
-3.000000000000000000e+00,-9.000000000000000000e+00,5.000000000000000000e+00,-8.000000000000000000e+00,0.000000000000000000e+00,0.000000000000000000e+00,-8.000000000000000000e+00,0.000000000000000000e+00,4.544677734375000000e-01,2.894897460937500000e-01,-8.254394531250000000e-01,1.683349609375000000e-01
4.000000000000000000e+00,8.000000000000000000e+00,-2.000000000000000000e+00,1.000000000000000000e+01,1.600000000000000000e+01,3.000000000000000000e+00,3.000000000000000000e+00,1.000000000000000000e+00,4.546508789062500000e-01,2.897338867187500000e-01,-8.252563476562500000e-01,1.683959960937500000e-01
0.000000000000000000e+00,9.000000000000000000e+00,-2.100000000000000000e+01,4.000000000000000000e+00,7.000000000000000000e+00,5.000000000000000000e+00,3.000000000000000000e+00,0.000000000000000000e+00,4.546508789062500000e-01,2.897338867187500000e-01,-8.252563476562500000e-01,1.683959960937500000e-01
