-1.200000000000000000e+01,-7.000000000000000000e+00,7.000000000000000000e+00,2.000000000000000000e+00,-1.000000000000000000e+00,1.000000000000000000e+00,-4.000000000000000000e+00,-2.000000000000000000e+00,4.102783203125000000e-01,1.289672851562500000e-01,-9.017333984375000000e-01,-4.376220703125000000e-02
5.000000000000000000e+00,-2.000000000000000000e+00,-1.000000000000000000e+00,3.000000000000000000e+00,-2.000000000000000000e+00,0.000000000000000000e+00,-2.000000000000000000e+00,-2.000000000000000000e+00,4.102783203125000000e-01,1.289672851562500000e-01,-9.017333984375000000e-01,-4.376220703125000000e-02
-8.000000000000000000e+00,1.000000000000000000e+00,-2.000000000000000000e+00,-7.000000000000000000e+00,-4.000000000000000000e+00,2.000000000000000000e+00,-7.000000000000000000e+00,-2.000000000000000000e+00,4.102172851562500000e-01,1.284179687500000000e-01,-9.017944335937500000e-01,-4.431152343750000000e-02
1.200000000000000000e+01,-5.000000000000000000e+00,-2.000000000000000000e+00,0.000000000000000000e+00,0.000000000000000000e+00,-3.000000000000000000e+00,-5.000000000000000000e+00,1.000000000000000000e+00,4.102172851562500000e-01,1.284179687500000000e-01,-9.017944335937500000e-01,-4.431152343750000000e-02
1.300000000000000000e+01,2.000000000000000000e+00,4.000000000000000000e+00,3.000000000000000000e+00,-1.000000000000000000e+00,1.000000000000000000e+00,-2.000000000000000000e+00,3.000000000000000000e+00,4.102172851562500000e-01,1.284179687500000000e-01,-9.017944335937500000e-01,-4.431152343750000000e-02
-1.300000000000000000e+01,1.000000000000000000e+00,6.000000000000000000e+00,0.000000000000000000e+00,-1.000000000000000000e+00,-4.000000000000000000e+00,3.000000000000000000e+00,-1.000000000000000000e+00,4.102172851562500000e-01,1.284179687500000000e-01,-9.017944335937500000e-01,-4.431152343750000000e-02
-5.000000000000000000e+00,-1.100000000000000000e+01,-2.100000000000000000e+01,-3.000000000000000000e+00,-2.000000000000000000e+00,-2.000000000000000000e+00,-2.000000000000000000e+00,-1.000000000000000000e+00,4.102783203125000000e-01,1.276855468750000000e-01,-9.018554687500000000e-01,-4.467773437500000000e-02
0.000000000000000000e+00,7.000000000000000000e+00,2.300000000000000000e+01,-2.000000000000000000e+00,-4.000000000000000000e+00,0.000000000000000000e+00,5.000000000000000000e+00,-2.000000000000000000e+00,4.102783203125000000e-01,1.276855468750000000e-01,-9.018554687500000000e-01,-4.467773437500000000e-02
1.300000000000000000e+01,-2.000000000000000000e+00,-1.000000000000000000e+01,-5.000000000000000000e+00,-1.000000000000000000e+00,0.000000000000000000e+00,2.000000000000000000e+00,3.000000000000000000e+00,4.102783203125000000e-01,1.276855468750000000e-01,-9.018554687500000000e-01,-4.467773437500000000e-02
1.000000000000000000e+00,9.000000000000000000e+00,1.000000000000000000e+00,8.000000000000000000e+00,-2.000000000000000000e+00,-5.000000000000000000e+00,-4.000000000000000000e+00,-2.000000000000000000e+00,4.102783203125000000e-01,1.276855468750000000e-01,-9.018554687500000000e-01,-4.467773437500000000e-02
-1.700000000000000000e+01,-1.200000000000000000e+01,1.000000000000000000e+00,0.000000000000000000e+00,4.000000000000000000e+00,0.000000000000000000e+00,2.000000000000000000e+00,-2.000000000000000000e+00,4.102783203125000000e-01,1.276855468750000000e-01,-9.018554687500000000e-01,-4.467773437500000000e-02
-2.400000000000000000e+01,-1.800000000000000000e+01,-3.000000000000000000e+01,-7.000000000000000000e+00,2.000000000000000000e+00,-3.000000000000000000e+00,-5.000000000000000000e+00,-4.000000000000000000e+00,4.102783203125000000e-01,1.276855468750000000e-01,-9.018554687500000000e-01,-4.467773437500000000e-02
-1.200000000000000000e+01,5.000000000000000000e+00,8.000000000000000000e+00,-2.000000000000000000e+00,3.000000000000000000e+00,2.000000000000000000e+00,-2.000000000000000000e+00,-2.000000000000000000e+00,4.102783203125000000e-01,1.276855468750000000e-01,-9.018554687500000000e-01,-4.467773437500000000e-02
9.000000000000000000e+00,3.000000000000000000e+00,2.000000000000000000e+00,1.000000000000000000e+00,-4.000000000000000000e+00,3.000000000000000000e+00,4.000000000000000000e+00,2.000000000000000000e+00,4.102783203125000000e-01,1.276855468750000000e-01,-9.018554687500000000e-01,-4.467773437500000000e-02
3.000000000000000000e+00,-6.000000000000000000e+00,3.000000000000000000e+00,7.000000000000000000e+00,-2.000000000000000000e+00,0.000000000000000000e+00,0.000000000000000000e+00,-6.000000000000000000e+00,4.097290039062500000e-01,1.279296875000000000e-01,-9.020996093750000000e-01,-4.467773437500000000e-02
7.000000000000000000e+00,4.000000000000000000e+00,-6.000000000000000000e+00,-1.600000000000000000e+01,-5.000000000000000000e+00,-2.000000000000000000e+00,-7.000000000000000000e+00,-2.000000000000000000e+00,4.097290039062500000e-01,1.279296875000000000e-01,-9.020996093750000000e-01,-4.467773437500000000e-02
-3.000000000000000000e+00,-8.000000000000000000e+00,-8.000000000000000000e+00,2.000000000000000000e+00,-1.000000000000000000e+00,-5.000000000000000000e+00,-2.000000000000000000e+00,-5.000000000000000000e+00,4.097290039062500000e-01,1.279296875000000000e-01,-9.020996093750000000e-01,-4.467773437500000000e-02
2.000000000000000000e+00,0.000000000000000000e+00,6.000000000000000000e+00,0.000000000000000000e+00,6.000000000000000000e+00,2.000000000000000000e+00,7.000000000000000000e+00,0.000000000000000000e+00,4.097290039062500000e-01,1.279296875000000000e-01,-9.020996093750000000e-01,-4.467773437500000000e-02
-1.000000000000000000e+01,1.000000000000000000e+00,-2.000000000000000000e+00,9.000000000000000000e+00,4.000000000000000000e+00,-5.000000000000000000e+00,-2.000000000000000000e+00,0.000000000000000000e+00,4.090576171875000000e-01,1.279907226562500000e-01,-9.024047851562500000e-01,-4.473876953125000000e-02
7.000000000000000000e+00,-1.000000000000000000e+00,1.200000000000000000e+01,5.000000000000000000e+00,-1.000000000000000000e+00,1.000000000000000000e+00,0.000000000000000000e+00,1.000000000000000000e+00,4.090576171875000000e-01,1.279907226562500000e-01,-9.024047851562500000e-01,-4.473876953125000000e-02
-3.000000000000000000e+00,-3.000000000000000000e+00,-1.800000000000000000e+01,-1.000000000000000000e+01,1.000000000000000000e+00,0.000000000000000000e+00,3.000000000000000000e+00,-4.000000000000000000e+00,4.090576171875000000e-01,1.279907226562500000e-01,-9.024047851562500000e-01,-4.473876953125000000e-02
3.000000000000000000e+00,-4.000000000000000000e+00,1.400000000000000000e+01,-6.000000000000000000e+00,-7.000000000000000000e+00,-4.000000000000000000e+00,-1.000000000000000000e+01,-1.000000000000000000e+00,4.090576171875000000e-01,1.279907226562500000e-01,-9.024047851562500000e-01,-4.473876953125000000e-02
0.000000000000000000e+00,-7.000000000000000000e+00,-6.000000000000000000e+00,-2.000000000000000000e+00,-1.000000000000000000e+00,1.000000000000000000e+00,7.000000000000000000e+00,1.000000000000000000e+00,4.082641601562500000e-01,1.279296875000000000e-01,-9.027709960937500000e-01,-4.473876953125000000e-02
-1.000000000000000000e+00,8.000000000000000000e+00,2.200000000000000000e+01,1.000000000000000000e+01,3.000000000000000000e+00,-2.000000000000000000e+00,-3.000000000000000000e+00,1.000000000000000000e+00,4.082641601562500000e-01,1.279296875000000000e-01,-9.027709960937500000e-01,-4.473876953125000000e-02
-2.000000000000000000e+00,4.000000000000000000e+00,-1.400000000000000000e+01,-4.000000000000000000e+00,-5.000000000000000000e+00,-1.000000000000000000e+00,-2.000000000000000000e+00,3.000000000000000000e+00,4.082641601562500000e-01,1.279296875000000000e-01,-9.027709960937500000e-01,-4.473876953125000000e-02
-2.000000000000000000e+00,-8.000000000000000000e+00,6.000000000000000000e+00,-8.000000000000000000e+00,1.000000000000000000e+00,6.000000000000000000e+00,-1.000000000000000000e+00,-2.000000000000000000e+00,4.082641601562500000e-01,1.279296875000000000e-01,-9.027709960937500000e-01,-4.473876953125000000e-02
1.400000000000000000e+01,-1.100000000000000000e+01,-7.000000000000000000e+00,3.000000000000000000e+00,-6.000000000000000000e+00,-3.000000000000000000e+00,-3.000000000000000000e+00,0.000000000000000000e+00,4.075927734375000000e-01,1.278076171875000000e-01,-9.030761718750000000e-01,-4.467773437500000000e-02
-3.500000000000000000e+01,-4.000000000000000000e+00,-7.000000000000000000e+00,-3.000000000000000000e+00,-8.000000000000000000e+00,-4.000000000000000000e+00,-1.000000000000000000e+00,-3.000000000000000000e+00,4.075927734375000000e-01,1.278076171875000000e-01,-9.030761718750000000e-01,-4.467773437500000000e-02
2.000000000000000000e+00,-2.000000000000000000e+01,0.000000000000000000e+00,-8.000000000000000000e+00,0.000000000000000000e+00,0.000000000000000000e+00,5.000000000000000000e+00,1.000000000000000000e+00,4.075927734375000000e-01,1.278076171875000000e-01,-9.030761718750000000e-01,-4.467773437500000000e-02
-5.000000000000000000e+00,7.000000000000000000e+00,5.000000000000000000e+00,6.000000000000000000e+00,2.000000000000000000e+00,0.000000000000000000e+00,-1.000000000000000000e+00,-1.000000000000000000e+00,4.075927734375000000e-01,1.278076171875000000e-01,-9.030761718750000000e-01,-4.467773437500000000e-02
1.300000000000000000e+01,1.900000000000000000e+01,2.000000000000000000e+00,-1.000000000000000000e+00,0.000000000000000000e+00,0.000000000000000000e+00,0.000000000000000000e+00,6.000000000000000000e+00,4.072265625000000000e-01,1.274414062500000000e-01,-9.033203125000000000e-01,-4.461669921875000000e-02
-4.000000000000000000e+00,-1.000000000000000000e+00,-8.000000000000000000e+00,-3.000000000000000000e+00,-1.000000000000000000e+00,2.000000000000000000e+00,-2.000000000000000000e+00,2.000000000000000000e+00,4.072265625000000000e-01,1.274414062500000000e-01,-9.033203125000000000e-01,-4.461669921875000000e-02
2.000000000000000000e+00,-1.100000000000000000e+01,6.000000000000000000e+00,8.000000000000000000e+00,-2.000000000000000000e+00,-2.000000000000000000e+00,1.000000000000000000e+00,0.000000000000000000e+00,4.072265625000000000e-01,1.274414062500000000e-01,-9.033203125000000000e-01,-4.461669921875000000e-02
-9.000000000000000000e+00,-4.000000000000000000e+00,-6.000000000000000000e+00,-5.000000000000000000e+00,-7.000000000000000000e+00,-3.000000000000000000e+00,-1.000000000000000000e+00,1.000000000000000000e+00,4.072265625000000000e-01,1.274414062500000000e-01,-9.033203125000000000e-01,-4.461669921875000000e-02
-4.000000000000000000e+00,-6.000000000000000000e+00,-2.600000000000000000e+01,-1.900000000000000000e+01,-7.000000000000000000e+00,-7.000000000000000000e+00,-7.000000000000000000e+00,-5.000000000000000000e+00,4.068603515625000000e-01,1.270751953125000000e-01,-9.035034179687500000e-01,-4.473876953125000000e-02
2.400000000000000000e+01,8.000000000000000000e+00,4.000000000000000000e+00,7.000000000000000000e+00,3.000000000000000000e+00,-1.000000000000000000e+00,-2.000000000000000000e+00,-1.000000000000000000e+00,4.068603515625000000e-01,1.270751953125000000e-01,-9.035034179687500000e-01,-4.473876953125000000e-02
-1.600000000000000000e+01,1.400000000000000000e+01,5.000000000000000000e+00,6.000000000000000000e+00,6.000000000000000000e+00,1.000000000000000000e+00,-3.000000000000000000e+00,-1.000000000000000000e+00,4.068603515625000000e-01,1.270751953125000000e-01,-9.035034179687500000e-01,-4.473876953125000000e-02
-1.000000000000000000e+01,-1.100000000000000000e+01,4.000000000000000000e+00,4.000000000000000000e+00,0.000000000000000000e+00,-1.000000000000000000e+00,0.000000000000000000e+00,-5.000000000000000000e+00,4.068603515625000000e-01,1.270751953125000000e-01,-9.035034179687500000e-01,-4.473876953125000000e-02
-3.000000000000000000e+00,-6.000000000000000000e+00,-1.000000000000000000e+00,2.000000000000000000e+00,3.000000000000000000e+00,1.000000000000000000e+00,-5.000000000000000000e+00,-2.000000000000000000e+00,4.066162109375000000e-01,1.265869140625000000e-01,-9.036865234375000000e-01,-4.473876953125000000e-02
7.000000000000000000e+00,1.000000000000000000e+00,2.000000000000000000e+01,2.000000000000000000e+00,0.000000000000000000e+00,0.000000000000000000e+00,-4.000000000000000000e+00,-1.000000000000000000e+00,4.066162109375000000e-01,1.265869140625000000e-01,-9.036865234375000000e-01,-4.473876953125000000e-02
2.000000000000000000e+00,-1.000000000000000000e+00,-1.700000000000000000e+01,-6.000000000000000000e+00,-3.000000000000000000e+00,-1.000000000000000000e+00,2.000000000000000000e+00,3.000000000000000000e+00,4.066162109375000000e-01,1.265869140625000000e-01,-9.036865234375000000e-01,-4.473876953125000000e-02
5.000000000000000000e+00,1.000000000000000000e+01,-2.700000000000000000e+01,1.000000000000000000e+00,-3.000000000000000000e+00,1.000000000000000000e+00,1.000000000000000000e+00,0.000000000000000000e+00,4.066162109375000000e-01,1.265869140625000000e-01,-9.036865234375000000e-01,-4.473876953125000000e-02
-6.000000000000000000e+00,-9.000000000000000000e+00,-7.000000000000000000e+00,-1.600000000000000000e+01,-8.000000000000000000e+00,-3.000000000000000000e+00,-6.000000000000000000e+00,-2.000000000000000000e+00,4.064331054687500000e-01,1.265869140625000000e-01,-9.038085937500000000e-01,-4.437255859375000000e-02
-4.000000000000000000e+00,-9.000000000000000000e+00,1.200000000000000000e+01,4.000000000000000000e+00,-6.000000000000000000e+00,-8.000000000000000000e+00,-1.000000000000000000e+00,-5.000000000000000000e+00,4.064331054687500000e-01,1.265869140625000000e-01,-9.038085937500000000e-01,-4.437255859375000000e-02
1.000000000000000000e+01,1.600000000000000000e+01,1.400000000000000000e+01,1.100000000000000000e+01,1.800000000000000000e+01,6.000000000000000000e+00,3.000000000000000000e+00,-2.000000000000000000e+00,4.064331054687500000e-01,1.265869140625000000e-01,-9.038085937500000000e-01,-4.437255859375000000e-02
5.000000000000000000e+00,5.000000000000000000e+00,5.000000000000000000e+00,4.000000000000000000e+00,2.000000000000000000e+00,-1.000000000000000000e+00,-1.000000000000000000e+00,1.000000000000000000e+00,4.064331054687500000e-01,1.265869140625000000e-01,-9.038085937500000000e-01,-4.437255859375000000e-02
-3.000000000000000000e+00,-1.000000000000000000e+00,-5.000000000000000000e+00,-1.000000000000000000e+00,0.000000000000000000e+00,1.000000000000000000e+00,3.000000000000000000e+00,1.000000000000000000e+00,4.061889648437500000e-01,1.268310546875000000e-01,-9.038696289062500000e-01,-4.400634765625000000e-02
-1.300000000000000000e+01,-2.200000000000000000e+01,-1.500000000000000000e+01,-5.000000000000000000e+00,-5.000000000000000000e+00,-1.000000000000000000e+00,-1.000000000000000000e+00,-2.000000000000000000e+00,4.061889648437500000e-01,1.268310546875000000e-01,-9.038696289062500000e-01,-4.400634765625000000e-02
-6.000000000000000000e+00,-1.000000000000000000e+00,6.000000000000000000e+00,-8.000000000000000000e+00,-7.000000000000000000e+00,-6.000000000000000000e+00,-1.000000000000000000e+01,-3.000000000000000000e+00,4.061889648437500000e-01,1.268310546875000000e-01,-9.038696289062500000e-01,-4.400634765625000000e-02
8.000000000000000000e+00,-5.000000000000000000e+00,-4.000000000000000000e+00,-2.000000000000000000e+00,3.000000000000000000e+00,0.000000000000000000e+00,2.000000000000000000e+00,-3.000000000000000000e+00,4.061889648437500000e-01,1.268310546875000000e-01,-9.038696289062500000e-01,-4.400634765625000000e-02
-1.900000000000000000e+01,6.000000000000000000e+00,3.700000000000000000e+01,4.000000000000000000e+00,-6.000000000000000000e+00,-7.000000000000000000e+00,-4.000000000000000000e+00,-5.000000000000000000e+00,4.061279296875000000e-01,1.272583007812500000e-01,-9.038696289062500000e-01,-4.400634765625000000e-02
1.900000000000000000e+01,2.000000000000000000e+00,-6.400000000000000000e+01,-1.100000000000000000e+01,2.000000000000000000e+00,4.000000000000000000e+00,5.000000000000000000e+00,0.000000000000000000e+00,4.061279296875000000e-01,1.272583007812500000e-01,-9.038696289062500000e-01,-4.400634765625000000e-02
-8.000000000000000000e+00,-6.000000000000000000e+00,1.000000000000000000e+01,1.100000000000000000e+01,1.000000000000000000e+00,-3.000000000000000000e+00,-3.000000000000000000e+00,-2.000000000000000000e+00,4.061279296875000000e-01,1.272583007812500000e-01,-9.038696289062500000e-01,-4.400634765625000000e-02
7.000000000000000000e+00,0.000000000000000000e+00,1.400000000000000000e+01,-2.000000000000000000e+00,2.000000000000000000e+00,-2.000000000000000000e+00,-3.000000000000000000e+00,0.000000000000000000e+00,4.061279296875000000e-01,1.272583007812500000e-01,-9.038696289062500000e-01,-4.400634765625000000e-02
-1.300000000000000000e+01,1.000000000000000000e+00,-2.000000000000000000e+00,1.000000000000000000e+00,1.000000000000000000e+00,-1.000000000000000000e+00,0.000000000000000000e+00,2.000000000000000000e+00,4.059448242187500000e-01,1.268310546875000000e-01,-9.039916992187500000e-01,-4.449462890625000000e-02
5.000000000000000000e+00,4.000000000000000000e+00,1.000000000000000000e+01,3.000000000000000000e+00,-1.000000000000000000e+00,1.000000000000000000e+00,-2.000000000000000000e+00,-1.000000000000000000e+00,4.059448242187500000e-01,1.268310546875000000e-01,-9.039916992187500000e-01,-4.449462890625000000e-02
2.000000000000000000e+00,4.000000000000000000e+00,-3.000000000000000000e+00,-5.000000000000000000e+00,-1.000000000000000000e+00,0.000000000000000000e+00,1.000000000000000000e+00,2.000000000000000000e+00,4.059448242187500000e-01,1.268310546875000000e-01,-9.039916992187500000e-01,-4.449462890625000000e-02
7.000000000000000000e+00,1.100000000000000000e+01,-5.000000000000000000e+00,0.000000000000000000e+00,-3.000000000000000000e+00,-3.000000000000000000e+00,-2.000000000000000000e+00,3.000000000000000000e+00,4.059448242187500000e-01,1.268310546875000000e-01,-9.039916992187500000e-01,-4.449462890625000000e-02
4.000000000000000000e+00,-1.000000000000000000e+00,2.000000000000000000e+01,0.000000000000000000e+00,-3.000000000000000000e+00,-1.000000000000000000e+00,0.000000000000000000e+00,1.000000000000000000e+00,4.057006835937500000e-01,1.270141601562500000e-01,-9.040527343750000000e-01,-4.486083984375000000e-02
-4.000000000000000000e+00,-3.200000000000000000e+01,1.000000000000000000e+01,-8.000000000000000000e+00,3.000000000000000000e+00,-2.000000000000000000e+00,-3.000000000000000000e+00,-1.000000000000000000e+00,4.057006835937500000e-01,1.270141601562500000e-01,-9.040527343750000000e-01,-4.486083984375000000e-02
-2.000000000000000000e+00,-5.000000000000000000e+00,3.000000000000000000e+00,-3.000000000000000000e+00,-1.200000000000000000e+01,-1.000000000000000000e+00,2.000000000000000000e+00,-3.000000000000000000e+00,4.057006835937500000e-01,1.270141601562500000e-01,-9.040527343750000000e-01,-4.486083984375000000e-02
-8.000000000000000000e+00,5.000000000000000000e+00,1.000000000000000000e+00,4.000000000000000000e+00,7.000000000000000000e+00,3.000000000000000000e+00,2.000000000000000000e+00,1.000000000000000000e+00,4.057006835937500000e-01,1.270141601562500000e-01,-9.040527343750000000e-01,-4.486083984375000000e-02
3.000000000000000000e+00,-1.000000000000000000e+01,-1.200000000000000000e+01,5.000000000000000000e+00,6.000000000000000000e+00,1.000000000000000000e+00,-3.000000000000000000e+00,-2.000000000000000000e+00,4.055175781250000000e-01,1.270141601562500000e-01,-9.041137695312500000e-01,-4.492187500000000000e-02
3.000000000000000000e+00,1.900000000000000000e+01,1.400000000000000000e+01,2.000000000000000000e+00,-2.000000000000000000e+00,0.000000000000000000e+00,7.000000000000000000e+00,1.000000000000000000e+00,4.055175781250000000e-01,1.270141601562500000e-01,-9.041137695312500000e-01,-4.492187500000000000e-02
8.000000000000000000e+00,6.000000000000000000e+00,5.000000000000000000e+00,-3.000000000000000000e+00,-9.000000000000000000e+00,-1.000000000000000000e+00,0.000000000000000000e+00,0.000000000000000000e+00,4.055175781250000000e-01,1.270141601562500000e-01,-9.041137695312500000e-01,-4.492187500000000000e-02
6.000000000000000000e+00,-5.000000000000000000e+00,-1.200000000000000000e+01,-2.000000000000000000e+00,-1.000000000000000000e+00,-4.000000000000000000e+00,-2.000000000000000000e+00,-2.000000000000000000e+00,4.055175781250000000e-01,1.270141601562500000e-01,-9.041137695312500000e-01,-4.492187500000000000e-02
-2.100000000000000000e+01,-4.000000000000000000e+00,-1.900000000000000000e+01,-4.000000000000000000e+00,2.000000000000000000e+00,-1.000000000000000000e+00,-1.000000000000000000e+00,-4.000000000000000000e+00,4.050292968750000000e-01,1.274414062500000000e-01,-9.042968750000000000e-01,-4.455566406250000000e-02
1.000000000000000000e+00,-3.000000000000000000e+00,-8.000000000000000000e+00,-5.000000000000000000e+00,2.000000000000000000e+00,0.000000000000000000e+00,-7.000000000000000000e+00,-2.000000000000000000e+00,4.050292968750000000e-01,1.274414062500000000e-01,-9.042968750000000000e-01,-4.455566406250000000e-02
-2.000000000000000000e+00,5.000000000000000000e+00,1.300000000000000000e+01,1.500000000000000000e+01,7.000000000000000000e+00,1.000000000000000000e+00,-1.000000000000000000e+00,-1.000000000000000000e+00,4.050292968750000000e-01,1.274414062500000000e-01,-9.042968750000000000e-01,-4.455566406250000000e-02
3.000000000000000000e+00,3.000000000000000000e+00,5.000000000000000000e+00,-1.000000000000000000e+00,-8.000000000000000000e+00,-2.000000000000000000e+00,-1.000000000000000000e+00,-2.000000000000000000e+00,4.050292968750000000e-01,1.274414062500000000e-01,-9.042968750000000000e-01,-4.455566406250000000e-02
1.300000000000000000e+01,2.000000000000000000e+00,-1.100000000000000000e+01,-2.000000000000000000e+00,2.000000000000000000e+00,-1.000000000000000000e+00,-2.000000000000000000e+00,-1.000000000000000000e+00,4.046020507812500000e-01,1.279907226562500000e-01,-9.044189453125000000e-01,-4.418945312500000000e-02
-9.000000000000000000e+00,6.000000000000000000e+00,7.000000000000000000e+00,1.000000000000000000e+00,1.000000000000000000e+00,-1.000000000000000000e+00,1.000000000000000000e+00,-6.000000000000000000e+00,4.046020507812500000e-01,1.279907226562500000e-01,-9.044189453125000000e-01,-4.418945312500000000e-02
1.300000000000000000e+01,5.000000000000000000e+00,-1.100000000000000000e+01,-5.000000000000000000e+00,-1.000000000000000000e+00,1.000000000000000000e+00,7.000000000000000000e+00,3.000000000000000000e+00,4.046020507812500000e-01,1.279907226562500000e-01,-9.044189453125000000e-01,-4.418945312500000000e-02
-1.500000000000000000e+01,-1.900000000000000000e+01,-2.000000000000000000e+00,-1.400000000000000000e+01,-1.000000000000000000e+01,-5.000000000000000000e+00,-8.000000000000000000e+00,-5.000000000000000000e+00,4.046020507812500000e-01,1.279907226562500000e-01,-9.044189453125000000e-01,-4.418945312500000000e-02
-9.000000000000000000e+00,-2.200000000000000000e+01,-1.500000000000000000e+01,5.000000000000000000e+00,0.000000000000000000e+00,-2.000000000000000000e+00,5.000000000000000000e+00,0.000000000000000000e+00,4.043579101562500000e-01,1.279907226562500000e-01,-9.045410156250000000e-01,-4.418945312500000000e-02
-1.000000000000000000e+00,-4.000000000000000000e+00,2.000000000000000000e+00,0.000000000000000000e+00,-3.000000000000000000e+00,-3.000000000000000000e+00,-2.000000000000000000e+00,0.000000000000000000e+00,4.043579101562500000e-01,1.279907226562500000e-01,-9.045410156250000000e-01,-4.418945312500000000e-02
-4.000000000000000000e+00,-6.000000000000000000e+00,-8.000000000000000000e+00,1.000000000000000000e+00,3.000000000000000000e+00,0.000000000000000000e+00,-3.000000000000000000e+00,0.000000000000000000e+00,4.043579101562500000e-01,1.279907226562500000e-01,-9.045410156250000000e-01,-4.418945312500000000e-02
3.000000000000000000e+00,1.000000000000000000e+00,-6.000000000000000000e+00,-4.000000000000000000e+00,-5.000000000000000000e+00,-2.000000000000000000e+00,0.000000000000000000e+00,1.000000000000000000e+00,4.043579101562500000e-01,1.279907226562500000e-01,-9.045410156250000000e-01,-4.418945312500000000e-02
6.000000000000000000e+00,8.000000000000000000e+00,1.200000000000000000e+01,-2.000000000000000000e+00,-4.000000000000000000e+00,1.000000000000000000e+00,-3.000000000000000000e+00,1.000000000000000000e+00,4.042358398437500000e-01,1.273803710937500000e-01,-9.046630859375000000e-01,-4.400634765625000000e-02
3.000000000000000000e+00,1.300000000000000000e+01,2.000000000000000000e+00,1.000000000000000000e+00,3.000000000000000000e+00,2.000000000000000000e+00,-5.000000000000000000e+00,-1.000000000000000000e+00,4.042358398437500000e-01,1.273803710937500000e-01,-9.046630859375000000e-01,-4.400634765625000000e-02
1.000000000000000000e+01,1.000000000000000000e+01,-2.000000000000000000e+00,-5.000000000000000000e+00,-3.000000000000000000e+00,0.000000000000000000e+00,2.000000000000000000e+00,3.000000000000000000e+00,4.042358398437500000e-01,1.273803710937500000e-01,-9.046630859375000000e-01,-4.400634765625000000e-02
-6.000000000000000000e+00,-7.000000000000000000e+00,6.000000000000000000e+00,-2.000000000000000000e+00,-2.000000000000000000e+00,0.000000000000000000e+00,3.000000000000000000e+00,-3.000000000000000000e+00,4.042358398437500000e-01,1.273803710937500000e-01,-9.046630859375000000e-01,-4.400634765625000000e-02
-6.000000000000000000e+00,-1.200000000000000000e+01,-2.200000000000000000e+01,1.000000000000000000e+00,2.000000000000000000e+00,-5.000000000000000000e+00,-5.000000000000000000e+00,-2.000000000000000000e+00,4.042358398437500000e-01,1.270141601562500000e-01,-9.047851562500000000e-01,-4.339599609375000000e-02
0.000000000000000000e+00,1.000000000000000000e+00,-7.000000000000000000e+00,-3.000000000000000000e+00,0.000000000000000000e+00,0.000000000000000000e+00,1.000000000000000000e+00,1.000000000000000000e+00,4.042358398437500000e-01,1.270141601562500000e-01,-9.047851562500000000e-01,-4.339599609375000000e-02
-2.000000000000000000e+00,-2.000000000000000000e+00,-1.000000000000000000e+00,-4.000000000000000000e+00,-4.000000000000000000e+00,-3.000000000000000000e+00,-5.000000000000000000e+00,-3.000000000000000000e+00,4.042358398437500000e-01,1.270141601562500000e-01,-9.047851562500000000e-01,-4.339599609375000000e-02
0.000000000000000000e+00,-1.000000000000000000e+00,-6.000000000000000000e+00,0.000000000000000000e+00,3.000000000000000000e+00,0.000000000000000000e+00,-4.000000000000000000e+00,-2.000000000000000000e+00,4.042358398437500000e-01,1.270141601562500000e-01,-9.047851562500000000e-01,-4.339599609375000000e-02
5.000000000000000000e+00,1.400000000000000000e+01,1.600000000000000000e+01,0.000000000000000000e+00,-1.000000000000000000e+00,1.000000000000000000e+00,2.000000000000000000e+00,-1.000000000000000000e+00,4.041137695312500000e-01,1.278076171875000000e-01,-9.047241210937500000e-01,-4.235839843750000000e-02
0.000000000000000000e+00,0.000000000000000000e+00,-7.000000000000000000e+00,1.000000000000000000e+00,-3.000000000000000000e+00,-1.000000000000000000e+00,-2.000000000000000000e+00,-2.000000000000000000e+00,4.041137695312500000e-01,1.278076171875000000e-01,-9.047241210937500000e-01,-4.235839843750000000e-02
1.000000000000000000e+00,1.000000000000000000e+00,-5.000000000000000000e+00,-3.000000000000000000e+00,-1.100000000000000000e+01,-3.000000000000000000e+00,-2.000000000000000000e+00,0.000000000000000000e+00,4.041137695312500000e-01,1.278076171875000000e-01,-9.047241210937500000e-01,-4.235839843750000000e-02
1.000000000000000000e+01,1.100000000000000000e+01,3.600000000000000000e+01,-3.000000000000000000e+00,5.000000000000000000e+00,0.000000000000000000e+00,8.000000000000000000e+00,2.000000000000000000e+00,4.041137695312500000e-01,1.278076171875000000e-01,-9.047241210937500000e-01,-4.235839843750000000e-02
-3.000000000000000000e+01,-2.600000000000000000e+01,-2.900000000000000000e+01,1.500000000000000000e+01,1.600000000000000000e+01,4.000000000000000000e+00,2.000000000000000000e+00,-2.000000000000000000e+00,4.040527343750000000e-01,1.281738281250000000e-01,-9.047851562500000000e-01,-4.174804687500000000e-02
0.000000000000000000e+00,-1.100000000000000000e+01,2.600000000000000000e+01,-1.000000000000000000e+00,0.000000000000000000e+00,-2.000000000000000000e+00,1.000000000000000000e+00,-1.000000000000000000e+00,4.040527343750000000e-01,1.281738281250000000e-01,-9.047851562500000000e-01,-4.174804687500000000e-02
-6.000000000000000000e+00,-9.000000000000000000e+00,-2.500000000000000000e+01,-3.000000000000000000e+00,0.000000000000000000e+00,-1.000000000000000000e+00,-3.000000000000000000e+00,-1.000000000000000000e+00,4.040527343750000000e-01,1.281738281250000000e-01,-9.047851562500000000e-01,-4.174804687500000000e-02
-6.000000000000000000e+00,-1.100000000000000000e+01,-1.400000000000000000e+01,2.000000000000000000e+00,-5.000000000000000000e+00,-4.000000000000000000e+00,-6.000000000000000000e+00,-2.000000000000000000e+00,4.040527343750000000e-01,1.281738281250000000e-01,-9.047851562500000000e-01,-4.174804687500000000e-02
1.600000000000000000e+01,2.200000000000000000e+01,1.900000000000000000e+01,-4.000000000000000000e+00,-1.100000000000000000e+01,-2.000000000000000000e+00,-2.000000000000000000e+00,0.000000000000000000e+00,4.038085937500000000e-01,1.285400390625000000e-01,-9.048461914062500000e-01,-4.125976562500000000e-02
3.000000000000000000e+00,-1.000000000000000000e+00,-5.000000000000000000e+00,-1.000000000000000000e+00,0.000000000000000000e+00,-2.000000000000000000e+00,1.000000000000000000e+00,2.000000000000000000e+00,4.038085937500000000e-01,1.285400390625000000e-01,-9.048461914062500000e-01,-4.125976562500000000e-02
-4.000000000000000000e+00,3.000000000000000000e+00,3.000000000000000000e+00,-2.000000000000000000e+00,0.000000000000000000e+00,0.000000000000000000e+00,-2.000000000000000000e+00,-1.000000000000000000e+00,4.038085937500000000e-01,1.285400390625000000e-01,-9.048461914062500000e-01,-4.125976562500000000e-02
1.000000000000000000e+00,1.100000000000000000e+01,3.000000000000000000e+00,2.000000000000000000e+00,-1.000000000000000000e+00,4.000000000000000000e+00,2.000000000000000000e+00,1.000000000000000000e+00,4.038085937500000000e-01,1.285400390625000000e-01,-9.048461914062500000e-01,-4.125976562500000000e-02
3.000000000000000000e+00,-5.000000000000000000e+00,-1.400000000000000000e+01,-8.000000000000000000e+00,1.000000000000000000e+00,-6.000000000000000000e+00,-6.000000000000000000e+00,-4.000000000000000000e+00,4.039306640625000000e-01,1.284790039062500000e-01,-9.047851562500000000e-01,-4.144287109375000000e-02
-1.000000000000000000e+00,1.400000000000000000e+01,7.000000000000000000e+00,1.600000000000000000e+01,1.000000000000000000e+00,1.000000000000000000e+00,8.000000000000000000e+00,-4.000000000000000000e+00,4.039306640625000000e-01,1.284790039062500000e-01,-9.047851562500000000e-01,-4.144287109375000000e-02
-1.200000000000000000e+01,-6.000000000000000000e+00,1.400000000000000000e+01,-1.000000000000000000e+01,-5.000000000000000000e+00,-4.000000000000000000e+00,-2.000000000000000000e+00,-3.000000000000000000e+00,4.039306640625000000e-01,1.284790039062500000e-01,-9.047851562500000000e-01,-4.144287109375000000e-02
-8.000000000000000000e+00,-1.900000000000000000e+01,-2.100000000000000000e+01,0.000000000000000000e+00,4.000000000000000000e+00,1.000000000000000000e+00,0.000000000000000000e+00,2.000000000000000000e+00,4.039306640625000000e-01,1.284790039062500000e-01,-9.047851562500000000e-01,-4.144287109375000000e-02
9.000000000000000000e+00,0.000000000000000000e+00,8.000000000000000000e+00,-6.000000000000000000e+00,-7.000000000000000000e+00,-1.000000000000000000e+00,-3.000000000000000000e+00,0.000000000000000000e+00,4.038085937500000000e-01,1.280517578125000000e-01,-9.049072265625000000e-01,-4.138183593750000000e-02
3.000000000000000000e+00,1.000000000000000000e+00,-1.400000000000000000e+01,-3.000000000000000000e+00,-4.000000000000000000e+00,-1.000000000000000000e+00,-3.000000000000000000e+00,-1.000000000000000000e+00,4.038085937500000000e-01,1.280517578125000000e-01,-9.049072265625000000e-01,-4.138183593750000000e-02
8.000000000000000000e+00,8.000000000000000000e+00,3.000000000000000000e+00,4.000000000000000000e+00,6.000000000000000000e+00,1.000000000000000000e+00,0.000000000000000000e+00,0.000000000000000000e+00,4.038085937500000000e-01,1.280517578125000000e-01,-9.049072265625000000e-01,-4.138183593750000000e-02
-2.000000000000000000e+00,1.700000000000000000e+01,0.000000000000000000e+00,0.000000000000000000e+00,-2.000000000000000000e+00,-1.000000000000000000e+00,0.000000000000000000e+00,1.000000000000000000e+00,4.038085937500000000e-01,1.280517578125000000e-01,-9.049072265625000000e-01,-4.138183593750000000e-02
-1.600000000000000000e+01,-2.200000000000000000e+01,5.000000000000000000e+00,-5.000000000000000000e+00,-1.300000000000000000e+01,-3.000000000000000000e+00,3.000000000000000000e+00,-1.000000000000000000e+00,4.036254882812500000e-01,1.283569335937500000e-01,-9.049682617187500000e-01,-4.083251953125000000e-02
9.000000000000000000e+00,-7.000000000000000000e+00,-2.100000000000000000e+01,0.000000000000000000e+00,8.000000000000000000e+00,-5.000000000000000000e+00,0.000000000000000000e+00,0.000000000000000000e+00,4.036254882812500000e-01,1.283569335937500000e-01,-9.049682617187500000e-01,-4.083251953125000000e-02
-1.100000000000000000e+01,-1.600000000000000000e+01,1.100000000000000000e+01,-5.000000000000000000e+00,-3.000000000000000000e+00,-1.000000000000000000e+00,-1.000000000000000000e+00,-3.000000000000000000e+00,4.036254882812500000e-01,1.283569335937500000e-01,-9.049682617187500000e-01,-4.083251953125000000e-02
-6.000000000000000000e+00,-8.000000000000000000e+00,1.000000000000000000e+00,5.000000000000000000e+00,1.000000000000000000e+00,-1.000000000000000000e+00,-2.000000000000000000e+00,-3.000000000000000000e+00,4.036254882812500000e-01,1.283569335937500000e-01,-9.049682617187500000e-01,-4.083251953125000000e-02
1.600000000000000000e+01,2.000000000000000000e+01,9.000000000000000000e+00,0.000000000000000000e+00,1.000000000000000000e+00,1.000000000000000000e+00,2.000000000000000000e+00,2.000000000000000000e+00,4.032592773437500000e-01,1.290893554687500000e-01,-9.050903320312500000e-01,-4.010009765625000000e-02
5.000000000000000000e+00,2.000000000000000000e+00,1.000000000000000000e+00,-4.000000000000000000e+00,-2.000000000000000000e+00,0.000000000000000000e+00,-1.000000000000000000e+00,1.000000000000000000e+00,4.032592773437500000e-01,1.290893554687500000e-01,-9.050903320312500000e-01,-4.010009765625000000e-02
3.000000000000000000e+00,1.000000000000000000e+00,-9.000000000000000000e+00,-4.000000000000000000e+00,-5.000000000000000000e+00,-5.000000000000000000e+00,-4.000000000000000000e+00,0.000000000000000000e+00,4.032592773437500000e-01,1.290893554687500000e-01,-9.050903320312500000e-01,-4.010009765625000000e-02
-2.000000000000000000e+00,-3.000000000000000000e+00,-9.000000000000000000e+00,-6.000000000000000000e+00,-5.000000000000000000e+00,-5.000000000000000000e+00,-2.000000000000000000e+00,-1.000000000000000000e+00,4.032592773437500000e-01,1.290893554687500000e-01,-9.050903320312500000e-01,-4.010009765625000000e-02
9.000000000000000000e+00,6.000000000000000000e+00,4.000000000000000000e+00,2.000000000000000000e+00,2.000000000000000000e+00,1.000000000000000000e+00,1.000000000000000000e+00,1.000000000000000000e+00,4.031372070312500000e-01,1.297607421875000000e-01,-9.050292968750000000e-01,-3.967285156250000000e-02
-1.900000000000000000e+01,-3.000000000000000000e+00,8.000000000000000000e+00,5.000000000000000000e+00,2.000000000000000000e+00,2.000000000000000000e+00,-3.000000000000000000e+00,-5.000000000000000000e+00,4.031372070312500000e-01,1.297607421875000000e-01,-9.050292968750000000e-01,-3.967285156250000000e-02
5.000000000000000000e+00,-1.000000000000000000e+00,-1.100000000000000000e+01,-3.000000000000000000e+00,-2.000000000000000000e+00,1.000000000000000000e+00,-5.000000000000000000e+00,-2.000000000000000000e+00,4.031372070312500000e-01,1.297607421875000000e-01,-9.050292968750000000e-01,-3.967285156250000000e-02
-1.500000000000000000e+01,-1.100000000000000000e+01,-2.100000000000000000e+01,-1.000000000000000000e+01,-1.000000000000000000e+01,-4.000000000000000000e+00,-6.000000000000000000e+00,-7.000000000000000000e+00,4.031372070312500000e-01,1.297607421875000000e-01,-9.050292968750000000e-01,-3.967285156250000000e-02
4.000000000000000000e+00,-1.000000000000000000e+00,-4.000000000000000000e+00,8.000000000000000000e+00,1.300000000000000000e+01,-1.000000000000000000e+00,-5.000000000000000000e+00,-4.000000000000000000e+00,4.025878906250000000e-01,1.298828125000000000e-01,-9.052734375000000000e-01,-3.930664062500000000e-02
-5.000000000000000000e+00,-4.000000000000000000e+00,1.500000000000000000e+01,4.000000000000000000e+00,-4.000000000000000000e+00,-1.000000000000000000e+00,-2.000000000000000000e+00,-1.000000000000000000e+00,4.025878906250000000e-01,1.298828125000000000e-01,-9.052734375000000000e-01,-3.930664062500000000e-02
-2.000000000000000000e+00,1.000000000000000000e+00,-5.000000000000000000e+00,1.000000000000000000e+00,1.000000000000000000e+00,1.000000000000000000e+00,1.000000000000000000e+00,1.000000000000000000e+00,4.025878906250000000e-01,1.298828125000000000e-01,-9.052734375000000000e-01,-3.930664062500000000e-02
1.000000000000000000e+01,2.000000000000000000e+00,-5.000000000000000000e+00,0.000000000000000000e+00,-1.000000000000000000e+00,1.000000000000000000e+00,2.000000000000000000e+00,2.000000000000000000e+00,4.025878906250000000e-01,1.298828125000000000e-01,-9.052734375000000000e-01,-3.930664062500000000e-02
3.000000000000000000e+00,7.000000000000000000e+00,2.000000000000000000e+00,-8.000000000000000000e+00,-9.000000000000000000e+00,-4.000000000000000000e+00,-2.000000000000000000e+00,0.000000000000000000e+00,4.020996093750000000e-01,1.307373046875000000e-01,-9.053955078125000000e-01,-3.887939453125000000e-02
-1.100000000000000000e+01,-9.000000000000000000e+00,-1.000000000000000000e+00,-5.000000000000000000e+00,2.000000000000000000e+00,1.000000000000000000e+00,-6.000000000000000000e+00,-4.000000000000000000e+00,4.020996093750000000e-01,1.307373046875000000e-01,-9.053955078125000000e-01,-3.887939453125000000e-02
1.000000000000000000e+00,0.000000000000000000e+00,2.000000000000000000e+00,7.000000000000000000e+00,-1.000000000000000000e+00,-4.000000000000000000e+00,-2.000000000000000000e+00,-2.000000000000000000e+00,4.020996093750000000e-01,1.307373046875000000e-01,-9.053955078125000000e-01,-3.887939453125000000e-02
7.000000000000000000e+00,6.000000000000000000e+00,1.500000000000000000e+01,1.100000000000000000e+01,3.000000000000000000e+00,-2.000000000000000000e+00,0.000000000000000000e+00,0.000000000000000000e+00,4.020996093750000000e-01,1.307373046875000000e-01,-9.053955078125000000e-01,-3.887939453125000000e-02
8.000000000000000000e+00,-7.000000000000000000e+00,-2.500000000000000000e+01,-1.100000000000000000e+01,-3.000000000000000000e+00,0.000000000000000000e+00,7.000000000000000000e+00,0.000000000000000000e+00,4.015502929687500000e-01,1.313476562500000000e-01,-9.055786132812500000e-01,-3.875732421875000000e-02
-3.900000000000000000e+01,-1.300000000000000000e+01,-6.000000000000000000e+00,-1.200000000000000000e+01,1.000000000000000000e+00,1.000000000000000000e+00,-4.000000000000000000e+00,-3.000000000000000000e+00,4.015502929687500000e-01,1.313476562500000000e-01,-9.055786132812500000e-01,-3.875732421875000000e-02
-4.000000000000000000e+00,-2.400000000000000000e+01,-2.800000000000000000e+01,-1.100000000000000000e+01,-3.000000000000000000e+00,-1.000000000000000000e+00,-1.000000000000000000e+00,-3.000000000000000000e+00,4.015502929687500000e-01,1.313476562500000000e-01,-9.055786132812500000e-01,-3.875732421875000000e-02
-4.000000000000000000e+00,-7.000000000000000000e+00,1.000000000000000000e+00,0.000000000000000000e+00,-3.000000000000000000e+00,-1.000000000000000000e+00,-2.000000000000000000e+00,-2.000000000000000000e+00,4.015502929687500000e-01,1.313476562500000000e-01,-9.055786132812500000e-01,-3.875732421875000000e-02
5.000000000000000000e+00,9.000000000000000000e+00,8.000000000000000000e+00,1.000000000000000000e+00,-3.000000000000000000e+00,-1.000000000000000000e+00,-2.000000000000000000e+00,-2.000000000000000000e+00,4.010620117187500000e-01,1.315917968750000000e-01,-9.057617187500000000e-01,-3.881835937500000000e-02
1.200000000000000000e+01,9.000000000000000000e+00,-7.000000000000000000e+00,-1.000000000000000000e+00,-3.000000000000000000e+00,-2.000000000000000000e+00,2.000000000000000000e+00,3.000000000000000000e+00,4.010620117187500000e-01,1.315917968750000000e-01,-9.057617187500000000e-01,-3.881835937500000000e-02
-4.000000000000000000e+00,5.000000000000000000e+00,6.000000000000000000e+00,2.000000000000000000e+00,1.000000000000000000e+00,-1.000000000000000000e+00,-2.000000000000000000e+00,-2.000000000000000000e+00,4.010620117187500000e-01,1.315917968750000000e-01,-9.057617187500000000e-01,-3.881835937500000000e-02
-1.000000000000000000e+00,2.000000000000000000e+00,-1.000000000000000000e+00,0.000000000000000000e+00,5.000000000000000000e+00,2.000000000000000000e+00,-1.000000000000000000e+00,-3.000000000000000000e+00,4.010620117187500000e-01,1.315917968750000000e-01,-9.057617187500000000e-01,-3.881835937500000000e-02
-2.000000000000000000e+00,0.000000000000000000e+00,3.000000000000000000e+00,-1.000000000000000000e+00,-1.000000000000000000e+01,-1.000000000000000000e+00,-1.000000000000000000e+00,-2.000000000000000000e+00,4.005126953125000000e-01,1.317138671875000000e-01,-9.059448242187500000e-01,-3.863525390625000000e-02
1.000000000000000000e+01,7.000000000000000000e+00,0.000000000000000000e+00,-3.000000000000000000e+00,8.000000000000000000e+00,2.000000000000000000e+00,1.000000000000000000e+00,2.000000000000000000e+00,4.005126953125000000e-01,1.317138671875000000e-01,-9.059448242187500000e-01,-3.863525390625000000e-02
7.000000000000000000e+00,1.300000000000000000e+01,8.000000000000000000e+00,3.000000000000000000e+00,0.000000000000000000e+00,-2.000000000000000000e+00,-3.000000000000000000e+00,0.000000000000000000e+00,4.005126953125000000e-01,1.317138671875000000e-01,-9.059448242187500000e-01,-3.863525390625000000e-02
-3.000000000000000000e+01,-7.000000000000000000e+00,6.000000000000000000e+00,5.000000000000000000e+00,2.000000000000000000e+00,-2.000000000000000000e+00,9.000000000000000000e+00,0.000000000000000000e+00,4.005126953125000000e-01,1.317138671875000000e-01,-9.059448242187500000e-01,-3.863525390625000000e-02
-7.000000000000000000e+00,-2.100000000000000000e+01,-3.000000000000000000e+00,-5.000000000000000000e+00,1.000000000000000000e+00,1.000000000000000000e+00,-3.000000000000000000e+00,-1.000000000000000000e+00,4.000854492187500000e-01,1.325683593750000000e-01,-9.060058593750000000e-01,-3.826904296875000000e-02
6.000000000000000000e+00,1.000000000000000000e+01,-1.000000000000000000e+00,1.000000000000000000e+00,-1.000000000000000000e+01,-3.000000000000000000e+00,0.000000000000000000e+00,0.000000000000000000e+00,4.000854492187500000e-01,1.325683593750000000e-01,-9.060058593750000000e-01,-3.826904296875000000e-02
1.000000000000000000e+00,-1.300000000000000000e+01,0.000000000000000000e+00,1.000000000000000000e+00,4.000000000000000000e+00,1.000000000000000000e+00,0.000000000000000000e+00,-3.000000000000000000e+00,4.000854492187500000e-01,1.325683593750000000e-01,-9.060058593750000000e-01,-3.826904296875000000e-02
6.000000000000000000e+00,2.000000000000000000e+00,0.000000000000000000e+00,0.000000000000000000e+00,3.000000000000000000e+00,0.000000000000000000e+00,-1.000000000000000000e+00,0.000000000000000000e+00,4.000854492187500000e-01,1.325683593750000000e-01,-9.060058593750000000e-01,-3.826904296875000000e-02
-3.000000000000000000e+00,4.000000000000000000e+00,3.000000000000000000e+00,-2.000000000000000000e+00,0.000000000000000000e+00,1.000000000000000000e+00,-1.000000000000000000e+00,-1.000000000000000000e+00,3.999023437500000000e-01,1.333007812500000000e-01,-9.060668945312500000e-01,-3.802490234375000000e-02
6.000000000000000000e+00,2.000000000000000000e+00,-4.000000000000000000e+00,-7.000000000000000000e+00,-5.000000000000000000e+00,-7.000000000000000000e+00,-3.000000000000000000e+00,1.000000000000000000e+00,3.999023437500000000e-01,1.333007812500000000e-01,-9.060668945312500000e-01,-3.802490234375000000e-02
1.000000000000000000e+00,7.000000000000000000e+00,5.000000000000000000e+00,4.000000000000000000e+00,-2.000000000000000000e+00,1.000000000000000000e+00,0.000000000000000000e+00,2.000000000000000000e+00,3.999023437500000000e-01,1.333007812500000000e-01,-9.060668945312500000e-01,-3.802490234375000000e-02
1.000000000000000000e+00,-2.000000000000000000e+00,-5.000000000000000000e+00,1.000000000000000000e+00,1.000000000000000000e+00,0.000000000000000000e+00,-6.000000000000000000e+00,-3.000000000000000000e+00,3.999023437500000000e-01,1.333007812500000000e-01,-9.060668945312500000e-01,-3.802490234375000000e-02
-3.000000000000000000e+00,2.000000000000000000e+00,1.000000000000000000e+00,1.000000000000000000e+00,2.000000000000000000e+00,0.000000000000000000e+00,-2.000000000000000000e+00,-2.000000000000000000e+00,3.998413085937500000e-01,1.334838867187500000e-01,-9.060058593750000000e-01,-3.796386718750000000e-02
8.000000000000000000e+00,-6.000000000000000000e+00,-2.000000000000000000e+00,3.000000000000000000e+00,-7.000000000000000000e+00,-4.000000000000000000e+00,-1.000000000000000000e+00,0.000000000000000000e+00,3.998413085937500000e-01,1.334838867187500000e-01,-9.060058593750000000e-01,-3.796386718750000000e-02
-3.000000000000000000e+00,1.000000000000000000e+01,1.000000000000000000e+01,-5.000000000000000000e+00,3.000000000000000000e+00,-1.000000000000000000e+00,6.000000000000000000e+00,2.000000000000000000e+00,3.998413085937500000e-01,1.334838867187500000e-01,-9.060058593750000000e-01,-3.796386718750000000e-02
6.000000000000000000e+00,-2.000000000000000000e+00,-2.300000000000000000e+01,-1.100000000000000000e+01,-5.000000000000000000e+00,-2.000000000000000000e+00,-2.000000000000000000e+00,-2.000000000000000000e+00,3.998413085937500000e-01,1.334838867187500000e-01,-9.060058593750000000e-01,-3.796386718750000000e-02
-4.000000000000000000e+00,2.000000000000000000e+00,2.500000000000000000e+01,0.000000000000000000e+00,3.000000000000000000e+00,1.000000000000000000e+00,-1.000000000000000000e+00,-3.000000000000000000e+00,3.999023437500000000e-01,1.337280273437500000e-01,-9.059448242187500000e-01,-3.778076171875000000e-02
-9.000000000000000000e+00,-1.500000000000000000e+01,-1.400000000000000000e+01,-2.000000000000000000e+00,-4.000000000000000000e+00,-2.000000000000000000e+00,-3.000000000000000000e+00,-3.000000000000000000e+00,3.999023437500000000e-01,1.337280273437500000e-01,-9.059448242187500000e-01,-3.778076171875000000e-02
-7.000000000000000000e+00,-4.000000000000000000e+00,0.000000000000000000e+00,2.000000000000000000e+00,-4.000000000000000000e+00,-1.000000000000000000e+00,-8.000000000000000000e+00,-2.000000000000000000e+00,3.999023437500000000e-01,1.337280273437500000e-01,-9.059448242187500000e-01,-3.778076171875000000e-02
6.000000000000000000e+00,0.000000000000000000e+00,-5.000000000000000000e+00,-1.200000000000000000e+01,-1.300000000000000000e+01,-1.000000000000000000e+00,4.000000000000000000e+00,1.000000000000000000e+00,3.999023437500000000e-01,1.337280273437500000e-01,-9.059448242187500000e-01,-3.778076171875000000e-02
1.000000000000000000e+00,1.200000000000000000e+01,2.000000000000000000e+00,1.200000000000000000e+01,1.000000000000000000e+01,1.000000000000000000e+00,-1.000000000000000000e+00,1.000000000000000000e+00,4.000854492187500000e-01,1.342163085937500000e-01,-9.058227539062500000e-01,-3.778076171875000000e-02
2.000000000000000000e+00,-6.000000000000000000e+00,3.000000000000000000e+00,8.000000000000000000e+00,4.000000000000000000e+00,2.000000000000000000e+00,-1.000000000000000000e+00,-2.000000000000000000e+00,4.000854492187500000e-01,1.342163085937500000e-01,-9.058227539062500000e-01,-3.778076171875000000e-02
2.000000000000000000e+00,3.000000000000000000e+00,-9.000000000000000000e+00,-2.000000000000000000e+00,1.000000000000000000e+00,-1.000000000000000000e+00,0.000000000000000000e+00,2.000000000000000000e+00,4.000854492187500000e-01,1.342163085937500000e-01,-9.058227539062500000e-01,-3.778076171875000000e-02
3.000000000000000000e+00,6.000000000000000000e+00,2.100000000000000000e+01,-2.000000000000000000e+00,-3.000000000000000000e+00,-3.000000000000000000e+00,-7.000000000000000000e+00,-2.000000000000000000e+00,4.000854492187500000e-01,1.342163085937500000e-01,-9.058227539062500000e-01,-3.778076171875000000e-02
-4.000000000000000000e+00,-5.000000000000000000e+00,9.000000000000000000e+00,2.000000000000000000e+00,-8.000000000000000000e+00,-3.000000000000000000e+00,-4.000000000000000000e+00,-4.000000000000000000e+00,4.001464843750000000e-01,1.343383789062500000e-01,-9.057617187500000000e-01,-3.820800781250000000e-02
1.100000000000000000e+01,7.000000000000000000e+00,-6.000000000000000000e+00,-8.000000000000000000e+00,1.000000000000000000e+00,1.000000000000000000e+00,1.000000000000000000e+00,0.000000000000000000e+00,4.001464843750000000e-01,1.343383789062500000e-01,-9.057617187500000000e-01,-3.820800781250000000e-02
-2.000000000000000000e+00,-4.000000000000000000e+00,-1.500000000000000000e+01,-2.000000000000000000e+00,-2.000000000000000000e+00,-2.000000000000000000e+00,-2.000000000000000000e+00,0.000000000000000000e+00,4.001464843750000000e-01,1.343383789062500000e-01,-9.057617187500000000e-01,-3.820800781250000000e-02
-1.900000000000000000e+01,-1.900000000000000000e+01,3.000000000000000000e+00,6.000000000000000000e+00,1.000000000000000000e+00,-1.000000000000000000e+00,-1.000000000000000000e+00,-3.000000000000000000e+00,4.001464843750000000e-01,1.343383789062500000e-01,-9.057617187500000000e-01,-3.820800781250000000e-02
-5.000000000000000000e+00,3.000000000000000000e+00,1.400000000000000000e+01,-5.000000000000000000e+00,-2.000000000000000000e+00,-6.000000000000000000e+00,1.000000000000000000e+00,-1.000000000000000000e+00,4.002685546875000000e-01,1.341552734375000000e-01,-9.057006835937500000e-01,-3.863525390625000000e-02
-8.000000000000000000e+00,-8.000000000000000000e+00,6.000000000000000000e+00,0.000000000000000000e+00,0.000000000000000000e+00,-1.000000000000000000e+00,-2.000000000000000000e+00,0.000000000000000000e+00,4.002685546875000000e-01,1.341552734375000000e-01,-9.057006835937500000e-01,-3.863525390625000000e-02
8.000000000000000000e+00,1.000000000000000000e+01,7.000000000000000000e+00,-4.000000000000000000e+00,0.000000000000000000e+00,1.000000000000000000e+00,0.000000000000000000e+00,1.000000000000000000e+00,4.002685546875000000e-01,1.341552734375000000e-01,-9.057006835937500000e-01,-3.863525390625000000e-02
5.000000000000000000e+00,4.000000000000000000e+00,-1.000000000000000000e+01,7.000000000000000000e+00,-1.000000000000000000e+00,-4.000000000000000000e+00,-5.000000000000000000e+00,1.000000000000000000e+00,4.002685546875000000e-01,1.341552734375000000e-01,-9.057006835937500000e-01,-3.863525390625000000e-02
-6.000000000000000000e+00,-1.000000000000000000e+01,5.000000000000000000e+00,-6.000000000000000000e+00,0.000000000000000000e+00,2.000000000000000000e+00,4.000000000000000000e+00,-1.000000000000000000e+00,4.000244140625000000e-01,1.343383789062500000e-01,-9.057617187500000000e-01,-3.881835937500000000e-02
5.000000000000000000e+00,1.400000000000000000e+01,-9.000000000000000000e+00,1.000000000000000000e+00,0.000000000000000000e+00,0.000000000000000000e+00,2.000000000000000000e+00,-1.000000000000000000e+00,4.000244140625000000e-01,1.343383789062500000e-01,-9.057617187500000000e-01,-3.881835937500000000e-02
3.000000000000000000e+00,-1.100000000000000000e+01,1.600000000000000000e+01,7.000000000000000000e+00,-1.000000000000000000e+00,0.000000000000000000e+00,0.000000000000000000e+00,-3.000000000000000000e+00,4.000244140625000000e-01,1.343383789062500000e-01,-9.057617187500000000e-01,-3.881835937500000000e-02
-7.000000000000000000e+00,-2.000000000000000000e+00,5.000000000000000000e+00,-3.000000000000000000e+00,-1.000000000000000000e+00,1.000000000000000000e+00,-1.000000000000000000e+00,0.000000000000000000e+00,4.000244140625000000e-01,1.343383789062500000e-01,-9.057617187500000000e-01,-3.881835937500000000e-02
-2.000000000000000000e+00,-2.000000000000000000e+00,-1.300000000000000000e+01,-1.000000000000000000e+00,-1.000000000000000000e+00,0.000000000000000000e+00,-3.000000000000000000e+00,3.000000000000000000e+00,3.995361328125000000e-01,1.349487304687500000e-01,-9.058837890625000000e-01,-3.912353515625000000e-02
1.900000000000000000e+01,-2.000000000000000000e+00,1.000000000000000000e+00,-8.000000000000000000e+00,-9.000000000000000000e+00,-5.000000000000000000e+00,-3.000000000000000000e+00,3.000000000000000000e+00,3.995361328125000000e-01,1.349487304687500000e-01,-9.058837890625000000e-01,-3.912353515625000000e-02
-2.000000000000000000e+01,-4.000000000000000000e+00,-5.000000000000000000e+00,-7.000000000000000000e+00,-7.000000000000000000e+00,-6.000000000000000000e+00,-6.000000000000000000e+00,-7.000000000000000000e+00,3.995361328125000000e-01,1.349487304687500000e-01,-9.058837890625000000e-01,-3.912353515625000000e-02
1.900000000000000000e+01,1.300000000000000000e+01,1.900000000000000000e+01,1.900000000000000000e+01,3.000000000000000000e+00,4.000000000000000000e+00,4.000000000000000000e+00,0.000000000000000000e+00,3.995361328125000000e-01,1.349487304687500000e-01,-9.058837890625000000e-01,-3.912353515625000000e-02
-7.000000000000000000e+00,-1.000000000000000000e+01,-5.300000000000000000e+01,-1.700000000000000000e+01,0.000000000000000000e+00,-3.000000000000000000e+00,-3.000000000000000000e+00,-1.000000000000000000e+00,3.991699218750000000e-01,1.351928710937500000e-01,-9.060058593750000000e-01,-3.936767578125000000e-02
-1.000000000000000000e+00,5.000000000000000000e+00,6.000000000000000000e+00,5.000000000000000000e+00,3.000000000000000000e+00,0.000000000000000000e+00,-1.000000000000000000e+00,0.000000000000000000e+00,3.991699218750000000e-01,1.351928710937500000e-01,-9.060058593750000000e-01,-3.936767578125000000e-02
2.000000000000000000e+00,-1.500000000000000000e+01,-2.500000000000000000e+01,-1.100000000000000000e+01,-1.000000000000000000e+00,-1.000000000000000000e+00,-1.000000000000000000e+00,-2.000000000000000000e+00,3.991699218750000000e-01,1.351928710937500000e-01,-9.060058593750000000e-01,-3.936767578125000000e-02
-1.000000000000000000e+00,3.000000000000000000e+00,6.000000000000000000e+00,-4.000000000000000000e+00,-5.000000000000000000e+00,-3.000000000000000000e+00,-6.000000000000000000e+00,-2.000000000000000000e+00,3.991699218750000000e-01,1.351928710937500000e-01,-9.060058593750000000e-01,-3.936767578125000000e-02
2.000000000000000000e+00,7.000000000000000000e+00,1.000000000000000000e+00,1.000000000000000000e+00,-3.000000000000000000e+00,1.000000000000000000e+00,-1.000000000000000000e+00,0.000000000000000000e+00,3.988647460937500000e-01,1.354980468750000000e-01,-9.061279296875000000e-01,-3.936767578125000000e-02
2.000000000000000000e+00,4.000000000000000000e+00,3.000000000000000000e+00,3.000000000000000000e+00,1.000000000000000000e+00,-1.000000000000000000e+00,2.000000000000000000e+00,0.000000000000000000e+00,3.988647460937500000e-01,1.354980468750000000e-01,-9.061279296875000000e-01,-3.936767578125000000e-02
-2.000000000000000000e+00,9.000000000000000000e+00,1.200000000000000000e+01,4.000000000000000000e+00,-3.000000000000000000e+00,-2.000000000000000000e+00,-2.000000000000000000e+00,-1.000000000000000000e+00,3.988647460937500000e-01,1.354980468750000000e-01,-9.061279296875000000e-01,-3.936767578125000000e-02
6.000000000000000000e+00,2.000000000000000000e+00,-9.000000000000000000e+00,-7.000000000000000000e+00,-1.000000000000000000e+00,-2.000000000000000000e+00,2.000000000000000000e+00,1.000000000000000000e+00,3.988647460937500000e-01,1.354980468750000000e-01,-9.061279296875000000e-01,-3.936767578125000000e-02
-2.000000000000000000e+00,-1.300000000000000000e+01,-7.000000000000000000e+00,-2.000000000000000000e+00,1.000000000000000000e+00,0.000000000000000000e+00,-3.000000000000000000e+00,0.000000000000000000e+00,3.988647460937500000e-01,1.354980468750000000e-01,-9.061279296875000000e-01,-3.936767578125000000e-02
-2.500000000000000000e+01,-1.500000000000000000e+01,-6.000000000000000000e+00,0.000000000000000000e+00,0.000000000000000000e+00,-2.000000000000000000e+00,-4.000000000000000000e+00,-3.000000000000000000e+00,3.988647460937500000e-01,1.354980468750000000e-01,-9.061279296875000000e-01,-3.936767578125000000e-02
-3.000000000000000000e+00,-2.000000000000000000e+00,1.000000000000000000e+01,4.000000000000000000e+00,-1.000000000000000000e+00,0.000000000000000000e+00,-1.000000000000000000e+00,3.000000000000000000e+00,3.988037109375000000e-01,1.354980468750000000e-01,-9.061279296875000000e-01,-3.936767578125000000e-02
-5.000000000000000000e+00,-1.300000000000000000e+01,-1.100000000000000000e+01,-1.500000000000000000e+01,1.000000000000000000e+00,-1.000000000000000000e+00,-3.000000000000000000e+00,-3.000000000000000000e+00,3.988037109375000000e-01,1.354980468750000000e-01,-9.061279296875000000e-01,-3.936767578125000000e-02
9.000000000000000000e+00,6.000000000000000000e+00,5.000000000000000000e+00,1.000000000000000000e+00,-6.000000000000000000e+00,-2.000000000000000000e+00,-3.000000000000000000e+00,-2.000000000000000000e+00,3.988037109375000000e-01,1.354980468750000000e-01,-9.061279296875000000e-01,-3.936767578125000000e-02
2.000000000000000000e+00,1.000000000000000000e+00,2.000000000000000000e+00,-6.000000000000000000e+00,-5.000000000000000000e+00,0.000000000000000000e+00,0.000000000000000000e+00,-1.000000000000000000e+00,3.988037109375000000e-01,1.354980468750000000e-01,-9.061279296875000000e-01,-3.936767578125000000e-02
-2.000000000000000000e+00,0.000000000000000000e+00,-5.000000000000000000e+00,-2.000000000000000000e+00,3.000000000000000000e+00,1.000000000000000000e+00,2.000000000000000000e+00,-2.000000000000000000e+00,3.988037109375000000e-01,1.354980468750000000e-01,-9.061279296875000000e-01,-3.936767578125000000e-02
1.000000000000000000e+00,0.000000000000000000e+00,7.000000000000000000e+00,4.000000000000000000e+00,3.000000000000000000e+00,0.000000000000000000e+00,2.000000000000000000e+00,-3.000000000000000000e+00,3.988037109375000000e-01,1.354980468750000000e-01,-9.061279296875000000e-01,-3.936767578125000000e-02
3.000000000000000000e+00,1.000000000000000000e+01,-3.000000000000000000e+00,1.000000000000000000e+01,-1.000000000000000000e+00,-2.000000000000000000e+00,-6.000000000000000000e+00,-3.000000000000000000e+00,3.988037109375000000e-01,1.354980468750000000e-01,-9.061279296875000000e-01,-3.936767578125000000e-02
6.000000000000000000e+00,6.000000000000000000e+00,-2.600000000000000000e+01,-5.000000000000000000e+00,6.000000000000000000e+00,2.000000000000000000e+00,-1.000000000000000000e+00,-2.000000000000000000e+00,3.988037109375000000e-01,1.354980468750000000e-01,-9.061279296875000000e-01,-3.936767578125000000e-02
-2.500000000000000000e+01,-2.600000000000000000e+01,1.200000000000000000e+01,-1.000000000000000000e+00,-3.000000000000000000e+00,-1.000000000000000000e+00,4.000000000000000000e+00,-3.000000000000000000e+00,3.988647460937500000e-01,1.358642578125000000e-01,-9.060668945312500000e-01,-3.894042968750000000e-02
-1.000000000000000000e+01,-1.000000000000000000e+01,-2.500000000000000000e+01,-1.100000000000000000e+01,-4.000000000000000000e+00,-6.000000000000000000e+00,-4.000000000000000000e+00,-2.000000000000000000e+00,3.988647460937500000e-01,1.358642578125000000e-01,-9.060668945312500000e-01,-3.894042968750000000e-02
-2.000000000000000000e+00,1.000000000000000000e+00,1.500000000000000000e+01,5.000000000000000000e+00,-2.000000000000000000e+00,-1.000000000000000000e+00,2.000000000000000000e+00,1.000000000000000000e+00,3.988647460937500000e-01,1.358642578125000000e-01,-9.060668945312500000e-01,-3.894042968750000000e-02
0.000000000000000000e+00,-6.000000000000000000e+00,-2.000000000000000000e+00,-2.000000000000000000e+00,-4.000000000000000000e+00,-1.000000000000000000e+00,-2.000000000000000000e+00,0.000000000000000000e+00,3.988647460937500000e-01,1.358642578125000000e-01,-9.060668945312500000e-01,-3.894042968750000000e-02
5.000000000000000000e+00,9.000000000000000000e+00,-5.000000000000000000e+00,0.000000000000000000e+00,-3.000000000000000000e+00,-5.000000000000000000e+00,-3.000000000000000000e+00,1.000000000000000000e+00,3.988647460937500000e-01,1.362304687500000000e-01,-9.060058593750000000e-01,-3.863525390625000000e-02
-4.000000000000000000e+00,-3.000000000000000000e+00,1.000000000000000000e+00,2.000000000000000000e+00,3.000000000000000000e+00,4.000000000000000000e+00,7.000000000000000000e+00,3.000000000000000000e+00,3.988647460937500000e-01,1.362304687500000000e-01,-9.060058593750000000e-01,-3.863525390625000000e-02
0.000000000000000000e+00,3.000000000000000000e+00,-2.000000000000000000e+00,0.000000000000000000e+00,2.000000000000000000e+00,1.000000000000000000e+00,1.000000000000000000e+00,-1.000000000000000000e+00,3.988647460937500000e-01,1.362304687500000000e-01,-9.060058593750000000e-01,-3.863525390625000000e-02
6.000000000000000000e+00,1.300000000000000000e+01,1.200000000000000000e+01,5.000000000000000000e+00,-2.000000000000000000e+00,0.000000000000000000e+00,1.000000000000000000e+00,-1.000000000000000000e+00,3.988647460937500000e-01,1.362304687500000000e-01,-9.060058593750000000e-01,-3.863525390625000000e-02
7.000000000000000000e+00,-1.000000000000000000e+00,-3.000000000000000000e+00,-1.500000000000000000e+01,1.000000000000000000e+00,1.000000000000000000e+00,-2.000000000000000000e+00,0.000000000000000000e+00,3.988037109375000000e-01,1.365356445312500000e-01,-9.060058593750000000e-01,-3.839111328125000000e-02
-1.400000000000000000e+01,-1.100000000000000000e+01,2.000000000000000000e+01,1.600000000000000000e+01,-2.000000000000000000e+00,-5.000000000000000000e+00,-3.000000000000000000e+00,-1.000000000000000000e+00,3.988037109375000000e-01,1.365356445312500000e-01,-9.060058593750000000e-01,-3.839111328125000000e-02
4.000000000000000000e+00,0.000000000000000000e+00,-2.400000000000000000e+01,-5.000000000000000000e+00,-3.000000000000000000e+00,-4.000000000000000000e+00,-1.000000000000000000e+00,0.000000000000000000e+00,3.988037109375000000e-01,1.365356445312500000e-01,-9.060058593750000000e-01,-3.839111328125000000e-02
-1.500000000000000000e+01,-2.700000000000000000e+01,5.000000000000000000e+00,-5.000000000000000000e+00,-2.000000000000000000e+00,-5.000000000000000000e+00,-3.000000000000000000e+00,-3.000000000000000000e+00,3.988037109375000000e-01,1.365356445312500000e-01,-9.060058593750000000e-01,-3.839111328125000000e-02
8.000000000000000000e+00,1.100000000000000000e+01,1.000000000000000000e+01,6.000000000000000000e+00,-2.000000000000000000e+00,1.000000000000000000e+00,-2.000000000000000000e+00,-1.000000000000000000e+00,3.989868164062500000e-01,1.367797851562500000e-01,-9.058837890625000000e-01,-3.863525390625000000e-02
1.100000000000000000e+01,8.000000000000000000e+00,-9.000000000000000000e+00,-3.000000000000000000e+00,5.000000000000000000e+00,1.000000000000000000e+00,-5.000000000000000000e+00,1.000000000000000000e+00,3.989868164062500000e-01,1.367797851562500000e-01,-9.058837890625000000e-01,-3.863525390625000000e-02
0.000000000000000000e+00,5.000000000000000000e+00,1.100000000000000000e+01,-1.000000000000000000e+00,2.000000000000000000e+00,-3.000000000000000000e+00,1.000000000000000000e+00,1.000000000000000000e+00,3.989868164062500000e-01,1.367797851562500000e-01,-9.058837890625000000e-01,-3.863525390625000000e-02
1.000000000000000000e+00,1.200000000000000000e+01,8.000000000000000000e+00,-2.000000000000000000e+00,-6.000000000000000000e+00,-2.000000000000000000e+00,0.000000000000000000e+00,-1.000000000000000000e+00,3.989868164062500000e-01,1.367797851562500000e-01,-9.058837890625000000e-01,-3.863525390625000000e-02
0.000000000000000000e+00,-1.000000000000000000e+00,-3.000000000000000000e+00,0.000000000000000000e+00,2.000000000000000000e+00,0.000000000000000000e+00,1.000000000000000000e+00,0.000000000000000000e+00,3.990478515625000000e-01,1.365356445312500000e-01,-9.058837890625000000e-01,-3.887939453125000000e-02
2.000000000000000000e+00,-5.000000000000000000e+00,-3.000000000000000000e+00,1.000000000000000000e+00,-1.000000000000000000e+00,-1.000000000000000000e+00,1.000000000000000000e+00,4.000000000000000000e+00,3.990478515625000000e-01,1.365356445312500000e-01,-9.058837890625000000e-01,-3.887939453125000000e-02
-1.900000000000000000e+01,-2.500000000000000000e+01,3.000000000000000000e+00,-6.000000000000000000e+00,-8.000000000000000000e+00,-3.000000000000000000e+00,-4.000000000000000000e+00,-5.000000000000000000e+00,3.990478515625000000e-01,1.365356445312500000e-01,-9.058837890625000000e-01,-3.887939453125000000e-02
3.000000000000000000e+00,-7.000000000000000000e+00,-5.000000000000000000e+00,-1.000000000000000000e+00,3.000000000000000000e+00,-1.000000000000000000e+00,1.000000000000000000e+00,-5.000000000000000000e+00,3.990478515625000000e-01,1.365356445312500000e-01,-9.058837890625000000e-01,-3.887939453125000000e-02
0.000000000000000000e+00,3.000000000000000000e+00,-1.000000000000000000e+00,0.000000000000000000e+00,-2.000000000000000000e+00,-3.000000000000000000e+00,1.000000000000000000e+00,-3.000000000000000000e+00,3.991088867187500000e-01,1.365356445312500000e-01,-9.058837890625000000e-01,-3.881835937500000000e-02
1.000000000000000000e+00,3.000000000000000000e+00,-1.500000000000000000e+01,-8.000000000000000000e+00,-4.000000000000000000e+00,1.000000000000000000e+00,-3.000000000000000000e+00,0.000000000000000000e+00,3.991088867187500000e-01,1.365356445312500000e-01,-9.058837890625000000e-01,-3.881835937500000000e-02
1.000000000000000000e+00,9.000000000000000000e+00,1.900000000000000000e+01,6.000000000000000000e+00,5.000000000000000000e+00,3.000000000000000000e+00,-2.000000000000000000e+00,3.000000000000000000e+00,3.991088867187500000e-01,1.365356445312500000e-01,-9.058837890625000000e-01,-3.881835937500000000e-02
0.000000000000000000e+00,0.000000000000000000e+00,-2.500000000000000000e+01,1.000000000000000000e+00,1.000000000000000000e+00,0.000000000000000000e+00,4.000000000000000000e+00,3.000000000000000000e+00,3.991088867187500000e-01,1.365356445312500000e-01,-9.058837890625000000e-01,-3.881835937500000000e-02
7.000000000000000000e+00,8.000000000000000000e+00,4.700000000000000000e+01,-4.000000000000000000e+00,-1.000000000000000000e+01,-3.000000000000000000e+00,-5.000000000000000000e+00,-3.000000000000000000e+00,3.988037109375000000e-01,1.371459960937500000e-01,-9.059448242187500000e-01,-3.857421875000000000e-02
8.000000000000000000e+00,-6.000000000000000000e+00,-4.700000000000000000e+01,6.000000000000000000e+00,1.200000000000000000e+01,3.000000000000000000e+00,0.000000000000000000e+00,1.000000000000000000e+00,3.988037109375000000e-01,1.371459960937500000e-01,-9.059448242187500000e-01,-3.857421875000000000e-02
-1.000000000000000000e+01,-1.000000000000000000e+00,-8.000000000000000000e+00,-8.000000000000000000e+00,-8.000000000000000000e+00,-3.000000000000000000e+00,1.000000000000000000e+00,-1.000000000000000000e+00,3.988037109375000000e-01,1.371459960937500000e-01,-9.059448242187500000e-01,-3.857421875000000000e-02
-8.000000000000000000e+00,-1.400000000000000000e+01,8.000000000000000000e+00,-3.000000000000000000e+00,0.000000000000000000e+00,1.000000000000000000e+00,-4.000000000000000000e+00,1.000000000000000000e+00,3.988037109375000000e-01,1.371459960937500000e-01,-9.059448242187500000e-01,-3.857421875000000000e-02
-1.000000000000000000e+00,0.000000000000000000e+00,-1.200000000000000000e+01,3.000000000000000000e+00,1.000000000000000000e+00,-1.000000000000000000e+00,-1.000000000000000000e+00,2.000000000000000000e+00,3.986206054687500000e-01,1.380004882812500000e-01,-9.058837890625000000e-01,-3.863525390625000000e-02
1.000000000000000000e+01,1.100000000000000000e+01,1.500000000000000000e+01,-9.000000000000000000e+00,-9.000000000000000000e+00,-5.000000000000000000e+00,-2.000000000000000000e+00,-1.000000000000000000e+00,3.986206054687500000e-01,1.380004882812500000e-01,-9.058837890625000000e-01,-3.863525390625000000e-02
-1.300000000000000000e+01,5.000000000000000000e+00,-6.000000000000000000e+00,9.000000000000000000e+00,-3.000000000000000000e+00,4.000000000000000000e+00,2.000000000000000000e+00,-3.000000000000000000e+00,3.986206054687500000e-01,1.380004882812500000e-01,-9.058837890625000000e-01,-3.863525390625000000e-02
1.000000000000000000e+01,1.500000000000000000e+01,7.000000000000000000e+00,6.000000000000000000e+00,1.300000000000000000e+01,4.000000000000000000e+00,-4.000000000000000000e+00,1.000000000000000000e+00,3.986206054687500000e-01,1.380004882812500000e-01,-9.058837890625000000e-01,-3.863525390625000000e-02
-6.000000000000000000e+00,-2.900000000000000000e+01,-2.400000000000000000e+01,-1.100000000000000000e+01,-2.000000000000000000e+00,-2.000000000000000000e+00,4.000000000000000000e+00,-4.000000000000000000e+00,3.984375000000000000e-01,1.380615234375000000e-01,-9.058837890625000000e-01,-3.900146484375000000e-02
-3.000000000000000000e+00,7.000000000000000000e+00,1.900000000000000000e+01,-1.000000000000000000e+00,-5.000000000000000000e+00,-3.000000000000000000e+00,-3.000000000000000000e+00,-6.000000000000000000e+00,3.984375000000000000e-01,1.380615234375000000e-01,-9.058837890625000000e-01,-3.900146484375000000e-02
1.100000000000000000e+01,-6.000000000000000000e+00,-2.100000000000000000e+01,-5.000000000000000000e+00,-1.000000000000000000e+00,-3.000000000000000000e+00,-3.000000000000000000e+00,-2.000000000000000000e+00,3.984375000000000000e-01,1.380615234375000000e-01,-9.058837890625000000e-01,-3.900146484375000000e-02
-6.000000000000000000e+00,-4.000000000000000000e+00,1.000000000000000000e+00,1.000000000000000000e+00,-7.000000000000000000e+00,-3.000000000000000000e+00,0.000000000000000000e+00,-3.000000000000000000e+00,3.984375000000000000e-01,1.380615234375000000e-01,-9.058837890625000000e-01,-3.900146484375000000e-02
3.000000000000000000e+00,6.000000000000000000e+00,-1.100000000000000000e+01,3.000000000000000000e+00,1.000000000000000000e+00,1.000000000000000000e+00,-1.000000000000000000e+00,2.000000000000000000e+00,3.984375000000000000e-01,1.380615234375000000e-01,-9.058837890625000000e-01,-3.900146484375000000e-02
-6.000000000000000000e+00,0.000000000000000000e+00,4.000000000000000000e+00,-2.000000000000000000e+00,-1.000000000000000000e+00,-1.000000000000000000e+00,-2.000000000000000000e+00,-2.000000000000000000e+00,3.984375000000000000e-01,1.380615234375000000e-01,-9.058837890625000000e-01,-3.900146484375000000e-02
1.400000000000000000e+01,8.000000000000000000e+00,2.100000000000000000e+01,4.000000000000000000e+00,5.000000000000000000e+00,2.000000000000000000e+00,3.000000000000000000e+00,2.000000000000000000e+00,3.984375000000000000e-01,1.380615234375000000e-01,-9.058837890625000000e-01,-3.900146484375000000e-02
-1.500000000000000000e+01,7.000000000000000000e+00,-2.200000000000000000e+01,-7.000000000000000000e+00,-3.000000000000000000e+00,-1.000000000000000000e+00,1.000000000000000000e+00,3.000000000000000000e+00,3.984375000000000000e-01,1.380615234375000000e-01,-9.058837890625000000e-01,-3.900146484375000000e-02
-5.000000000000000000e+00,-1.000000000000000000e+00,1.800000000000000000e+01,9.000000000000000000e+00,-1.000000000000000000e+00,2.000000000000000000e+00,1.000000000000000000e+00,0.000000000000000000e+00,3.983154296875000000e-01,1.383056640625000000e-01,-9.059448242187500000e-01,-3.857421875000000000e-02
3.000000000000000000e+00,-1.300000000000000000e+01,-4.000000000000000000e+00,-3.000000000000000000e+00,0.000000000000000000e+00,-3.000000000000000000e+00,-4.000000000000000000e+00,-1.000000000000000000e+00,3.983154296875000000e-01,1.383056640625000000e-01,-9.059448242187500000e-01,-3.857421875000000000e-02
-8.000000000000000000e+00,1.000000000000000000e+00,-2.000000000000000000e+00,-2.100000000000000000e+01,-1.000000000000000000e+01,-4.000000000000000000e+00,-4.000000000000000000e+00,-1.000000000000000000e+00,3.983154296875000000e-01,1.383056640625000000e-01,-9.059448242187500000e-01,-3.857421875000000000e-02
-4.000000000000000000e+00,-1.500000000000000000e+01,7.000000000000000000e+00,1.300000000000000000e+01,2.000000000000000000e+00,0.000000000000000000e+00,2.000000000000000000e+00,0.000000000000000000e+00,3.983154296875000000e-01,1.383056640625000000e-01,-9.059448242187500000e-01,-3.857421875000000000e-02
1.000000000000000000e+00,5.000000000000000000e+00,-1.600000000000000000e+01,8.000000000000000000e+00,7.000000000000000000e+00,5.000000000000000000e+00,1.000000000000000000e+00,0.000000000000000000e+00,3.983154296875000000e-01,1.389160156250000000e-01,-9.058837890625000000e-01,-3.808593750000000000e-02
-8.000000000000000000e+00,-1.000000000000000000e+00,1.000000000000000000e+00,-3.000000000000000000e+00,-4.000000000000000000e+00,-1.000000000000000000e+00,-1.000000000000000000e+00,0.000000000000000000e+00,3.983154296875000000e-01,1.389160156250000000e-01,-9.058837890625000000e-01,-3.808593750000000000e-02
1.200000000000000000e+01,7.000000000000000000e+00,1.800000000000000000e+01,7.000000000000000000e+00,9.000000000000000000e+00,2.000000000000000000e+00,0.000000000000000000e+00,0.000000000000000000e+00,3.983154296875000000e-01,1.389160156250000000e-01,-9.058837890625000000e-01,-3.808593750000000000e-02
9.000000000000000000e+00,9.000000000000000000e+00,-1.000000000000000000e+01,-1.100000000000000000e+01,-9.000000000000000000e+00,-3.000000000000000000e+00,-2.000000000000000000e+00,-1.000000000000000000e+00,3.983154296875000000e-01,1.389160156250000000e-01,-9.058837890625000000e-01,-3.808593750000000000e-02
-2.100000000000000000e+01,-7.000000000000000000e+00,-1.400000000000000000e+01,-2.000000000000000000e+00,-6.000000000000000000e+00,-5.000000000000000000e+00,-6.000000000000000000e+00,-4.000000000000000000e+00,3.982543945312500000e-01,1.389770507812500000e-01,-9.058837890625000000e-01,-3.814697265625000000e-02
-8.000000000000000000e+00,-1.300000000000000000e+01,6.000000000000000000e+00,-6.000000000000000000e+00,2.000000000000000000e+00,1.000000000000000000e+00,2.000000000000000000e+00,-4.000000000000000000e+00,3.982543945312500000e-01,1.389770507812500000e-01,-9.058837890625000000e-01,-3.814697265625000000e-02
0.000000000000000000e+00,-1.500000000000000000e+01,-1.100000000000000000e+01,-1.000000000000000000e+00,-1.000000000000000000e+00,-2.000000000000000000e+00,-1.000000000000000000e+00,1.000000000000000000e+00,3.982543945312500000e-01,1.389770507812500000e-01,-9.058837890625000000e-01,-3.814697265625000000e-02
-4.000000000000000000e+00,3.000000000000000000e+00,1.400000000000000000e+01,2.000000000000000000e+00,0.000000000000000000e+00,-2.000000000000000000e+00,-7.000000000000000000e+00,-2.000000000000000000e+00,3.982543945312500000e-01,1.389770507812500000e-01,-9.058837890625000000e-01,-3.814697265625000000e-02
5.000000000000000000e+00,2.000000000000000000e+00,-5.000000000000000000e+00,0.000000000000000000e+00,2.000000000000000000e+00,-1.000000000000000000e+00,1.000000000000000000e+00,1.000000000000000000e+00,3.981933593750000000e-01,1.387329101562500000e-01,-9.059448242187500000e-01,-3.814697265625000000e-02
0.000000000000000000e+00,3.000000000000000000e+00,5.000000000000000000e+00,0.000000000000000000e+00,1.000000000000000000e+00,0.000000000000000000e+00,1.000000000000000000e+00,1.000000000000000000e+00,3.981933593750000000e-01,1.387329101562500000e-01,-9.059448242187500000e-01,-3.814697265625000000e-02
-4.000000000000000000e+00,0.000000000000000000e+00,-3.000000000000000000e+00,1.000000000000000000e+00,-1.000000000000000000e+00,-4.000000000000000000e+00,0.000000000000000000e+00,-2.000000000000000000e+00,3.981933593750000000e-01,1.387329101562500000e-01,-9.059448242187500000e-01,-3.814697265625000000e-02
-2.000000000000000000e+00,-3.000000000000000000e+00,0.000000000000000000e+00,-5.000000000000000000e+00,-2.000000000000000000e+00,-1.000000000000000000e+00,-2.000000000000000000e+00,-3.000000000000000000e+00,3.981933593750000000e-01,1.387329101562500000e-01,-9.059448242187500000e-01,-3.814697265625000000e-02
8.000000000000000000e+00,6.000000000000000000e+00,0.000000000000000000e+00,2.000000000000000000e+00,-1.000000000000000000e+00,-1.000000000000000000e+00,-2.000000000000000000e+00,-2.000000000000000000e+00,3.979492187500000000e-01,1.387939453125000000e-01,-9.060668945312500000e-01,-3.778076171875000000e-02
1.900000000000000000e+01,2.700000000000000000e+01,3.000000000000000000e+00,-1.800000000000000000e+01,-7.000000000000000000e+00,0.000000000000000000e+00,1.000000000000000000e+00,1.000000000000000000e+00,3.979492187500000000e-01,1.387939453125000000e-01,-9.060668945312500000e-01,-3.778076171875000000e-02
