-1.000000000000000000e+00,0.000000000000000000e+00,5.000000000000000000e+00,-3.000000000000000000e+00,-1.500000000000000000e+01,-4.000000000000000000e+00,-4.000000000000000000e+00,-2.000000000000000000e+00,-4.527587890625000000e-01,2.853393554687500000e-01,6.077270507812500000e-01,5.866699218750000000e-01
-1.000000000000000000e+00,-2.000000000000000000e+00,-6.000000000000000000e+00,7.000000000000000000e+00,2.200000000000000000e+01,6.000000000000000000e+00,2.000000000000000000e+00,2.000000000000000000e+00,-4.527587890625000000e-01,2.853393554687500000e-01,6.077270507812500000e-01,5.866699218750000000e-01
-1.000000000000000000e+00,3.000000000000000000e+00,7.000000000000000000e+00,-7.000000000000000000e+00,-8.000000000000000000e+00,-3.000000000000000000e+00,-1.000000000000000000e+00,-3.000000000000000000e+00,-4.529418945312500000e-01,2.853393554687500000e-01,6.074829101562500000e-01,5.867919921875000000e-01
-2.000000000000000000e+00,-1.000000000000000000e+00,-7.000000000000000000e+00,4.000000000000000000e+00,-5.000000000000000000e+00,-1.000000000000000000e+00,-1.000000000000000000e+00,-1.000000000000000000e+00,-4.529418945312500000e-01,2.853393554687500000e-01,6.074829101562500000e-01,5.867919921875000000e-01
2.000000000000000000e+00,0.000000000000000000e+00,-4.000000000000000000e+00,-1.300000000000000000e+01,-1.100000000000000000e+01,-2.000000000000000000e+00,-1.000000000000000000e+00,-1.000000000000000000e+00,-4.529418945312500000e-01,2.853393554687500000e-01,6.074829101562500000e-01,5.867919921875000000e-01
0.000000000000000000e+00,-2.000000000000000000e+00,-8.000000000000000000e+00,-1.600000000000000000e+01,-4.000000000000000000e+00,-2.000000000000000000e+00,3.000000000000000000e+00,0.000000000000000000e+00,-4.529418945312500000e-01,2.853393554687500000e-01,6.074829101562500000e-01,5.867919921875000000e-01
0.000000000000000000e+00,0.000000000000000000e+00,9.000000000000000000e+00,2.100000000000000000e+01,1.200000000000000000e+01,1.000000000000000000e+00,1.000000000000000000e+00,0.000000000000000000e+00,-4.528198242187500000e-01,2.855224609375000000e-01,6.069946289062500000e-01,5.872802734375000000e-01
-2.000000000000000000e+00,-5.000000000000000000e+00,-1.600000000000000000e+01,-2.400000000000000000e+01,-5.000000000000000000e+00,-3.000000000000000000e+00,-3.000000000000000000e+00,-2.000000000000000000e+00,-4.528198242187500000e-01,2.855224609375000000e-01,6.069946289062500000e-01,5.872802734375000000e-01
-2.000000000000000000e+00,0.000000000000000000e+00,-2.000000000000000000e+00,5.000000000000000000e+00,4.000000000000000000e+00,2.000000000000000000e+00,-2.000000000000000000e+00,-1.000000000000000000e+00,-4.528198242187500000e-01,2.855224609375000000e-01,6.069946289062500000e-01,5.872802734375000000e-01
1.000000000000000000e+00,1.000000000000000000e+00,8.000000000000000000e+00,0.000000000000000000e+00,-8.000000000000000000e+00,-3.000000000000000000e+00,-2.000000000000000000e+00,-1.000000000000000000e+00,-4.528198242187500000e-01,2.855224609375000000e-01,6.069946289062500000e-01,5.872802734375000000e-01
-2.000000000000000000e+00,-4.000000000000000000e+00,-1.700000000000000000e+01,-1.100000000000000000e+01,-3.000000000000000000e+00,-1.000000000000000000e+00,-1.000000000000000000e+00,-3.000000000000000000e+00,-4.525146484375000000e-01,2.854003906250000000e-01,6.067504882812500000e-01,5.878295898437500000e-01
0.000000000000000000e+00,0.000000000000000000e+00,3.000000000000000000e+00,-2.000000000000000000e+00,-3.000000000000000000e+00,-3.000000000000000000e+00,0.000000000000000000e+00,0.000000000000000000e+00,-4.525146484375000000e-01,2.854003906250000000e-01,6.067504882812500000e-01,5.878295898437500000e-01
-2.000000000000000000e+00,-3.000000000000000000e+00,-5.000000000000000000e+00,-2.000000000000000000e+00,-1.000000000000000000e+00,-1.000000000000000000e+00,2.000000000000000000e+00,0.000000000000000000e+00,-4.525146484375000000e-01,2.854003906250000000e-01,6.067504882812500000e-01,5.878295898437500000e-01
-1.000000000000000000e+00,0.000000000000000000e+00,5.000000000000000000e+00,0.000000000000000000e+00,-4.000000000000000000e+00,-3.000000000000000000e+00,-3.000000000000000000e+00,-2.000000000000000000e+00,-4.525146484375000000e-01,2.854003906250000000e-01,6.067504882812500000e-01,5.878295898437500000e-01
-2.000000000000000000e+00,-2.000000000000000000e+00,3.000000000000000000e+00,-4.000000000000000000e+00,2.000000000000000000e+00,1.000000000000000000e+00,0.000000000000000000e+00,-1.000000000000000000e+00,-4.520874023437500000e-01,2.847900390625000000e-01,6.067504882812500000e-01,5.884399414062500000e-01
-2.000000000000000000e+00,-3.000000000000000000e+00,5.000000000000000000e+00,1.000000000000000000e+01,-2.000000000000000000e+00,0.000000000000000000e+00,-2.000000000000000000e+00,0.000000000000000000e+00,-4.520874023437500000e-01,2.847900390625000000e-01,6.067504882812500000e-01,5.884399414062500000e-01
-1.000000000000000000e+00,0.000000000000000000e+00,-2.000000000000000000e+00,2.000000000000000000e+00,-1.000000000000000000e+00,0.000000000000000000e+00,1.000000000000000000e+00,1.000000000000000000e+00,-4.520874023437500000e-01,2.847900390625000000e-01,6.067504882812500000e-01,5.884399414062500000e-01
1.000000000000000000e+00,2.000000000000000000e+00,0.000000000000000000e+00,1.100000000000000000e+01,-1.000000000000000000e+00,-3.000000000000000000e+00,-3.000000000000000000e+00,-1.000000000000000000e+00,-4.520874023437500000e-01,2.847900390625000000e-01,6.067504882812500000e-01,5.884399414062500000e-01
-2.000000000000000000e+00,-1.000000000000000000e+00,-3.000000000000000000e+00,-3.200000000000000000e+01,4.000000000000000000e+00,-1.000000000000000000e+00,-1.000000000000000000e+00,-1.000000000000000000e+00,-4.516601562500000000e-01,2.841186523437500000e-01,6.068725585937500000e-01,5.890502929687500000e-01
-2.000000000000000000e+00,0.000000000000000000e+00,1.100000000000000000e+01,2.300000000000000000e+01,1.400000000000000000e+01,2.000000000000000000e+00,1.000000000000000000e+00,-1.000000000000000000e+00,-4.516601562500000000e-01,2.841186523437500000e-01,6.068725585937500000e-01,5.890502929687500000e-01
1.000000000000000000e+00,-2.000000000000000000e+00,-1.600000000000000000e+01,7.000000000000000000e+00,-6.000000000000000000e+00,-1.000000000000000000e+00,1.000000000000000000e+00,2.000000000000000000e+00,-4.516601562500000000e-01,2.841186523437500000e-01,6.068725585937500000e-01,5.890502929687500000e-01
-3.000000000000000000e+00,0.000000000000000000e+00,9.000000000000000000e+00,1.000000000000000000e+00,3.000000000000000000e+00,0.000000000000000000e+00,0.000000000000000000e+00,0.000000000000000000e+00,-4.516601562500000000e-01,2.841186523437500000e-01,6.068725585937500000e-01,5.890502929687500000e-01
1.000000000000000000e+00,-3.000000000000000000e+00,-2.600000000000000000e+01,-2.100000000000000000e+01,-1.800000000000000000e+01,-4.000000000000000000e+00,-1.000000000000000000e+00,1.000000000000000000e+00,-4.515991210937500000e-01,2.834472656250000000e-01,6.066894531250000000e-01,5.895385742187500000e-01
1.000000000000000000e+00,2.000000000000000000e+00,1.200000000000000000e+01,1.800000000000000000e+01,7.000000000000000000e+00,0.000000000000000000e+00,-2.000000000000000000e+00,-2.000000000000000000e+00,-4.515991210937500000e-01,2.834472656250000000e-01,6.066894531250000000e-01,5.895385742187500000e-01
-4.000000000000000000e+00,-1.000000000000000000e+00,2.300000000000000000e+01,-7.000000000000000000e+00,2.000000000000000000e+00,0.000000000000000000e+00,-3.000000000000000000e+00,-2.000000000000000000e+00,-4.515991210937500000e-01,2.834472656250000000e-01,6.066894531250000000e-01,5.895385742187500000e-01
0.000000000000000000e+00,-3.000000000000000000e+00,-2.100000000000000000e+01,6.000000000000000000e+00,3.000000000000000000e+00,1.000000000000000000e+00,0.000000000000000000e+00,-1.000000000000000000e+00,-4.515991210937500000e-01,2.834472656250000000e-01,6.066894531250000000e-01,5.895385742187500000e-01
-2.000000000000000000e+00,0.000000000000000000e+00,1.100000000000000000e+01,4.000000000000000000e+00,-4.000000000000000000e+00,1.000000000000000000e+00,1.000000000000000000e+00,-1.000000000000000000e+00,-4.518432617187500000e-01,2.828369140625000000e-01,6.059570312500000000e-01,5.903930664062500000e-01
1.000000000000000000e+00,2.000000000000000000e+00,-5.000000000000000000e+00,-8.000000000000000000e+00,2.000000000000000000e+00,-4.000000000000000000e+00,-2.000000000000000000e+00,-1.000000000000000000e+00,-4.518432617187500000e-01,2.828369140625000000e-01,6.059570312500000000e-01,5.903930664062500000e-01
-2.000000000000000000e+00,-5.000000000000000000e+00,-8.000000000000000000e+00,-1.000000000000000000e+00,-5.000000000000000000e+00,-2.000000000000000000e+00,-1.000000000000000000e+00,-2.000000000000000000e+00,-4.518432617187500000e-01,2.828369140625000000e-01,6.059570312500000000e-01,5.903930664062500000e-01
1.000000000000000000e+00,3.000000000000000000e+00,1.300000000000000000e+01,-6.000000000000000000e+00,-4.000000000000000000e+00,-1.000000000000000000e+00,1.000000000000000000e+00,0.000000000000000000e+00,-4.518432617187500000e-01,2.828369140625000000e-01,6.059570312500000000e-01,5.903930664062500000e-01
-1.000000000000000000e+00,2.000000000000000000e+00,1.200000000000000000e+01,1.200000000000000000e+01,4.000000000000000000e+00,2.000000000000000000e+00,-3.000000000000000000e+00,-2.000000000000000000e+00,-4.517822265625000000e-01,2.825317382812500000e-01,6.051635742187500000e-01,5.914306640625000000e-01
0.000000000000000000e+00,0.000000000000000000e+00,-1.500000000000000000e+01,-9.000000000000000000e+00,-7.000000000000000000e+00,-1.000000000000000000e+00,0.000000000000000000e+00,1.000000000000000000e+00,-4.517822265625000000e-01,2.825317382812500000e-01,6.051635742187500000e-01,5.914306640625000000e-01
-1.000000000000000000e+00,1.000000000000000000e+00,1.300000000000000000e+01,9.000000000000000000e+00,-6.000000000000000000e+00,-2.000000000000000000e+00,-4.000000000000000000e+00,-1.000000000000000000e+00,-4.517822265625000000e-01,2.825317382812500000e-01,6.051635742187500000e-01,5.914306640625000000e-01
-2.000000000000000000e+00,-2.000000000000000000e+00,-2.000000000000000000e+00,-5.000000000000000000e+00,1.500000000000000000e+01,4.000000000000000000e+00,0.000000000000000000e+00,-1.000000000000000000e+00,-4.517822265625000000e-01,2.825317382812500000e-01,6.051635742187500000e-01,5.914306640625000000e-01
1.000000000000000000e+00,-2.000000000000000000e+00,-6.000000000000000000e+00,7.000000000000000000e+00,4.000000000000000000e+00,-2.000000000000000000e+00,1.000000000000000000e+00,1.000000000000000000e+00,-4.514770507812500000e-01,2.827758789062500000e-01,6.046752929687500000e-01,5.921020507812500000e-01
-3.000000000000000000e+00,-4.000000000000000000e+00,-1.200000000000000000e+01,-1.500000000000000000e+01,-1.400000000000000000e+01,-4.000000000000000000e+00,-1.000000000000000000e+00,-3.000000000000000000e+00,-4.514770507812500000e-01,2.827758789062500000e-01,6.046752929687500000e-01,5.921020507812500000e-01
0.000000000000000000e+00,0.000000000000000000e+00,-6.000000000000000000e+00,3.000000000000000000e+00,0.000000000000000000e+00,-1.000000000000000000e+00,1.000000000000000000e+00,-1.000000000000000000e+00,-4.514770507812500000e-01,2.827758789062500000e-01,6.046752929687500000e-01,5.921020507812500000e-01
-2.000000000000000000e+00,1.000000000000000000e+00,-1.000000000000000000e+00,3.000000000000000000e+00,4.000000000000000000e+00,0.000000000000000000e+00,-3.000000000000000000e+00,-2.000000000000000000e+00,-4.514770507812500000e-01,2.827758789062500000e-01,6.046752929687500000e-01,5.921020507812500000e-01
0.000000000000000000e+00,1.000000000000000000e+00,7.000000000000000000e+00,6.000000000000000000e+00,-3.000000000000000000e+00,1.000000000000000000e+00,-1.000000000000000000e+00,1.000000000000000000e+00,-4.517211914062500000e-01,2.824707031250000000e-01,6.046142578125000000e-01,5.921020507812500000e-01
-1.000000000000000000e+00,0.000000000000000000e+00,7.000000000000000000e+00,-1.300000000000000000e+01,-6.000000000000000000e+00,-2.000000000000000000e+00,-3.000000000000000000e+00,-1.000000000000000000e+00,-4.517211914062500000e-01,2.824707031250000000e-01,6.046142578125000000e-01,5.921020507812500000e-01
0.000000000000000000e+00,-1.000000000000000000e+00,-7.000000000000000000e+00,0.000000000000000000e+00,4.000000000000000000e+00,2.000000000000000000e+00,2.000000000000000000e+00,0.000000000000000000e+00,-4.517211914062500000e-01,2.824707031250000000e-01,6.046142578125000000e-01,5.921020507812500000e-01
-1.000000000000000000e+00,-3.000000000000000000e+00,-6.000000000000000000e+00,-2.100000000000000000e+01,-1.600000000000000000e+01,-6.000000000000000000e+00,-4.000000000000000000e+00,-2.000000000000000000e+00,-4.517211914062500000e-01,2.824707031250000000e-01,6.046142578125000000e-01,5.921020507812500000e-01
-2.000000000000000000e+00,-3.000000000000000000e+00,1.300000000000000000e+01,1.900000000000000000e+01,3.000000000000000000e+00,-2.000000000000000000e+00,-2.000000000000000000e+00,-1.000000000000000000e+00,-4.527587890625000000e-01,2.817382812500000000e-01,6.045532226562500000e-01,5.916748046875000000e-01
-1.000000000000000000e+00,-2.000000000000000000e+00,-4.000000000000000000e+00,-8.000000000000000000e+00,-9.000000000000000000e+00,-3.000000000000000000e+00,-3.000000000000000000e+00,-4.000000000000000000e+00,-4.527587890625000000e-01,2.817382812500000000e-01,6.045532226562500000e-01,5.916748046875000000e-01
-1.000000000000000000e+00,-1.000000000000000000e+00,-1.000000000000000000e+01,3.000000000000000000e+00,1.000000000000000000e+01,0.000000000000000000e+00,0.000000000000000000e+00,0.000000000000000000e+00,-4.527587890625000000e-01,2.817382812500000000e-01,6.045532226562500000e-01,5.916748046875000000e-01
-1.000000000000000000e+00,0.000000000000000000e+00,3.000000000000000000e+00,5.000000000000000000e+00,3.000000000000000000e+00,0.000000000000000000e+00,0.000000000000000000e+00,-1.000000000000000000e+00,-4.527587890625000000e-01,2.817382812500000000e-01,6.045532226562500000e-01,5.916748046875000000e-01
0.000000000000000000e+00,-1.000000000000000000e+00,2.000000000000000000e+00,-7.000000000000000000e+00,-4.000000000000000000e+00,-2.000000000000000000e+00,-3.000000000000000000e+00,-1.000000000000000000e+00,-4.541015625000000000e-01,2.810668945312500000e-01,6.041870117187500000e-01,5.913085937500000000e-01
1.000000000000000000e+00,1.000000000000000000e+00,3.000000000000000000e+00,-1.100000000000000000e+01,-8.000000000000000000e+00,-1.000000000000000000e+00,0.000000000000000000e+00,-1.000000000000000000e+00,-4.541015625000000000e-01,2.810668945312500000e-01,6.041870117187500000e-01,5.913085937500000000e-01
-1.000000000000000000e+00,0.000000000000000000e+00,8.000000000000000000e+00,0.000000000000000000e+00,6.000000000000000000e+00,-1.000000000000000000e+00,-1.000000000000000000e+00,-3.000000000000000000e+00,-4.541015625000000000e-01,2.810668945312500000e-01,6.041870117187500000e-01,5.913085937500000000e-01
1.000000000000000000e+00,0.000000000000000000e+00,-2.000000000000000000e+01,-6.000000000000000000e+00,-1.200000000000000000e+01,-2.000000000000000000e+00,0.000000000000000000e+00,0.000000000000000000e+00,-4.541015625000000000e-01,2.810668945312500000e-01,6.041870117187500000e-01,5.913085937500000000e-01
0.000000000000000000e+00,-2.000000000000000000e+00,2.000000000000000000e+00,-2.000000000000000000e+00,-3.000000000000000000e+00,0.000000000000000000e+00,-1.000000000000000000e+00,-2.000000000000000000e+00,-4.548339843750000000e-01,2.807006835937500000e-01,6.038208007812500000e-01,5.913696289062500000e-01
-2.000000000000000000e+00,-2.000000000000000000e+00,-2.000000000000000000e+00,1.000000000000000000e+01,1.200000000000000000e+01,3.000000000000000000e+00,0.000000000000000000e+00,-1.000000000000000000e+00,-4.548339843750000000e-01,2.807006835937500000e-01,6.038208007812500000e-01,5.913696289062500000e-01
-2.000000000000000000e+00,-1.000000000000000000e+00,0.000000000000000000e+00,-8.000000000000000000e+00,-6.000000000000000000e+00,0.000000000000000000e+00,0.000000000000000000e+00,0.000000000000000000e+00,-4.548339843750000000e-01,2.807006835937500000e-01,6.038208007812500000e-01,5.913696289062500000e-01
-3.000000000000000000e+00,-2.000000000000000000e+00,6.000000000000000000e+00,-4.000000000000000000e+00,-5.000000000000000000e+00,-3.000000000000000000e+00,-2.000000000000000000e+00,0.000000000000000000e+00,-4.548339843750000000e-01,2.807006835937500000e-01,6.038208007812500000e-01,5.913696289062500000e-01
0.000000000000000000e+00,1.000000000000000000e+00,1.000000000000000000e+01,2.100000000000000000e+01,1.000000000000000000e+01,2.000000000000000000e+00,0.000000000000000000e+00,0.000000000000000000e+00,-4.549560546875000000e-01,2.805175781250000000e-01,6.034545898437500000e-01,5.917358398437500000e-01
1.000000000000000000e+00,-2.000000000000000000e+00,-6.000000000000000000e+00,4.000000000000000000e+00,-1.000000000000000000e+00,0.000000000000000000e+00,0.000000000000000000e+00,0.000000000000000000e+00,-4.549560546875000000e-01,2.805175781250000000e-01,6.034545898437500000e-01,5.917358398437500000e-01
-2.000000000000000000e+00,-2.000000000000000000e+00,-1.000000000000000000e+00,-1.000000000000000000e+00,1.000000000000000000e+00,-2.000000000000000000e+00,0.000000000000000000e+00,-1.000000000000000000e+00,-4.549560546875000000e-01,2.805175781250000000e-01,6.034545898437500000e-01,5.917358398437500000e-01
-2.000000000000000000e+00,0.000000000000000000e+00,1.700000000000000000e+01,-8.000000000000000000e+00,-8.000000000000000000e+00,-2.000000000000000000e+00,-3.000000000000000000e+00,-3.000000000000000000e+00,-4.549560546875000000e-01,2.805175781250000000e-01,6.034545898437500000e-01,5.917358398437500000e-01
-1.000000000000000000e+00,-1.000000000000000000e+00,-7.000000000000000000e+00,4.000000000000000000e+00,5.000000000000000000e+00,1.000000000000000000e+00,-1.000000000000000000e+00,-2.000000000000000000e+00,-4.544677734375000000e-01,2.810668945312500000e-01,6.030273437500000000e-01,5.922241210937500000e-01
0.000000000000000000e+00,2.000000000000000000e+00,-7.000000000000000000e+00,-2.000000000000000000e+00,-1.000000000000000000e+00,-2.000000000000000000e+00,-2.000000000000000000e+00,-1.000000000000000000e+00,-4.544677734375000000e-01,2.810668945312500000e-01,6.030273437500000000e-01,5.922241210937500000e-01
2.000000000000000000e+00,0.000000000000000000e+00,-6.000000000000000000e+00,-1.500000000000000000e+01,-7.000000000000000000e+00,-2.000000000000000000e+00,-1.000000000000000000e+00,0.000000000000000000e+00,-4.544677734375000000e-01,2.810668945312500000e-01,6.030273437500000000e-01,5.922241210937500000e-01
-1.000000000000000000e+00,-2.000000000000000000e+00,1.000000000000000000e+00,-1.200000000000000000e+01,0.000000000000000000e+00,2.000000000000000000e+00,2.000000000000000000e+00,-2.000000000000000000e+00,-4.544677734375000000e-01,2.810668945312500000e-01,6.030273437500000000e-01,5.922241210937500000e-01
1.000000000000000000e+00,1.000000000000000000e+00,4.000000000000000000e+00,2.400000000000000000e+01,1.000000000000000000e+00,0.000000000000000000e+00,0.000000000000000000e+00,-1.000000000000000000e+00,-4.541625976562500000e-01,2.813110351562500000e-01,6.029052734375000000e-01,5.924682617187500000e-01
-1.000000000000000000e+00,-1.000000000000000000e+00,5.000000000000000000e+00,4.000000000000000000e+00,2.000000000000000000e+00,0.000000000000000000e+00,0.000000000000000000e+00,-1.000000000000000000e+00,-4.541625976562500000e-01,2.813110351562500000e-01,6.029052734375000000e-01,5.924682617187500000e-01
-1.000000000000000000e+00,-1.000000000000000000e+00,-3.000000000000000000e+00,-7.000000000000000000e+00,-4.000000000000000000e+00,-2.000000000000000000e+00,-2.000000000000000000e+00,-1.000000000000000000e+00,-4.541625976562500000e-01,2.813110351562500000e-01,6.029052734375000000e-01,5.924682617187500000e-01
1.000000000000000000e+00,-1.000000000000000000e+00,-5.000000000000000000e+00,0.000000000000000000e+00,-9.000000000000000000e+00,-4.000000000000000000e+00,1.000000000000000000e+00,1.000000000000000000e+00,-4.541625976562500000e-01,2.813110351562500000e-01,6.029052734375000000e-01,5.924682617187500000e-01
0.000000000000000000e+00,0.000000000000000000e+00,-7.000000000000000000e+00,-7.000000000000000000e+00,3.000000000000000000e+00,0.000000000000000000e+00,1.000000000000000000e+00,0.000000000000000000e+00,-4.541015625000000000e-01,2.813110351562500000e-01,6.031494140625000000e-01,5.922851562500000000e-01
-1.000000000000000000e+00,2.000000000000000000e+00,-1.000000000000000000e+00,1.000000000000000000e+00,-2.000000000000000000e+00,-1.000000000000000000e+00,0.000000000000000000e+00,1.000000000000000000e+00,-4.541015625000000000e-01,2.813110351562500000e-01,6.031494140625000000e-01,5.922851562500000000e-01
-1.000000000000000000e+00,-2.000000000000000000e+00,4.000000000000000000e+00,3.000000000000000000e+00,0.000000000000000000e+00,0.000000000000000000e+00,-2.000000000000000000e+00,0.000000000000000000e+00,-4.541015625000000000e-01,2.813110351562500000e-01,6.031494140625000000e-01,5.922851562500000000e-01
-2.000000000000000000e+00,-1.000000000000000000e+00,-1.100000000000000000e+01,5.000000000000000000e+00,3.000000000000000000e+00,-1.000000000000000000e+00,-2.000000000000000000e+00,0.000000000000000000e+00,-4.541015625000000000e-01,2.813110351562500000e-01,6.031494140625000000e-01,5.922851562500000000e-01
-3.000000000000000000e+00,0.000000000000000000e+00,-3.000000000000000000e+00,-1.500000000000000000e+01,-1.300000000000000000e+01,-3.000000000000000000e+00,-1.000000000000000000e+00,0.000000000000000000e+00,-4.542236328125000000e-01,2.807617187500000000e-01,6.034545898437500000e-01,5.921020507812500000e-01
0.000000000000000000e+00,-3.000000000000000000e+00,0.000000000000000000e+00,1.100000000000000000e+01,-1.000000000000000000e+00,-4.000000000000000000e+00,-2.000000000000000000e+00,-1.000000000000000000e+00,-4.542236328125000000e-01,2.807617187500000000e-01,6.034545898437500000e-01,5.921020507812500000e-01
2.000000000000000000e+00,2.000000000000000000e+00,2.100000000000000000e+01,1.200000000000000000e+01,1.600000000000000000e+01,6.000000000000000000e+00,2.000000000000000000e+00,1.000000000000000000e+00,-4.542236328125000000e-01,2.807617187500000000e-01,6.034545898437500000e-01,5.921020507812500000e-01
-5.000000000000000000e+00,-1.200000000000000000e+01,-5.600000000000000000e+01,-7.000000000000000000e+00,2.000000000000000000e+00,2.000000000000000000e+00,2.000000000000000000e+00,-2.000000000000000000e+00,-4.542236328125000000e-01,2.807617187500000000e-01,6.034545898437500000e-01,5.921020507812500000e-01
-2.000000000000000000e+00,-2.000000000000000000e+00,4.000000000000000000e+00,-7.000000000000000000e+00,-2.000000000000000000e+00,-4.000000000000000000e+00,-2.000000000000000000e+00,-2.000000000000000000e+00,-4.536743164062500000e-01,2.807006835937500000e-01,6.039428710937500000e-01,5.921020507812500000e-01
1.000000000000000000e+00,1.000000000000000000e+00,-1.000000000000000000e+01,-1.300000000000000000e+01,-5.000000000000000000e+00,-2.000000000000000000e+00,-2.000000000000000000e+00,-1.000000000000000000e+00,-4.536743164062500000e-01,2.807006835937500000e-01,6.039428710937500000e-01,5.921020507812500000e-01
-3.000000000000000000e+00,1.000000000000000000e+00,2.700000000000000000e+01,2.000000000000000000e+00,-1.300000000000000000e+01,-7.000000000000000000e+00,-4.000000000000000000e+00,-2.000000000000000000e+00,-4.536743164062500000e-01,2.807006835937500000e-01,6.039428710937500000e-01,5.921020507812500000e-01
1.000000000000000000e+00,0.000000000000000000e+00,-2.000000000000000000e+00,-2.000000000000000000e+01,6.000000000000000000e+00,0.000000000000000000e+00,-2.000000000000000000e+00,-1.000000000000000000e+00,-4.536743164062500000e-01,2.807006835937500000e-01,6.039428710937500000e-01,5.921020507812500000e-01
0.000000000000000000e+00,-1.000000000000000000e+00,-5.000000000000000000e+00,3.400000000000000000e+01,1.700000000000000000e+01,3.000000000000000000e+00,2.000000000000000000e+00,0.000000000000000000e+00,-4.531860351562500000e-01,2.805175781250000000e-01,6.042480468750000000e-01,5.922851562500000000e-01
-4.000000000000000000e+00,-4.000000000000000000e+00,8.000000000000000000e+00,5.000000000000000000e+00,4.000000000000000000e+00,2.000000000000000000e+00,-1.000000000000000000e+00,-1.000000000000000000e+00,-4.531860351562500000e-01,2.805175781250000000e-01,6.042480468750000000e-01,5.922851562500000000e-01
-1.000000000000000000e+00,1.000000000000000000e+00,-1.000000000000000000e+01,-5.000000000000000000e+00,-4.000000000000000000e+00,-4.000000000000000000e+00,-2.000000000000000000e+00,-1.000000000000000000e+00,-4.531860351562500000e-01,2.805175781250000000e-01,6.042480468750000000e-01,5.922851562500000000e-01
-2.000000000000000000e+00,1.000000000000000000e+00,1.300000000000000000e+01,4.000000000000000000e+00,-9.000000000000000000e+00,-4.000000000000000000e+00,-2.000000000000000000e+00,-3.000000000000000000e+00,-4.531860351562500000e-01,2.805175781250000000e-01,6.042480468750000000e-01,5.922851562500000000e-01
-1.000000000000000000e+00,-3.000000000000000000e+00,-1.100000000000000000e+01,-1.500000000000000000e+01,0.000000000000000000e+00,-2.000000000000000000e+00,-3.000000000000000000e+00,-2.000000000000000000e+00,-4.526977539062500000e-01,2.808837890625000000e-01,6.041870117187500000e-01,5.925292968750000000e-01
1.000000000000000000e+00,3.000000000000000000e+00,9.000000000000000000e+00,1.000000000000000000e+00,-2.000000000000000000e+00,3.000000000000000000e+00,2.000000000000000000e+00,-1.000000000000000000e+00,-4.526977539062500000e-01,2.808837890625000000e-01,6.041870117187500000e-01,5.925292968750000000e-01
-1.000000000000000000e+00,-2.000000000000000000e+00,-1.500000000000000000e+01,-1.000000000000000000e+00,1.000000000000000000e+00,1.000000000000000000e+00,-2.000000000000000000e+00,-2.000000000000000000e+00,-4.526977539062500000e-01,2.808837890625000000e-01,6.041870117187500000e-01,5.925292968750000000e-01
0.000000000000000000e+00,-2.000000000000000000e+00,0.000000000000000000e+00,3.000000000000000000e+00,-3.000000000000000000e+00,-1.000000000000000000e+00,1.000000000000000000e+00,1.000000000000000000e+00,-4.526977539062500000e-01,2.808837890625000000e-01,6.041870117187500000e-01,5.925292968750000000e-01
-1.000000000000000000e+00,5.000000000000000000e+00,3.000000000000000000e+01,-1.500000000000000000e+01,-1.300000000000000000e+01,-3.000000000000000000e+00,-5.000000000000000000e+00,-3.000000000000000000e+00,-4.522705078125000000e-01,2.813720703125000000e-01,6.043090820312500000e-01,5.924682617187500000e-01
-3.000000000000000000e+00,-4.000000000000000000e+00,-4.200000000000000000e+01,-2.700000000000000000e+01,-2.000000000000000000e+01,-5.000000000000000000e+00,0.000000000000000000e+00,-1.000000000000000000e+00,-4.522705078125000000e-01,2.813720703125000000e-01,6.043090820312500000e-01,5.924682617187500000e-01
1.000000000000000000e+00,-2.000000000000000000e+00,-1.100000000000000000e+01,2.300000000000000000e+01,3.000000000000000000e+01,6.000000000000000000e+00,2.000000000000000000e+00,1.000000000000000000e+00,-4.522705078125000000e-01,2.813720703125000000e-01,6.043090820312500000e-01,5.924682617187500000e-01
-3.000000000000000000e+00,-2.000000000000000000e+00,1.100000000000000000e+01,1.500000000000000000e+01,4.000000000000000000e+00,1.000000000000000000e+00,-2.000000000000000000e+00,-2.000000000000000000e+00,-4.522705078125000000e-01,2.813720703125000000e-01,6.043090820312500000e-01,5.924682617187500000e-01
-1.000000000000000000e+00,0.000000000000000000e+00,4.000000000000000000e+00,4.000000000000000000e+00,-7.000000000000000000e+00,-1.000000000000000000e+00,-1.000000000000000000e+00,-1.000000000000000000e+00,-4.522705078125000000e-01,2.813720703125000000e-01,6.047363281250000000e-01,5.920410156250000000e-01
-1.000000000000000000e+00,-2.000000000000000000e+00,-9.000000000000000000e+00,-1.700000000000000000e+01,-1.600000000000000000e+01,-6.000000000000000000e+00,-4.000000000000000000e+00,-3.000000000000000000e+00,-4.522705078125000000e-01,2.813720703125000000e-01,6.047363281250000000e-01,5.920410156250000000e-01
-2.000000000000000000e+00,-1.000000000000000000e+00,-7.000000000000000000e+00,-4.000000000000000000e+00,3.000000000000000000e+00,3.000000000000000000e+00,1.000000000000000000e+00,0.000000000000000000e+00,-4.522705078125000000e-01,2.813720703125000000e-01,6.047363281250000000e-01,5.920410156250000000e-01
-1.000000000000000000e+00,0.000000000000000000e+00,9.000000000000000000e+00,3.000000000000000000e+00,9.000000000000000000e+00,2.000000000000000000e+00,1.000000000000000000e+00,-1.000000000000000000e+00,-4.522705078125000000e-01,2.813720703125000000e-01,6.047363281250000000e-01,5.920410156250000000e-01
-1.000000000000000000e+00,-2.000000000000000000e+00,-1.500000000000000000e+01,-7.000000000000000000e+00,-1.000000000000000000e+00,0.000000000000000000e+00,0.000000000000000000e+00,0.000000000000000000e+00,-4.526977539062500000e-01,2.807617187500000000e-01,6.052856445312500000e-01,5.914916992187500000e-01
-1.000000000000000000e+00,-2.000000000000000000e+00,1.500000000000000000e+01,2.000000000000000000e+00,-3.000000000000000000e+00,-4.000000000000000000e+00,-2.000000000000000000e+00,-2.000000000000000000e+00,-4.526977539062500000e-01,2.807617187500000000e-01,6.052856445312500000e-01,5.914916992187500000e-01
1.000000000000000000e+00,0.000000000000000000e+00,-8.000000000000000000e+00,-1.300000000000000000e+01,-8.000000000000000000e+00,-5.000000000000000000e+00,-4.000000000000000000e+00,-1.000000000000000000e+00,-4.526977539062500000e-01,2.807617187500000000e-01,6.052856445312500000e-01,5.914916992187500000e-01
1.000000000000000000e+00,3.000000000000000000e+00,1.200000000000000000e+01,1.400000000000000000e+01,0.000000000000000000e+00,-1.000000000000000000e+00,-1.000000000000000000e+00,2.000000000000000000e+00,-4.526977539062500000e-01,2.807617187500000000e-01,6.052856445312500000e-01,5.914916992187500000e-01
-2.000000000000000000e+00,-2.000000000000000000e+00,2.000000000000000000e+00,-1.000000000000000000e+01,-4.000000000000000000e+00,-2.000000000000000000e+00,-1.000000000000000000e+00,-2.000000000000000000e+00,-4.530029296875000000e-01,2.802124023437500000e-01,6.055297851562500000e-01,5.911865234375000000e-01
0.000000000000000000e+00,2.000000000000000000e+00,8.000000000000000000e+00,-3.000000000000000000e+00,2.000000000000000000e+00,-3.000000000000000000e+00,-2.000000000000000000e+00,1.000000000000000000e+00,-4.530029296875000000e-01,2.802124023437500000e-01,6.055297851562500000e-01,5.911865234375000000e-01
-3.000000000000000000e+00,-4.000000000000000000e+00,-4.000000000000000000e+00,0.000000000000000000e+00,-7.000000000000000000e+00,-3.000000000000000000e+00,-2.000000000000000000e+00,-1.000000000000000000e+00,-4.530029296875000000e-01,2.802124023437500000e-01,6.055297851562500000e-01,5.911865234375000000e-01
0.000000000000000000e+00,2.000000000000000000e+00,7.000000000000000000e+00,0.000000000000000000e+00,-3.000000000000000000e+00,-1.000000000000000000e+00,0.000000000000000000e+00,-1.000000000000000000e+00,-4.530029296875000000e-01,2.802124023437500000e-01,6.055297851562500000e-01,5.911865234375000000e-01
-1.000000000000000000e+00,-4.000000000000000000e+00,-3.200000000000000000e+01,-1.200000000000000000e+01,-4.000000000000000000e+00,-2.000000000000000000e+00,-1.000000000000000000e+00,-1.000000000000000000e+00,-4.529418945312500000e-01,2.801513671875000000e-01,6.057128906250000000e-01,5.911254882812500000e-01
1.000000000000000000e+00,0.000000000000000000e+00,4.000000000000000000e+00,1.400000000000000000e+01,1.200000000000000000e+01,2.000000000000000000e+00,-1.000000000000000000e+00,0.000000000000000000e+00,-4.529418945312500000e-01,2.801513671875000000e-01,6.057128906250000000e-01,5.911254882812500000e-01
1.000000000000000000e+00,1.000000000000000000e+00,1.100000000000000000e+01,-4.000000000000000000e+00,-8.000000000000000000e+00,-1.000000000000000000e+00,-2.000000000000000000e+00,-2.000000000000000000e+00,-4.529418945312500000e-01,2.801513671875000000e-01,6.057128906250000000e-01,5.911254882812500000e-01
-1.000000000000000000e+00,-2.000000000000000000e+00,4.000000000000000000e+00,5.000000000000000000e+00,-1.000000000000000000e+00,1.000000000000000000e+00,-3.000000000000000000e+00,-3.000000000000000000e+00,-4.529418945312500000e-01,2.801513671875000000e-01,6.057128906250000000e-01,5.911254882812500000e-01
-2.000000000000000000e+00,-6.000000000000000000e+00,-3.200000000000000000e+01,-1.300000000000000000e+01,-1.100000000000000000e+01,-3.000000000000000000e+00,-1.000000000000000000e+00,-1.000000000000000000e+00,-4.528808593750000000e-01,2.801513671875000000e-01,6.057739257812500000e-01,5.911254882812500000e-01
1.000000000000000000e+00,1.000000000000000000e+00,-1.100000000000000000e+01,1.000000000000000000e+01,1.300000000000000000e+01,7.000000000000000000e+00,3.000000000000000000e+00,2.000000000000000000e+00,-4.528808593750000000e-01,2.801513671875000000e-01,6.057739257812500000e-01,5.911254882812500000e-01
-1.000000000000000000e+00,-4.000000000000000000e+00,8.000000000000000000e+00,-3.000000000000000000e+00,0.000000000000000000e+00,1.000000000000000000e+00,1.000000000000000000e+00,1.000000000000000000e+00,-4.528808593750000000e-01,2.801513671875000000e-01,6.057739257812500000e-01,5.911254882812500000e-01
-2.000000000000000000e+00,-7.000000000000000000e+00,-1.000000000000000000e+01,0.000000000000000000e+00,2.000000000000000000e+00,-1.000000000000000000e+00,-2.000000000000000000e+00,-1.000000000000000000e+00,-4.528808593750000000e-01,2.801513671875000000e-01,6.057739257812500000e-01,5.911254882812500000e-01
2.000000000000000000e+00,5.000000000000000000e+00,4.600000000000000000e+01,9.000000000000000000e+00,-1.000000000000000000e+00,-5.000000000000000000e+00,-3.000000000000000000e+00,-1.000000000000000000e+00,-4.532470703125000000e-01,2.795410156250000000e-01,6.057739257812500000e-01,5.910644531250000000e-01
-1.000000000000000000e+00,2.000000000000000000e+00,2.700000000000000000e+01,-6.000000000000000000e+00,-8.000000000000000000e+00,-1.000000000000000000e+00,0.000000000000000000e+00,-1.000000000000000000e+00,-4.532470703125000000e-01,2.795410156250000000e-01,6.057739257812500000e-01,5.910644531250000000e-01
-3.000000000000000000e+00,-5.000000000000000000e+00,-2.500000000000000000e+01,-1.500000000000000000e+01,-5.000000000000000000e+00,-2.000000000000000000e+00,-2.000000000000000000e+00,-2.000000000000000000e+00,-4.532470703125000000e-01,2.795410156250000000e-01,6.057739257812500000e-01,5.910644531250000000e-01
1.000000000000000000e+00,4.000000000000000000e+00,1.000000000000000000e+00,-5.000000000000000000e+00,-6.000000000000000000e+00,-3.000000000000000000e+00,-1.000000000000000000e+00,-2.000000000000000000e+00,-4.532470703125000000e-01,2.795410156250000000e-01,6.057739257812500000e-01,5.910644531250000000e-01
0.000000000000000000e+00,-1.000000000000000000e+00,1.000000000000000000e+00,1.000000000000000000e+00,4.000000000000000000e+00,0.000000000000000000e+00,2.000000000000000000e+00,1.000000000000000000e+00,-4.538574218750000000e-01,2.788085937500000000e-01,6.052246093750000000e-01,5.915527343750000000e-01
-2.000000000000000000e+00,-3.000000000000000000e+00,1.000000000000000000e+00,6.000000000000000000e+00,1.000000000000000000e+00,-1.000000000000000000e+00,-2.000000000000000000e+00,-2.000000000000000000e+00,-4.538574218750000000e-01,2.788085937500000000e-01,6.052246093750000000e-01,5.915527343750000000e-01
1.000000000000000000e+00,5.000000000000000000e+00,4.000000000000000000e+00,-8.000000000000000000e+00,-8.000000000000000000e+00,-2.000000000000000000e+00,0.000000000000000000e+00,-1.000000000000000000e+00,-4.538574218750000000e-01,2.788085937500000000e-01,6.052246093750000000e-01,5.915527343750000000e-01
0.000000000000000000e+00,-1.000000000000000000e+00,1.000000000000000000e+00,3.000000000000000000e+00,0.000000000000000000e+00,1.000000000000000000e+00,0.000000000000000000e+00,-2.000000000000000000e+00,-4.538574218750000000e-01,2.788085937500000000e-01,6.052246093750000000e-01,5.915527343750000000e-01
0.000000000000000000e+00,-1.000000000000000000e+00,-1.400000000000000000e+01,-5.000000000000000000e+00,-4.000000000000000000e+00,-1.000000000000000000e+00,0.000000000000000000e+00,0.000000000000000000e+00,-4.539794921875000000e-01,2.786865234375000000e-01,6.043090820312500000e-01,5.924072265625000000e-01
-2.000000000000000000e+00,-1.000000000000000000e+00,7.000000000000000000e+00,4.000000000000000000e+00,6.000000000000000000e+00,3.000000000000000000e+00,-1.000000000000000000e+00,-2.000000000000000000e+00,-4.539794921875000000e-01,2.786865234375000000e-01,6.043090820312500000e-01,5.924072265625000000e-01
0.000000000000000000e+00,0.000000000000000000e+00,-7.000000000000000000e+00,1.000000000000000000e+01,5.000000000000000000e+00,3.000000000000000000e+00,2.000000000000000000e+00,1.000000000000000000e+00,-4.539794921875000000e-01,2.786865234375000000e-01,6.043090820312500000e-01,5.924072265625000000e-01
1.000000000000000000e+00,0.000000000000000000e+00,-1.200000000000000000e+01,-5.000000000000000000e+00,-4.000000000000000000e+00,-4.000000000000000000e+00,-1.000000000000000000e+00,1.000000000000000000e+00,-4.539794921875000000e-01,2.786865234375000000e-01,6.043090820312500000e-01,5.924072265625000000e-01
-1.000000000000000000e+00,1.000000000000000000e+00,2.000000000000000000e+00,6.000000000000000000e+00,4.000000000000000000e+00,1.000000000000000000e+00,0.000000000000000000e+00,-2.000000000000000000e+00,-4.541015625000000000e-01,2.783203125000000000e-01,6.036987304687500000e-01,5.931396484375000000e-01
-1.000000000000000000e+00,-1.000000000000000000e+00,-2.000000000000000000e+00,-9.000000000000000000e+00,-1.100000000000000000e+01,-5.000000000000000000e+00,-2.000000000000000000e+00,-3.000000000000000000e+00,-4.541015625000000000e-01,2.783203125000000000e-01,6.036987304687500000e-01,5.931396484375000000e-01
-2.000000000000000000e+00,-3.000000000000000000e+00,-1.100000000000000000e+01,9.000000000000000000e+00,1.000000000000000000e+00,-3.000000000000000000e+00,0.000000000000000000e+00,0.000000000000000000e+00,-4.541015625000000000e-01,2.783203125000000000e-01,6.036987304687500000e-01,5.931396484375000000e-01
0.000000000000000000e+00,-2.000000000000000000e+00,-4.000000000000000000e+00,-1.500000000000000000e+01,-2.000000000000000000e+00,3.000000000000000000e+00,0.000000000000000000e+00,1.000000000000000000e+00,-4.541015625000000000e-01,2.783203125000000000e-01,6.036987304687500000e-01,5.931396484375000000e-01
0.000000000000000000e+00,-2.000000000000000000e+00,-9.000000000000000000e+00,1.100000000000000000e+01,1.900000000000000000e+01,5.000000000000000000e+00,0.000000000000000000e+00,0.000000000000000000e+00,-4.547729492187500000e-01,2.774047851562500000e-01,6.035156250000000000e-01,5.932617187500000000e-01
-2.000000000000000000e+00,-2.000000000000000000e+00,0.000000000000000000e+00,-6.000000000000000000e+00,-5.000000000000000000e+00,-3.000000000000000000e+00,-1.000000000000000000e+00,-3.000000000000000000e+00,-4.547729492187500000e-01,2.774047851562500000e-01,6.035156250000000000e-01,5.932617187500000000e-01
1.000000000000000000e+00,3.000000000000000000e+00,1.300000000000000000e+01,1.700000000000000000e+01,1.300000000000000000e+01,1.000000000000000000e+00,-1.000000000000000000e+00,0.000000000000000000e+00,-4.547729492187500000e-01,2.774047851562500000e-01,6.035156250000000000e-01,5.932617187500000000e-01
0.000000000000000000e+00,0.000000000000000000e+00,1.400000000000000000e+01,-1.000000000000000000e+00,-8.000000000000000000e+00,-5.000000000000000000e+00,-1.000000000000000000e+00,0.000000000000000000e+00,-4.547729492187500000e-01,2.774047851562500000e-01,6.035156250000000000e-01,5.932617187500000000e-01
-3.000000000000000000e+00,-6.000000000000000000e+00,-2.700000000000000000e+01,3.000000000000000000e+00,-5.000000000000000000e+00,-3.000000000000000000e+00,-2.000000000000000000e+00,-1.000000000000000000e+00,-4.558715820312500000e-01,2.759399414062500000e-01,6.033935546875000000e-01,5.932006835937500000e-01
-1.000000000000000000e+00,-1.000000000000000000e+00,-7.000000000000000000e+00,3.000000000000000000e+00,1.000000000000000000e+01,4.000000000000000000e+00,-1.000000000000000000e+00,1.000000000000000000e+00,-4.558715820312500000e-01,2.759399414062500000e-01,6.033935546875000000e-01,5.932006835937500000e-01
-1.000000000000000000e+00,1.000000000000000000e+00,0.000000000000000000e+00,-1.700000000000000000e+01,-1.000000000000000000e+01,-4.000000000000000000e+00,-2.000000000000000000e+00,-2.000000000000000000e+00,-4.558715820312500000e-01,2.759399414062500000e-01,6.033935546875000000e-01,5.932006835937500000e-01
-1.000000000000000000e+00,0.000000000000000000e+00,5.000000000000000000e+00,9.000000000000000000e+00,3.000000000000000000e+00,-1.000000000000000000e+00,0.000000000000000000e+00,0.000000000000000000e+00,-4.558715820312500000e-01,2.759399414062500000e-01,6.033935546875000000e-01,5.932006835937500000e-01
-2.000000000000000000e+00,0.000000000000000000e+00,1.300000000000000000e+01,-4.000000000000000000e+00,-1.000000000000000000e+00,-1.000000000000000000e+00,-2.000000000000000000e+00,-2.000000000000000000e+00,-4.566650390625000000e-01,2.748413085937500000e-01,6.032714843750000000e-01,5.932006835937500000e-01
-1.000000000000000000e+00,-3.000000000000000000e+00,-2.000000000000000000e+00,0.000000000000000000e+00,-3.000000000000000000e+00,0.000000000000000000e+00,0.000000000000000000e+00,-2.000000000000000000e+00,-4.566650390625000000e-01,2.748413085937500000e-01,6.032714843750000000e-01,5.932006835937500000e-01
0.000000000000000000e+00,0.000000000000000000e+00,0.000000000000000000e+00,0.000000000000000000e+00,-4.000000000000000000e+00,-3.000000000000000000e+00,-2.000000000000000000e+00,-1.000000000000000000e+00,-4.566650390625000000e-01,2.748413085937500000e-01,6.032714843750000000e-01,5.932006835937500000e-01
1.000000000000000000e+00,-1.000000000000000000e+00,-4.000000000000000000e+00,3.000000000000000000e+00,6.000000000000000000e+00,0.000000000000000000e+00,-2.000000000000000000e+00,0.000000000000000000e+00,-4.566650390625000000e-01,2.748413085937500000e-01,6.032714843750000000e-01,5.932006835937500000e-01
-3.000000000000000000e+00,-3.000000000000000000e+00,2.000000000000000000e+00,-9.000000000000000000e+00,-1.100000000000000000e+01,-1.000000000000000000e+00,-2.000000000000000000e+00,-2.000000000000000000e+00,-4.567260742187500000e-01,2.747192382812500000e-01,6.030273437500000000e-01,5.935058593750000000e-01
-1.000000000000000000e+00,-1.000000000000000000e+00,6.000000000000000000e+00,5.000000000000000000e+00,1.000000000000000000e+00,-2.000000000000000000e+00,0.000000000000000000e+00,0.000000000000000000e+00,-4.567260742187500000e-01,2.747192382812500000e-01,6.030273437500000000e-01,5.935058593750000000e-01
-1.000000000000000000e+00,0.000000000000000000e+00,-1.200000000000000000e+01,-2.000000000000000000e+00,3.000000000000000000e+00,2.000000000000000000e+00,-1.000000000000000000e+00,0.000000000000000000e+00,-4.567260742187500000e-01,2.747192382812500000e-01,6.030273437500000000e-01,5.935058593750000000e-01
-3.000000000000000000e+00,-1.000000000000000000e+00,-1.000000000000000000e+00,0.000000000000000000e+00,-4.000000000000000000e+00,-2.000000000000000000e+00,-1.000000000000000000e+00,-2.000000000000000000e+00,-4.567260742187500000e-01,2.747192382812500000e-01,6.030273437500000000e-01,5.935058593750000000e-01
1.000000000000000000e+00,1.000000000000000000e+00,1.700000000000000000e+01,1.000000000000000000e+00,2.000000000000000000e+00,-2.000000000000000000e+00,1.000000000000000000e+00,1.000000000000000000e+00,-4.563598632812500000e-01,2.750854492187500000e-01,6.030273437500000000e-01,5.936279296875000000e-01
1.000000000000000000e+00,-3.000000000000000000e+00,-1.400000000000000000e+01,-2.100000000000000000e+01,-2.400000000000000000e+01,-5.000000000000000000e+00,-4.000000000000000000e+00,-3.000000000000000000e+00,-4.563598632812500000e-01,2.750854492187500000e-01,6.030273437500000000e-01,5.936279296875000000e-01
-1.000000000000000000e+00,-3.000000000000000000e+00,1.000000000000000000e+00,-1.000000000000000000e+00,1.600000000000000000e+01,3.000000000000000000e+00,2.000000000000000000e+00,-3.000000000000000000e+00,-4.563598632812500000e-01,2.750854492187500000e-01,6.030273437500000000e-01,5.936279296875000000e-01
0.000000000000000000e+00,0.000000000000000000e+00,-1.000000000000000000e+00,2.600000000000000000e+01,1.200000000000000000e+01,2.000000000000000000e+00,1.000000000000000000e+00,-1.000000000000000000e+00,-4.563598632812500000e-01,2.750854492187500000e-01,6.030273437500000000e-01,5.936279296875000000e-01
-3.000000000000000000e+00,-1.000000000000000000e+00,-3.000000000000000000e+00,-1.000000000000000000e+01,-8.000000000000000000e+00,-4.000000000000000000e+00,-3.000000000000000000e+00,-1.000000000000000000e+00,-4.557495117187500000e-01,2.755737304687500000e-01,6.032104492187500000e-01,5.936279296875000000e-01
0.000000000000000000e+00,1.000000000000000000e+00,7.000000000000000000e+00,8.000000000000000000e+00,1.000000000000000000e+00,0.000000000000000000e+00,0.000000000000000000e+00,1.000000000000000000e+00,-4.557495117187500000e-01,2.755737304687500000e-01,6.032104492187500000e-01,5.936279296875000000e-01
-1.000000000000000000e+00,-4.000000000000000000e+00,-1.600000000000000000e+01,-2.100000000000000000e+01,-2.200000000000000000e+01,-5.000000000000000000e+00,-3.000000000000000000e+00,-2.000000000000000000e+00,-4.557495117187500000e-01,2.755737304687500000e-01,6.032104492187500000e-01,5.936279296875000000e-01
-1.000000000000000000e+00,-2.000000000000000000e+00,-3.000000000000000000e+00,-6.000000000000000000e+00,-7.000000000000000000e+00,-3.000000000000000000e+00,-4.000000000000000000e+00,-1.000000000000000000e+00,-4.557495117187500000e-01,2.755737304687500000e-01,6.032104492187500000e-01,5.936279296875000000e-01
0.000000000000000000e+00,2.000000000000000000e+00,0.000000000000000000e+00,0.000000000000000000e+00,2.000000000000000000e+00,3.000000000000000000e+00,2.000000000000000000e+00,-2.000000000000000000e+00,-4.554443359375000000e-01,2.756958007812500000e-01,6.034545898437500000e-01,5.936279296875000000e-01
0.000000000000000000e+00,-2.000000000000000000e+00,-4.000000000000000000e+00,0.000000000000000000e+00,2.000000000000000000e+00,1.000000000000000000e+00,1.000000000000000000e+00,-1.000000000000000000e+00,-4.554443359375000000e-01,2.756958007812500000e-01,6.034545898437500000e-01,5.936279296875000000e-01
-1.000000000000000000e+00,0.000000000000000000e+00,4.000000000000000000e+00,-4.000000000000000000e+00,-6.000000000000000000e+00,0.000000000000000000e+00,0.000000000000000000e+00,0.000000000000000000e+00,-4.554443359375000000e-01,2.756958007812500000e-01,6.034545898437500000e-01,5.936279296875000000e-01
-1.000000000000000000e+00,-1.000000000000000000e+00,-2.000000000000000000e+00,1.000000000000000000e+00,9.000000000000000000e+00,1.000000000000000000e+00,-1.000000000000000000e+00,-1.000000000000000000e+00,-4.554443359375000000e-01,2.756958007812500000e-01,6.034545898437500000e-01,5.936279296875000000e-01
1.000000000000000000e+00,-2.000000000000000000e+00,-2.000000000000000000e+00,1.000000000000000000e+00,-5.000000000000000000e+00,0.000000000000000000e+00,-1.000000000000000000e+00,0.000000000000000000e+00,-4.551391601562500000e-01,2.761230468750000000e-01,6.036987304687500000e-01,5.933837890625000000e-01
0.000000000000000000e+00,-1.000000000000000000e+00,4.000000000000000000e+00,3.000000000000000000e+00,5.000000000000000000e+00,-3.000000000000000000e+00,-3.000000000000000000e+00,-2.000000000000000000e+00,-4.551391601562500000e-01,2.761230468750000000e-01,6.036987304687500000e-01,5.933837890625000000e-01
-2.000000000000000000e+00,-2.000000000000000000e+00,2.000000000000000000e+00,-3.000000000000000000e+00,-1.000000000000000000e+00,-1.000000000000000000e+00,0.000000000000000000e+00,-1.000000000000000000e+00,-4.551391601562500000e-01,2.761230468750000000e-01,6.036987304687500000e-01,5.933837890625000000e-01
0.000000000000000000e+00,-1.000000000000000000e+00,-8.000000000000000000e+00,-9.000000000000000000e+00,-7.000000000000000000e+00,-5.000000000000000000e+00,-3.000000000000000000e+00,1.000000000000000000e+00,-4.551391601562500000e-01,2.761230468750000000e-01,6.036987304687500000e-01,5.933837890625000000e-01
-2.000000000000000000e+00,2.000000000000000000e+00,1.000000000000000000e+00,-1.600000000000000000e+01,-1.000000000000000000e+01,-1.000000000000000000e+00,0.000000000000000000e+00,-3.000000000000000000e+00,-4.550781250000000000e-01,2.762451171875000000e-01,6.040039062500000000e-01,5.930786132812500000e-01
-1.000000000000000000e+00,0.000000000000000000e+00,1.500000000000000000e+01,3.800000000000000000e+01,2.600000000000000000e+01,6.000000000000000000e+00,4.000000000000000000e+00,-1.000000000000000000e+00,-4.550781250000000000e-01,2.762451171875000000e-01,6.040039062500000000e-01,5.930786132812500000e-01
0.000000000000000000e+00,-3.000000000000000000e+00,-6.000000000000000000e+00,-2.800000000000000000e+01,-3.000000000000000000e+00,-2.000000000000000000e+00,-2.000000000000000000e+00,-2.000000000000000000e+00,-4.550781250000000000e-01,2.762451171875000000e-01,6.040039062500000000e-01,5.930786132812500000e-01
-1.000000000000000000e+00,-1.000000000000000000e+00,-4.000000000000000000e+00,1.700000000000000000e+01,-2.000000000000000000e+00,-2.000000000000000000e+00,-2.000000000000000000e+00,-3.000000000000000000e+00,-4.550781250000000000e-01,2.762451171875000000e-01,6.040039062500000000e-01,5.930786132812500000e-01
-1.000000000000000000e+00,-1.000000000000000000e+00,-1.300000000000000000e+01,-5.000000000000000000e+00,-2.000000000000000000e+00,-4.000000000000000000e+00,-1.000000000000000000e+00,-1.000000000000000000e+00,-4.546508789062500000e-01,2.765502929687500000e-01,6.041259765625000000e-01,5.930786132812500000e-01
-1.000000000000000000e+00,-1.000000000000000000e+00,1.200000000000000000e+01,0.000000000000000000e+00,-2.000000000000000000e+00,-2.000000000000000000e+00,0.000000000000000000e+00,1.000000000000000000e+00,-4.546508789062500000e-01,2.765502929687500000e-01,6.041259765625000000e-01,5.930786132812500000e-01
-1.000000000000000000e+00,-2.000000000000000000e+00,8.000000000000000000e+00,-1.100000000000000000e+01,-1.000000000000000000e+01,-4.000000000000000000e+00,-1.000000000000000000e+00,-3.000000000000000000e+00,-4.546508789062500000e-01,2.765502929687500000e-01,6.041259765625000000e-01,5.930786132812500000e-01
-1.000000000000000000e+00,0.000000000000000000e+00,3.000000000000000000e+00,-1.400000000000000000e+01,-1.000000000000000000e+01,-2.000000000000000000e+00,0.000000000000000000e+00,-1.000000000000000000e+00,-4.546508789062500000e-01,2.765502929687500000e-01,6.041259765625000000e-01,5.930786132812500000e-01
-1.000000000000000000e+00,-3.000000000000000000e+00,-4.000000000000000000e+00,1.000000000000000000e+01,9.000000000000000000e+00,2.000000000000000000e+00,-1.000000000000000000e+00,-1.000000000000000000e+00,-4.546508789062500000e-01,2.765502929687500000e-01,6.041870117187500000e-01,5.930786132812500000e-01
-1.000000000000000000e+00,0.000000000000000000e+00,0.000000000000000000e+00,0.000000000000000000e+00,-1.000000000000000000e+00,-2.000000000000000000e+00,-2.000000000000000000e+00,-2.000000000000000000e+00,-4.546508789062500000e-01,2.765502929687500000e-01,6.041870117187500000e-01,5.930786132812500000e-01
0.000000000000000000e+00,0.000000000000000000e+00,-4.000000000000000000e+00,4.000000000000000000e+00,-3.000000000000000000e+00,-1.000000000000000000e+00,-1.000000000000000000e+00,-2.000000000000000000e+00,-4.546508789062500000e-01,2.765502929687500000e-01,6.041870117187500000e-01,5.930786132812500000e-01
-2.000000000000000000e+00,-1.000000000000000000e+00,0.000000000000000000e+00,-9.000000000000000000e+00,-1.000000000000000000e+00,-1.000000000000000000e+00,-2.000000000000000000e+00,-4.000000000000000000e+00,-4.546508789062500000e-01,2.765502929687500000e-01,6.041870117187500000e-01,5.930786132812500000e-01
1.000000000000000000e+00,2.000000000000000000e+00,6.000000000000000000e+00,1.000000000000000000e+00,-4.000000000000000000e+00,-2.000000000000000000e+00,1.000000000000000000e+00,-1.000000000000000000e+00,-4.550170898437500000e-01,2.766723632812500000e-01,6.039428710937500000e-01,5.929565429687500000e-01
-2.000000000000000000e+00,-2.000000000000000000e+00,6.000000000000000000e+00,-2.000000000000000000e+00,-1.000000000000000000e+00,1.000000000000000000e+00,-3.000000000000000000e+00,0.000000000000000000e+00,-4.550170898437500000e-01,2.766723632812500000e-01,6.039428710937500000e-01,5.929565429687500000e-01
1.000000000000000000e+00,-1.000000000000000000e+00,-1.700000000000000000e+01,-1.000000000000000000e+00,-4.000000000000000000e+00,-3.000000000000000000e+00,-2.000000000000000000e+00,0.000000000000000000e+00,-4.550170898437500000e-01,2.766723632812500000e-01,6.039428710937500000e-01,5.929565429687500000e-01
-2.000000000000000000e+00,-4.000000000000000000e+00,-6.000000000000000000e+00,3.000000000000000000e+00,1.000000000000000000e+01,4.000000000000000000e+00,1.000000000000000000e+00,-1.000000000000000000e+00,-4.550170898437500000e-01,2.766723632812500000e-01,6.039428710937500000e-01,5.929565429687500000e-01
-2.000000000000000000e+00,1.000000000000000000e+00,1.000000000000000000e+00,-1.000000000000000000e+00,0.000000000000000000e+00,-1.000000000000000000e+00,-2.000000000000000000e+00,0.000000000000000000e+00,-4.553222656250000000e-01,2.767944335937500000e-01,6.037597656250000000e-01,5.928344726562500000e-01
1.000000000000000000e+00,-2.000000000000000000e+00,-6.000000000000000000e+00,6.000000000000000000e+00,0.000000000000000000e+00,-3.000000000000000000e+00,-2.000000000000000000e+00,0.000000000000000000e+00,-4.553222656250000000e-01,2.767944335937500000e-01,6.037597656250000000e-01,5.928344726562500000e-01
0.000000000000000000e+00,2.000000000000000000e+00,2.000000000000000000e+01,3.000000000000000000e+00,-5.000000000000000000e+00,-1.000000000000000000e+00,-1.000000000000000000e+00,0.000000000000000000e+00,-4.553222656250000000e-01,2.767944335937500000e-01,6.037597656250000000e-01,5.928344726562500000e-01
-2.000000000000000000e+00,-2.000000000000000000e+00,-1.800000000000000000e+01,-7.000000000000000000e+00,-4.000000000000000000e+00,-1.000000000000000000e+00,1.000000000000000000e+00,-1.000000000000000000e+00,-4.553222656250000000e-01,2.767944335937500000e-01,6.037597656250000000e-01,5.928344726562500000e-01
1.000000000000000000e+00,-2.000000000000000000e+00,-2.000000000000000000e+00,-8.000000000000000000e+00,-8.000000000000000000e+00,-6.000000000000000000e+00,-4.000000000000000000e+00,-2.000000000000000000e+00,-4.555664062500000000e-01,2.769775390625000000e-01,6.036376953125000000e-01,5.927124023437500000e-01
-1.000000000000000000e+00,-4.000000000000000000e+00,-1.100000000000000000e+01,-3.000000000000000000e+01,-1.500000000000000000e+01,-4.000000000000000000e+00,-3.000000000000000000e+00,-2.000000000000000000e+00,-4.555664062500000000e-01,2.769775390625000000e-01,6.036376953125000000e-01,5.927124023437500000e-01
-2.000000000000000000e+00,-1.000000000000000000e+00,1.300000000000000000e+01,3.200000000000000000e+01,1.800000000000000000e+01,7.000000000000000000e+00,3.000000000000000000e+00,0.000000000000000000e+00,-4.555664062500000000e-01,2.769775390625000000e-01,6.036376953125000000e-01,5.927124023437500000e-01
2.000000000000000000e+00,3.000000000000000000e+00,1.000000000000000000e+01,-6.000000000000000000e+00,-4.000000000000000000e+00,1.000000000000000000e+00,1.000000000000000000e+00,3.000000000000000000e+00,-4.555664062500000000e-01,2.769775390625000000e-01,6.036376953125000000e-01,5.927124023437500000e-01
-2.000000000000000000e+00,-6.000000000000000000e+00,-1.500000000000000000e+01,8.000000000000000000e+00,1.000000000000000000e+00,1.000000000000000000e+00,-2.000000000000000000e+00,0.000000000000000000e+00,-4.556884765625000000e-01,2.772827148437500000e-01,6.035766601562500000e-01,5.925903320312500000e-01
-2.000000000000000000e+00,-1.000000000000000000e+00,-2.000000000000000000e+00,2.000000000000000000e+00,-1.000000000000000000e+00,-5.000000000000000000e+00,-1.000000000000000000e+00,-2.000000000000000000e+00,-4.556884765625000000e-01,2.772827148437500000e-01,6.035766601562500000e-01,5.925903320312500000e-01
0.000000000000000000e+00,1.000000000000000000e+00,-1.700000000000000000e+01,-8.000000000000000000e+00,-1.000000000000000000e+01,-5.000000000000000000e+00,0.000000000000000000e+00,1.000000000000000000e+00,-4.556884765625000000e-01,2.772827148437500000e-01,6.035766601562500000e-01,5.925903320312500000e-01
-4.000000000000000000e+00,-6.000000000000000000e+00,1.300000000000000000e+01,-3.000000000000000000e+00,-5.000000000000000000e+00,-3.000000000000000000e+00,-3.000000000000000000e+00,-4.000000000000000000e+00,-4.556884765625000000e-01,2.772827148437500000e-01,6.035766601562500000e-01,5.925903320312500000e-01
-1.000000000000000000e+00,1.000000000000000000e+00,-2.000000000000000000e+00,-8.000000000000000000e+00,0.000000000000000000e+00,0.000000000000000000e+00,0.000000000000000000e+00,-2.000000000000000000e+00,-4.560546875000000000e-01,2.772827148437500000e-01,6.034545898437500000e-01,5.924072265625000000e-01
0.000000000000000000e+00,-3.000000000000000000e+00,-1.000000000000000000e+01,6.000000000000000000e+00,3.000000000000000000e+00,1.000000000000000000e+00,0.000000000000000000e+00,-2.000000000000000000e+00,-4.560546875000000000e-01,2.772827148437500000e-01,6.034545898437500000e-01,5.924072265625000000e-01
0.000000000000000000e+00,-1.000000000000000000e+00,-7.000000000000000000e+00,2.000000000000000000e+00,7.000000000000000000e+00,2.000000000000000000e+00,0.000000000000000000e+00,1.000000000000000000e+00,-4.560546875000000000e-01,2.772827148437500000e-01,6.034545898437500000e-01,5.924072265625000000e-01
-1.000000000000000000e+00,-1.000000000000000000e+00,-1.100000000000000000e+01,0.000000000000000000e+00,-1.000000000000000000e+00,-2.000000000000000000e+00,-1.000000000000000000e+00,-2.000000000000000000e+00,-4.560546875000000000e-01,2.772827148437500000e-01,6.034545898437500000e-01,5.924072265625000000e-01
-1.000000000000000000e+00,-1.000000000000000000e+00,1.000000000000000000e+01,7.000000000000000000e+00,-2.000000000000000000e+00,-1.000000000000000000e+00,-3.000000000000000000e+00,1.000000000000000000e+00,-4.563598632812500000e-01,2.775878906250000000e-01,6.033325195312500000e-01,5.921630859375000000e-01
-2.000000000000000000e+00,-2.000000000000000000e+00,-5.000000000000000000e+00,-4.000000000000000000e+00,-1.000000000000000000e+00,0.000000000000000000e+00,0.000000000000000000e+00,-3.000000000000000000e+00,-4.563598632812500000e-01,2.775878906250000000e-01,6.033325195312500000e-01,5.921630859375000000e-01
-1.000000000000000000e+00,-1.000000000000000000e+00,3.000000000000000000e+00,3.000000000000000000e+00,0.000000000000000000e+00,-2.000000000000000000e+00,-2.000000000000000000e+00,0.000000000000000000e+00,-4.563598632812500000e-01,2.780151367187500000e-01,6.033325195312500000e-01,5.919189453125000000e-01
-1.000000000000000000e+00,-2.000000000000000000e+00,3.000000000000000000e+00,-5.000000000000000000e+00,-8.000000000000000000e+00,-3.000000000000000000e+00,0.000000000000000000e+00,-1.000000000000000000e+00,-4.563598632812500000e-01,2.780151367187500000e-01,6.033325195312500000e-01,5.919189453125000000e-01
0.000000000000000000e+00,-3.000000000000000000e+00,-1.300000000000000000e+01,-1.200000000000000000e+01,-4.000000000000000000e+00,-3.000000000000000000e+00,-3.000000000000000000e+00,-3.000000000000000000e+00,-4.563598632812500000e-01,2.780151367187500000e-01,6.033325195312500000e-01,5.919189453125000000e-01
0.000000000000000000e+00,0.000000000000000000e+00,-2.000000000000000000e+00,9.000000000000000000e+00,1.100000000000000000e+01,2.000000000000000000e+00,-1.000000000000000000e+00,1.000000000000000000e+00,-4.563598632812500000e-01,2.780151367187500000e-01,6.033325195312500000e-01,5.919189453125000000e-01
-1.000000000000000000e+00,3.000000000000000000e+00,2.000000000000000000e+00,1.000000000000000000e+00,-8.000000000000000000e+00,-2.000000000000000000e+00,-3.000000000000000000e+00,-1.000000000000000000e+00,-4.562377929687500000e-01,2.784423828125000000e-01,6.035156250000000000e-01,5.916137695312500000e-01
-3.000000000000000000e+00,-3.000000000000000000e+00,-1.300000000000000000e+01,-6.000000000000000000e+00,-1.000000000000000000e+00,-2.000000000000000000e+00,-1.000000000000000000e+00,-2.000000000000000000e+00,-4.562377929687500000e-01,2.784423828125000000e-01,6.035156250000000000e-01,5.916137695312500000e-01
0.000000000000000000e+00,0.000000000000000000e+00,8.000000000000000000e+00,-1.000000000000000000e+01,-2.000000000000000000e+00,-1.000000000000000000e+00,3.000000000000000000e+00,0.000000000000000000e+00,-4.562377929687500000e-01,2.784423828125000000e-01,6.035156250000000000e-01,5.916137695312500000e-01
-2.000000000000000000e+00,-1.000000000000000000e+00,-3.000000000000000000e+00,1.600000000000000000e+01,-2.000000000000000000e+00,-4.000000000000000000e+00,-1.000000000000000000e+00,0.000000000000000000e+00,-4.562377929687500000e-01,2.784423828125000000e-01,6.035156250000000000e-01,5.916137695312500000e-01
0.000000000000000000e+00,2.000000000000000000e+00,2.600000000000000000e+01,-1.600000000000000000e+01,2.000000000000000000e+00,-3.000000000000000000e+00,-1.400000000000000000e+01,-6.000000000000000000e+00,-4.564208984375000000e-01,2.785034179687500000e-01,6.036987304687500000e-01,5.912475585937500000e-01
1.000000000000000000e+00,-2.000000000000000000e+00,-1.400000000000000000e+01,2.500000000000000000e+01,2.300000000000000000e+01,9.000000000000000000e+00,-8.000000000000000000e+00,1.000000000000000000e+00,-4.564208984375000000e-01,2.785034179687500000e-01,6.036987304687500000e-01,5.912475585937500000e-01
0.000000000000000000e+00,-1.000000000000000000e+00,3.000000000000000000e+00,3.000000000000000000e+00,-4.000000000000000000e+00,2.000000000000000000e+00,2.800000000000000000e+01,5.000000000000000000e+00,-4.564208984375000000e-01,2.785034179687500000e-01,6.036987304687500000e-01,5.912475585937500000e-01
1.000000000000000000e+00,2.000000000000000000e+00,-5.000000000000000000e+00,-1.400000000000000000e+01,-1.000000000000000000e+01,0.000000000000000000e+00,1.000000000000000000e+00,2.000000000000000000e+00,-4.564208984375000000e-01,2.785034179687500000e-01,6.036987304687500000e-01,5.912475585937500000e-01
-6.000000000000000000e+00,-6.000000000000000000e+00,6.000000000000000000e+00,4.000000000000000000e+00,0.000000000000000000e+00,0.000000000000000000e+00,0.000000000000000000e+00,-2.000000000000000000e+00,-4.568481445312500000e-01,2.781372070312500000e-01,6.036987304687500000e-01,5.911254882812500000e-01
1.000000000000000000e+00,6.000000000000000000e+00,1.400000000000000000e+01,-6.000000000000000000e+00,-1.000000000000000000e+01,-4.000000000000000000e+00,-1.200000000000000000e+01,-2.000000000000000000e+00,-4.568481445312500000e-01,2.781372070312500000e-01,6.036987304687500000e-01,5.911254882812500000e-01
-4.000000000000000000e+00,-8.000000000000000000e+00,-1.100000000000000000e+01,1.000000000000000000e+00,2.000000000000000000e+00,0.000000000000000000e+00,-9.000000000000000000e+00,-4.000000000000000000e+00,-4.568481445312500000e-01,2.781372070312500000e-01,6.036987304687500000e-01,5.911254882812500000e-01
0.000000000000000000e+00,0.000000000000000000e+00,4.000000000000000000e+00,-5.000000000000000000e+00,-1.000000000000000000e+00,1.000000000000000000e+00,3.000000000000000000e+00,1.000000000000000000e+00,-4.568481445312500000e-01,2.781372070312500000e-01,6.036987304687500000e-01,5.911254882812500000e-01
0.000000000000000000e+00,-2.000000000000000000e+00,-1.800000000000000000e+01,4.000000000000000000e+00,2.000000000000000000e+00,0.000000000000000000e+00,1.000000000000000000e+00,-1.000000000000000000e+00,-4.571533203125000000e-01,2.780151367187500000e-01,6.033325195312500000e-01,5.913085937500000000e-01
-1.000000000000000000e+00,-1.000000000000000000e+00,3.000000000000000000e+00,0.000000000000000000e+00,1.000000000000000000e+00,-2.000000000000000000e+00,7.000000000000000000e+00,-1.000000000000000000e+00,-4.571533203125000000e-01,2.780151367187500000e-01,6.033325195312500000e-01,5.913085937500000000e-01
-1.000000000000000000e+00,0.000000000000000000e+00,1.000000000000000000e+00,8.000000000000000000e+00,0.000000000000000000e+00,-3.000000000000000000e+00,-7.000000000000000000e+00,-3.000000000000000000e+00,-4.571533203125000000e-01,2.780151367187500000e-01,6.033325195312500000e-01,5.913085937500000000e-01
-1.000000000000000000e+00,0.000000000000000000e+00,8.000000000000000000e+00,0.000000000000000000e+00,-4.000000000000000000e+00,-3.000000000000000000e+00,0.000000000000000000e+00,0.000000000000000000e+00,-4.571533203125000000e-01,2.780151367187500000e-01,6.033325195312500000e-01,5.913085937500000000e-01
-3.000000000000000000e+00,-5.000000000000000000e+00,-1.800000000000000000e+01,-3.500000000000000000e+01,-4.000000000000000000e+00,-1.000000000000000000e+00,-3.000000000000000000e+00,-4.000000000000000000e+00,-4.568481445312500000e-01,2.785034179687500000e-01,6.032104492187500000e-01,5.914306640625000000e-01
0.000000000000000000e+00,0.000000000000000000e+00,-2.000000000000000000e+00,1.500000000000000000e+01,1.000000000000000000e+00,0.000000000000000000e+00,6.000000000000000000e+00,1.000000000000000000e+00,-4.568481445312500000e-01,2.785034179687500000e-01,6.032104492187500000e-01,5.914306640625000000e-01
-3.000000000000000000e+00,-1.000000000000000000e+00,0.000000000000000000e+00,-2.000000000000000000e+00,0.000000000000000000e+00,-3.000000000000000000e+00,-5.000000000000000000e+00,-3.000000000000000000e+00,-4.568481445312500000e-01,2.785034179687500000e-01,6.032104492187500000e-01,5.914306640625000000e-01
0.000000000000000000e+00,0.000000000000000000e+00,3.000000000000000000e+00,2.000000000000000000e+00,1.000000000000000000e+01,3.000000000000000000e+00,-3.000000000000000000e+00,0.000000000000000000e+00,-4.568481445312500000e-01,2.785034179687500000e-01,6.032104492187500000e-01,5.914306640625000000e-01
-1.000000000000000000e+00,0.000000000000000000e+00,6.000000000000000000e+00,-1.000000000000000000e+00,-1.000000000000000000e+01,-1.000000000000000000e+00,6.000000000000000000e+00,0.000000000000000000e+00,-4.565429687500000000e-01,2.783813476562500000e-01,6.035766601562500000e-01,5.913085937500000000e-01
1.000000000000000000e+00,3.000000000000000000e+00,0.000000000000000000e+00,-2.000000000000000000e+00,-2.000000000000000000e+00,-3.000000000000000000e+00,-1.000000000000000000e+00,1.000000000000000000e+00,-4.565429687500000000e-01,2.783813476562500000e-01,6.035766601562500000e-01,5.913085937500000000e-01
-1.000000000000000000e+00,-2.000000000000000000e+00,4.000000000000000000e+00,-2.000000000000000000e+00,2.000000000000000000e+00,1.000000000000000000e+00,-3.000000000000000000e+00,-2.000000000000000000e+00,-4.565429687500000000e-01,2.783813476562500000e-01,6.035766601562500000e-01,5.913085937500000000e-01
-4.000000000000000000e+00,-1.000000000000000000e+00,-9.000000000000000000e+00,-1.000000000000000000e+01,-5.000000000000000000e+00,0.000000000000000000e+00,1.000000000000000000e+00,-1.000000000000000000e+00,-4.565429687500000000e-01,2.783813476562500000e-01,6.035766601562500000e-01,5.913085937500000000e-01
-1.000000000000000000e+00,-1.000000000000000000e+00,-2.000000000000000000e+00,1.200000000000000000e+01,1.000000000000000000e+00,-2.000000000000000000e+00,0.000000000000000000e+00,-1.000000000000000000e+00,-4.566040039062500000e-01,2.776489257812500000e-01,6.041870117187500000e-01,5.910644531250000000e-01
0.000000000000000000e+00,2.000000000000000000e+00,-4.000000000000000000e+00,-7.000000000000000000e+00,-1.000000000000000000e+00,0.000000000000000000e+00,1.000000000000000000e+00,0.000000000000000000e+00,-4.566040039062500000e-01,2.776489257812500000e-01,6.041870117187500000e-01,5.910644531250000000e-01
0.000000000000000000e+00,-1.000000000000000000e+00,1.000000000000000000e+00,4.000000000000000000e+00,-6.000000000000000000e+00,-3.000000000000000000e+00,-3.000000000000000000e+00,0.000000000000000000e+00,-4.566040039062500000e-01,2.776489257812500000e-01,6.041870117187500000e-01,5.910644531250000000e-01
-1.000000000000000000e+00,-1.000000000000000000e+00,-3.000000000000000000e+00,-9.000000000000000000e+00,0.000000000000000000e+00,2.000000000000000000e+00,1.000000000000000000e+00,-2.000000000000000000e+00,-4.566040039062500000e-01,2.776489257812500000e-01,6.041870117187500000e-01,5.910644531250000000e-01
0.000000000000000000e+00,-1.000000000000000000e+00,-6.000000000000000000e+00,2.000000000000000000e+00,-4.000000000000000000e+00,-1.000000000000000000e+00,1.000000000000000000e+00,0.000000000000000000e+00,-4.568481445312500000e-01,2.769775390625000000e-01,6.043701171875000000e-01,5.909423828125000000e-01
-3.000000000000000000e+00,1.000000000000000000e+00,1.000000000000000000e+00,-2.000000000000000000e+00,-7.000000000000000000e+00,-4.000000000000000000e+00,-7.000000000000000000e+00,-3.000000000000000000e+00,-4.568481445312500000e-01,2.769775390625000000e-01,6.043701171875000000e-01,5.909423828125000000e-01
1.000000000000000000e+00,-2.000000000000000000e+00,1.400000000000000000e+01,2.400000000000000000e+01,3.300000000000000000e+01,8.000000000000000000e+00,6.000000000000000000e+00,1.000000000000000000e+00,-4.568481445312500000e-01,2.769775390625000000e-01,6.043701171875000000e-01,5.909423828125000000e-01
-2.000000000000000000e+00,-3.000000000000000000e+00,-6.000000000000000000e+00,-3.000000000000000000e+00,-3.000000000000000000e+00,-2.000000000000000000e+00,-4.000000000000000000e+00,-2.000000000000000000e+00,-4.568481445312500000e-01,2.769775390625000000e-01,6.043701171875000000e-01,5.909423828125000000e-01
0.000000000000000000e+00,0.000000000000000000e+00,0.000000000000000000e+00,8.000000000000000000e+00,-3.000000000000000000e+00,-2.000000000000000000e+00,-1.000000000000000000e+00,-1.000000000000000000e+00,-4.565429687500000000e-01,2.772216796875000000e-01,6.043090820312500000e-01,5.911865234375000000e-01
-2.000000000000000000e+00,1.000000000000000000e+00,2.000000000000000000e+00,-2.100000000000000000e+01,-1.300000000000000000e+01,-4.000000000000000000e+00,-1.000000000000000000e+00,-2.000000000000000000e+00,-4.565429687500000000e-01,2.772216796875000000e-01,6.043090820312500000e-01,5.911865234375000000e-01
0.000000000000000000e+00,0.000000000000000000e+00,-2.600000000000000000e+01,-3.000000000000000000e+00,-4.000000000000000000e+00,-2.000000000000000000e+00,-6.000000000000000000e+00,-1.000000000000000000e+00,-4.565429687500000000e-01,2.772216796875000000e-01,6.043090820312500000e-01,5.911865234375000000e-01
-2.000000000000000000e+00,-3.000000000000000000e+00,0.000000000000000000e+00,-8.000000000000000000e+00,-9.000000000000000000e+00,-3.000000000000000000e+00,-3.000000000000000000e+00,-3.000000000000000000e+00,-4.565429687500000000e-01,2.772216796875000000e-01,6.043090820312500000e-01,5.911865234375000000e-01
0.000000000000000000e+00,-1.000000000000000000e+00,-6.000000000000000000e+00,7.000000000000000000e+00,1.200000000000000000e+01,-1.000000000000000000e+00,-1.000000000000000000e+00,2.000000000000000000e+00,-4.565429687500000000e-01,2.772827148437500000e-01,6.043090820312500000e-01,5.911254882812500000e-01
-3.000000000000000000e+00,-7.000000000000000000e+00,7.000000000000000000e+00,-4.000000000000000000e+00,-5.000000000000000000e+00,-1.000000000000000000e+00,2.000000000000000000e+00,-2.000000000000000000e+00,-4.565429687500000000e-01,2.772827148437500000e-01,6.043090820312500000e-01,5.911254882812500000e-01
-1.000000000000000000e+00,0.000000000000000000e+00,5.000000000000000000e+00,-5.000000000000000000e+00,-2.000000000000000000e+00,-1.000000000000000000e+00,-4.000000000000000000e+00,-2.000000000000000000e+00,-4.565429687500000000e-01,2.772827148437500000e-01,6.043090820312500000e-01,5.911254882812500000e-01
0.000000000000000000e+00,1.000000000000000000e+00,-1.000000000000000000e+00,8.000000000000000000e+00,9.000000000000000000e+00,2.000000000000000000e+00,-5.000000000000000000e+00,-3.000000000000000000e+00,-4.565429687500000000e-01,2.772827148437500000e-01,6.043090820312500000e-01,5.911254882812500000e-01
0.000000000000000000e+00,1.000000000000000000e+00,1.000000000000000000e+00,-1.300000000000000000e+01,-1.700000000000000000e+01,-4.000000000000000000e+00,1.000000000000000000e+00,-1.000000000000000000e+00,-4.569702148437500000e-01,2.766723632812500000e-01,6.046142578125000000e-01,5.907592773437500000e-01
1.000000000000000000e+00,-1.000000000000000000e+00,3.000000000000000000e+00,7.000000000000000000e+00,2.000000000000000000e+00,2.000000000000000000e+00,3.000000000000000000e+00,1.000000000000000000e+00,-4.569702148437500000e-01,2.766723632812500000e-01,6.046142578125000000e-01,5.907592773437500000e-01
-2.000000000000000000e+00,-2.000000000000000000e+00,-1.600000000000000000e+01,-8.000000000000000000e+00,-5.000000000000000000e+00,0.000000000000000000e+00,-1.000000000000000000e+00,-2.000000000000000000e+00,-4.569702148437500000e-01,2.766723632812500000e-01,6.046142578125000000e-01,5.907592773437500000e-01
0.000000000000000000e+00,-1.000000000000000000e+00,-1.000000000000000000e+00,-9.000000000000000000e+00,-4.000000000000000000e+00,-4.000000000000000000e+00,-3.000000000000000000e+00,-1.000000000000000000e+00,-4.569702148437500000e-01,2.766723632812500000e-01,6.046142578125000000e-01,5.907592773437500000e-01
-2.000000000000000000e+00,-2.000000000000000000e+00,7.000000000000000000e+00,5.000000000000000000e+00,-7.000000000000000000e+00,-4.000000000000000000e+00,-3.000000000000000000e+00,-1.000000000000000000e+00,-4.574584960937500000e-01,2.760009765625000000e-01,6.047973632812500000e-01,5.905151367187500000e-01
1.000000000000000000e+00,-3.000000000000000000e+00,-1.100000000000000000e+01,2.500000000000000000e+01,3.200000000000000000e+01,6.000000000000000000e+00,3.000000000000000000e+00,1.000000000000000000e+00,-4.574584960937500000e-01,2.760009765625000000e-01,6.047973632812500000e-01,5.905151367187500000e-01
-2.000000000000000000e+00,0.000000000000000000e+00,2.000000000000000000e+00,-1.500000000000000000e+01,-1.400000000000000000e+01,-7.000000000000000000e+00,-4.000000000000000000e+00,-1.000000000000000000e+00,-4.574584960937500000e-01,2.760009765625000000e-01,6.047973632812500000e-01,5.905151367187500000e-01
-1.000000000000000000e+00,3.000000000000000000e+00,3.000000000000000000e+00,1.300000000000000000e+01,7.000000000000000000e+00,0.000000000000000000e+00,2.000000000000000000e+00,1.000000000000000000e+00,-4.574584960937500000e-01,2.760009765625000000e-01,6.047973632812500000e-01,5.905151367187500000e-01
-1.000000000000000000e+00,-2.000000000000000000e+00,-1.100000000000000000e+01,-1.000000000000000000e+01,-4.000000000000000000e+00,0.000000000000000000e+00,-1.000000000000000000e+00,0.000000000000000000e+00,-4.576416015625000000e-01,2.757568359375000000e-01,6.048583984375000000e-01,5.903930664062500000e-01
0.000000000000000000e+00,0.000000000000000000e+00,1.000000000000000000e+00,0.000000000000000000e+00,-2.000000000000000000e+00,-1.000000000000000000e+00,0.000000000000000000e+00,-2.000000000000000000e+00,-4.576416015625000000e-01,2.757568359375000000e-01,6.048583984375000000e-01,5.903930664062500000e-01
-2.000000000000000000e+00,-1.000000000000000000e+00,7.000000000000000000e+00,-1.900000000000000000e+01,-1.000000000000000000e+01,-1.000000000000000000e+00,-1.000000000000000000e+00,-2.000000000000000000e+00,-4.576416015625000000e-01,2.757568359375000000e-01,6.048583984375000000e-01,5.903930664062500000e-01
-1.000000000000000000e+00,-1.000000000000000000e+00,5.000000000000000000e+00,1.000000000000000000e+00,-4.000000000000000000e+00,-2.000000000000000000e+00,0.000000000000000000e+00,-1.000000000000000000e+00,-4.576416015625000000e-01,2.757568359375000000e-01,6.048583984375000000e-01,5.903930664062500000e-01
2.000000000000000000e+00,0.000000000000000000e+00,-1.000000000000000000e+00,1.600000000000000000e+01,1.000000000000000000e+00,2.000000000000000000e+00,1.000000000000000000e+00,0.000000000000000000e+00,-4.577026367187500000e-01,2.756958007812500000e-01,6.051025390625000000e-01,5.902099609375000000e-01
-3.000000000000000000e+00,-5.000000000000000000e+00,-5.000000000000000000e+00,-8.000000000000000000e+00,1.000000000000000000e+01,2.000000000000000000e+00,-2.000000000000000000e+00,-1.000000000000000000e+00,-4.577026367187500000e-01,2.756958007812500000e-01,6.051025390625000000e-01,5.902099609375000000e-01
