-4.000000000000000000e+00,-4.000000000000000000e+00,-4.000000000000000000e+00,-1.700000000000000000e+01,-1.000000000000000000e+00,2.000000000000000000e+00,-3.000000000000000000e+00,3.000000000000000000e+00,-3.147583007812500000e-01,1.806030273437500000e-01,7.378540039062500000e-01,5.690307617187500000e-01
-8.000000000000000000e+00,-2.300000000000000000e+01,2.000000000000000000e+00,1.600000000000000000e+01,3.000000000000000000e+00,-5.000000000000000000e+00,0.000000000000000000e+00,1.000000000000000000e+00,-3.147583007812500000e-01,1.806030273437500000e-01,7.378540039062500000e-01,5.690307617187500000e-01
1.300000000000000000e+01,1.400000000000000000e+01,1.000000000000000000e+01,-4.000000000000000000e+00,-2.000000000000000000e+00,-4.000000000000000000e+00,-7.000000000000000000e+00,-2.000000000000000000e+00,-3.168334960937500000e-01,1.796875000000000000e-01,7.374267578125000000e-01,5.687255859375000000e-01
7.000000000000000000e+00,1.000000000000000000e+00,-2.000000000000000000e+00,-3.000000000000000000e+00,-3.000000000000000000e+00,2.000000000000000000e+00,3.000000000000000000e+00,-6.000000000000000000e+00,-3.168334960937500000e-01,1.796875000000000000e-01,7.374267578125000000e-01,5.687255859375000000e-01
-2.100000000000000000e+01,-3.400000000000000000e+01,-1.200000000000000000e+01,1.100000000000000000e+01,8.000000000000000000e+00,2.100000000000000000e+01,6.000000000000000000e+00,0.000000000000000000e+00,-3.168334960937500000e-01,1.796875000000000000e-01,7.374267578125000000e-01,5.687255859375000000e-01
6.000000000000000000e+00,-2.000000000000000000e+01,-1.400000000000000000e+01,-9.000000000000000000e+00,-1.200000000000000000e+01,-1.200000000000000000e+01,-1.000000000000000000e+00,-3.000000000000000000e+00,-3.168334960937500000e-01,1.796875000000000000e-01,7.374267578125000000e-01,5.687255859375000000e-01
-7.000000000000000000e+00,4.000000000000000000e+00,8.000000000000000000e+00,-7.000000000000000000e+00,0.000000000000000000e+00,-2.000000000000000000e+00,1.200000000000000000e+01,0.000000000000000000e+00,-3.180541992187500000e-01,1.803588867187500000e-01,7.371826171875000000e-01,5.681762695312500000e-01
2.300000000000000000e+01,-7.000000000000000000e+00,-1.000000000000000000e+00,-2.000000000000000000e+00,-4.000000000000000000e+00,-1.800000000000000000e+01,-2.500000000000000000e+01,0.000000000000000000e+00,-3.180541992187500000e-01,1.803588867187500000e-01,7.371826171875000000e-01,5.681762695312500000e-01
-1.000000000000000000e+01,2.000000000000000000e+00,1.800000000000000000e+01,-2.000000000000000000e+00,1.000000000000000000e+00,1.200000000000000000e+01,1.400000000000000000e+01,-1.000000000000000000e+00,-3.180541992187500000e-01,1.803588867187500000e-01,7.371826171875000000e-01,5.681762695312500000e-01
3.000000000000000000e+00,-1.200000000000000000e+01,4.000000000000000000e+00,1.000000000000000000e+01,3.000000000000000000e+00,-8.000000000000000000e+00,1.400000000000000000e+01,7.000000000000000000e+00,-3.180541992187500000e-01,1.803588867187500000e-01,7.371826171875000000e-01,5.681762695312500000e-01
4.400000000000000000e+01,1.800000000000000000e+01,-2.000000000000000000e+01,-3.000000000000000000e+00,-1.000000000000000000e+00,4.100000000000000000e+01,9.000000000000000000e+00,4.000000000000000000e+00,-3.192138671875000000e-01,1.814575195312500000e-01,7.371215820312500000e-01,5.672607421875000000e-01
-2.400000000000000000e+01,-2.600000000000000000e+01,2.000000000000000000e+00,-1.000000000000000000e+01,-7.000000000000000000e+00,-4.100000000000000000e+01,-2.200000000000000000e+01,-6.000000000000000000e+00,-3.192138671875000000e-01,1.814575195312500000e-01,7.371215820312500000e-01,5.672607421875000000e-01
-2.000000000000000000e+00,-1.600000000000000000e+01,1.000000000000000000e+00,5.000000000000000000e+00,5.000000000000000000e+00,3.700000000000000000e+01,1.800000000000000000e+01,-3.000000000000000000e+00,-3.192138671875000000e-01,1.814575195312500000e-01,7.371215820312500000e-01,5.672607421875000000e-01
7.000000000000000000e+00,1.400000000000000000e+01,-5.000000000000000000e+00,-3.000000000000000000e+00,3.000000000000000000e+00,8.000000000000000000e+00,-2.600000000000000000e+01,-6.000000000000000000e+00,-3.192138671875000000e-01,1.814575195312500000e-01,7.371215820312500000e-01,5.672607421875000000e-01
-2.100000000000000000e+01,-5.000000000000000000e+00,8.000000000000000000e+00,3.000000000000000000e+00,-1.000000000000000000e+00,-1.500000000000000000e+01,-2.000000000000000000e+00,1.000000000000000000e+01,-3.212280273437500000e-01,1.821289062500000000e-01,7.362060546875000000e-01,5.670166015625000000e-01
5.000000000000000000e+00,-6.000000000000000000e+00,-9.000000000000000000e+00,1.000000000000000000e+00,3.000000000000000000e+00,2.400000000000000000e+01,5.300000000000000000e+01,-8.000000000000000000e+00,-3.212280273437500000e-01,1.821289062500000000e-01,7.362060546875000000e-01,5.670166015625000000e-01
9.000000000000000000e+00,1.400000000000000000e+01,5.000000000000000000e+00,3.000000000000000000e+00,2.000000000000000000e+00,-1.700000000000000000e+01,-3.900000000000000000e+01,6.000000000000000000e+00,-3.212280273437500000e-01,1.821289062500000000e-01,7.362060546875000000e-01,5.670166015625000000e-01
-1.600000000000000000e+01,7.000000000000000000e+00,0.000000000000000000e+00,-2.000000000000000000e+00,-3.000000000000000000e+00,-9.000000000000000000e+00,-3.000000000000000000e+00,-4.000000000000000000e+00,-3.212280273437500000e-01,1.821289062500000000e-01,7.362060546875000000e-01,5.670166015625000000e-01
1.000000000000000000e+01,6.000000000000000000e+00,0.000000000000000000e+00,-4.000000000000000000e+00,0.000000000000000000e+00,1.000000000000000000e+00,-8.000000000000000000e+00,-5.000000000000000000e+00,-3.224487304687500000e-01,1.825561523437500000e-01,7.348632812500000000e-01,5.679931640625000000e-01
5.000000000000000000e+00,-1.000000000000000000e+00,3.000000000000000000e+00,-5.000000000000000000e+00,-6.000000000000000000e+00,-7.000000000000000000e+00,-8.000000000000000000e+00,-3.000000000000000000e+00,-3.224487304687500000e-01,1.825561523437500000e-01,7.348632812500000000e-01,5.679931640625000000e-01
-4.700000000000000000e+01,-1.400000000000000000e+01,-2.800000000000000000e+01,-3.000000000000000000e+00,-1.000000000000000000e+00,-9.000000000000000000e+00,7.000000000000000000e+00,-5.000000000000000000e+00,-3.224487304687500000e-01,1.825561523437500000e-01,7.348632812500000000e-01,5.679931640625000000e-01
2.300000000000000000e+01,-2.500000000000000000e+01,8.000000000000000000e+00,-1.500000000000000000e+01,-1.000000000000000000e+01,8.000000000000000000e+00,4.000000000000000000e+00,0.000000000000000000e+00,-3.224487304687500000e-01,1.825561523437500000e-01,7.348632812500000000e-01,5.679931640625000000e-01
-2.100000000000000000e+01,-1.100000000000000000e+01,-7.000000000000000000e+00,2.000000000000000000e+01,2.200000000000000000e+01,-3.000000000000000000e+00,-1.100000000000000000e+01,-5.000000000000000000e+00,-3.212890625000000000e-01,1.856689453125000000e-01,7.342529296875000000e-01,5.684204101562500000e-01
-1.700000000000000000e+01,2.000000000000000000e+00,1.600000000000000000e+01,-1.800000000000000000e+01,-1.300000000000000000e+01,3.000000000000000000e+00,-2.000000000000000000e+00,-1.000000000000000000e+00,-3.212890625000000000e-01,1.856689453125000000e-01,7.342529296875000000e-01,5.684204101562500000e-01
1.100000000000000000e+01,-6.000000000000000000e+00,0.000000000000000000e+00,2.000000000000000000e+00,-3.000000000000000000e+00,-1.300000000000000000e+01,1.000000000000000000e+00,-4.000000000000000000e+00,-3.212890625000000000e-01,1.856689453125000000e-01,7.342529296875000000e-01,5.684204101562500000e-01
1.800000000000000000e+01,-1.600000000000000000e+01,-1.200000000000000000e+01,-2.700000000000000000e+01,-3.000000000000000000e+00,-4.000000000000000000e+00,-6.000000000000000000e+00,5.000000000000000000e+00,-3.212890625000000000e-01,1.856689453125000000e-01,7.342529296875000000e-01,5.684204101562500000e-01
-2.800000000000000000e+01,6.000000000000000000e+00,-1.400000000000000000e+01,1.400000000000000000e+01,2.000000000000000000e+00,-2.000000000000000000e+00,-4.000000000000000000e+00,-8.000000000000000000e+00,-3.189697265625000000e-01,1.892089843750000000e-01,7.349243164062500000e-01,5.676879882812500000e-01
-2.000000000000000000e+01,-1.000000000000000000e+00,1.000000000000000000e+01,-1.300000000000000000e+01,-1.300000000000000000e+01,-1.000000000000000000e+01,-1.000000000000000000e+01,-3.000000000000000000e+00,-3.189697265625000000e-01,1.892089843750000000e-01,7.349243164062500000e-01,5.676879882812500000e-01
1.100000000000000000e+01,1.300000000000000000e+01,2.100000000000000000e+01,7.000000000000000000e+00,4.000000000000000000e+00,1.200000000000000000e+01,7.000000000000000000e+00,-9.000000000000000000e+00,-3.189697265625000000e-01,1.892089843750000000e-01,7.349243164062500000e-01,5.676879882812500000e-01
1.000000000000000000e+01,4.000000000000000000e+00,5.000000000000000000e+00,-1.100000000000000000e+01,-1.200000000000000000e+01,-1.400000000000000000e+01,-8.000000000000000000e+00,-6.000000000000000000e+00,-3.189697265625000000e-01,1.892089843750000000e-01,7.349243164062500000e-01,5.676879882812500000e-01
-1.800000000000000000e+01,-2.100000000000000000e+01,-3.000000000000000000e+00,-7.000000000000000000e+00,-1.400000000000000000e+01,-2.700000000000000000e+01,-9.000000000000000000e+00,-4.000000000000000000e+00,-3.186035156250000000e-01,1.898193359375000000e-01,7.350463867187500000e-01,5.675048828125000000e-01
-2.000000000000000000e+00,-5.000000000000000000e+00,-1.500000000000000000e+01,7.000000000000000000e+00,1.200000000000000000e+01,2.200000000000000000e+01,-7.000000000000000000e+00,-3.000000000000000000e+00,-3.186035156250000000e-01,1.898193359375000000e-01,7.350463867187500000e-01,5.675048828125000000e-01
1.100000000000000000e+01,6.000000000000000000e+00,-4.000000000000000000e+00,-1.900000000000000000e+01,-1.900000000000000000e+01,-2.600000000000000000e+01,-1.000000000000000000e+01,1.000000000000000000e+00,-3.186035156250000000e-01,1.898193359375000000e-01,7.350463867187500000e-01,5.675048828125000000e-01
-4.000000000000000000e+00,1.000000000000000000e+01,0.000000000000000000e+00,1.000000000000000000e+01,5.000000000000000000e+00,-1.100000000000000000e+01,3.000000000000000000e+00,2.000000000000000000e+00,-3.186035156250000000e-01,1.898193359375000000e-01,7.350463867187500000e-01,5.675048828125000000e-01
1.800000000000000000e+01,3.000000000000000000e+00,-2.000000000000000000e+00,-1.000000000000000000e+01,4.000000000000000000e+00,2.500000000000000000e+01,6.000000000000000000e+00,3.000000000000000000e+00,-3.201293945312500000e-01,1.854858398437500000e-01,7.352905273437500000e-01,5.678100585937500000e-01
-4.000000000000000000e+00,2.000000000000000000e+00,7.000000000000000000e+00,2.900000000000000000e+01,-1.000000000000000000e+00,-5.200000000000000000e+01,-1.400000000000000000e+01,-4.000000000000000000e+00,-3.201293945312500000e-01,1.854858398437500000e-01,7.352905273437500000e-01,5.678100585937500000e-01
2.000000000000000000e+00,-5.000000000000000000e+00,-7.000000000000000000e+00,-1.000000000000000000e+01,5.000000000000000000e+00,6.000000000000000000e+01,3.200000000000000000e+01,8.000000000000000000e+00,-3.201293945312500000e-01,1.854858398437500000e-01,7.352905273437500000e-01,5.678100585937500000e-01
-3.000000000000000000e+00,-9.000000000000000000e+00,-2.000000000000000000e+00,-5.000000000000000000e+00,2.000000000000000000e+00,6.000000000000000000e+00,0.000000000000000000e+00,-3.000000000000000000e+00,-3.201293945312500000e-01,1.854858398437500000e-01,7.352905273437500000e-01,5.678100585937500000e-01
2.100000000000000000e+01,2.000000000000000000e+00,1.000000000000000000e+01,-9.000000000000000000e+00,-5.000000000000000000e+00,-2.400000000000000000e+01,-9.000000000000000000e+00,4.000000000000000000e+00,-3.218383789062500000e-01,1.796264648437500000e-01,7.351074218750000000e-01,5.689697265625000000e-01
3.000000000000000000e+01,3.000000000000000000e+00,-3.200000000000000000e+01,-3.000000000000000000e+00,-8.000000000000000000e+00,-1.000000000000000000e+01,-3.000000000000000000e+00,2.000000000000000000e+00,-3.218383789062500000e-01,1.796264648437500000e-01,7.351074218750000000e-01,5.689697265625000000e-01
-1.000000000000000000e+00,0.000000000000000000e+00,8.000000000000000000e+00,4.000000000000000000e+00,3.000000000000000000e+00,-6.000000000000000000e+00,1.600000000000000000e+01,6.000000000000000000e+00,-3.218383789062500000e-01,1.796264648437500000e-01,7.351074218750000000e-01,5.689697265625000000e-01
-1.700000000000000000e+01,-2.700000000000000000e+01,-1.300000000000000000e+01,1.000000000000000000e+01,9.000000000000000000e+00,3.000000000000000000e+01,6.000000000000000000e+00,-4.000000000000000000e+00,-3.218383789062500000e-01,1.796264648437500000e-01,7.351074218750000000e-01,5.689697265625000000e-01
7.000000000000000000e+00,4.100000000000000000e+01,2.000000000000000000e+01,7.000000000000000000e+00,-7.000000000000000000e+00,-1.200000000000000000e+01,0.000000000000000000e+00,-1.000000000000000000e+00,-3.226928710937500000e-01,1.779174804687500000e-01,7.340087890625000000e-01,5.704345703125000000e-01
-1.300000000000000000e+01,-2.000000000000000000e+01,-2.700000000000000000e+01,-1.400000000000000000e+01,1.000000000000000000e+00,1.200000000000000000e+01,6.000000000000000000e+00,-1.000000000000000000e+00,-3.226928710937500000e-01,1.779174804687500000e-01,7.340087890625000000e-01,5.704345703125000000e-01
3.000000000000000000e+00,1.200000000000000000e+01,1.300000000000000000e+01,-1.000000000000000000e+00,-5.000000000000000000e+00,-1.400000000000000000e+01,-6.000000000000000000e+00,0.000000000000000000e+00,-3.226928710937500000e-01,1.779174804687500000e-01,7.340087890625000000e-01,5.704345703125000000e-01
3.000000000000000000e+00,1.800000000000000000e+01,-5.000000000000000000e+00,7.000000000000000000e+00,0.000000000000000000e+00,-9.000000000000000000e+00,-9.000000000000000000e+00,-4.000000000000000000e+00,-3.226928710937500000e-01,1.779174804687500000e-01,7.340087890625000000e-01,5.704345703125000000e-01
-9.000000000000000000e+00,-2.600000000000000000e+01,-1.500000000000000000e+01,-4.000000000000000000e+00,-6.000000000000000000e+00,-3.000000000000000000e+00,-6.000000000000000000e+00,-3.000000000000000000e+00,-3.225097656250000000e-01,1.784667968750000000e-01,7.322998046875000000e-01,5.725097656250000000e-01
-1.000000000000000000e+00,-5.000000000000000000e+00,1.000000000000000000e+01,-6.000000000000000000e+00,5.000000000000000000e+00,2.200000000000000000e+01,8.000000000000000000e+00,0.000000000000000000e+00,-3.225097656250000000e-01,1.784667968750000000e-01,7.322998046875000000e-01,5.725097656250000000e-01
-3.000000000000000000e+00,2.600000000000000000e+01,1.500000000000000000e+01,3.000000000000000000e+00,-3.000000000000000000e+00,-2.200000000000000000e+01,-1.300000000000000000e+01,-4.000000000000000000e+00,-3.225097656250000000e-01,1.784667968750000000e-01,7.322998046875000000e-01,5.725097656250000000e-01
-1.300000000000000000e+01,-1.900000000000000000e+01,-4.000000000000000000e+00,-6.000000000000000000e+00,-6.000000000000000000e+00,-1.500000000000000000e+01,-7.000000000000000000e+00,-1.000000000000000000e+00,-3.225097656250000000e-01,1.784667968750000000e-01,7.322998046875000000e-01,5.725097656250000000e-01
-8.000000000000000000e+00,1.800000000000000000e+01,1.400000000000000000e+01,1.000000000000000000e+01,0.000000000000000000e+00,8.000000000000000000e+00,-1.000000000000000000e+00,-8.000000000000000000e+00,-3.225708007812500000e-01,1.775512695312500000e-01,7.312622070312500000e-01,5.741577148437500000e-01
-2.100000000000000000e+01,8.000000000000000000e+00,2.100000000000000000e+01,5.000000000000000000e+00,4.000000000000000000e+00,-6.000000000000000000e+00,-2.000000000000000000e+00,0.000000000000000000e+00,-3.225708007812500000e-01,1.775512695312500000e-01,7.312622070312500000e-01,5.741577148437500000e-01
1.500000000000000000e+01,-1.400000000000000000e+01,-9.000000000000000000e+00,-4.000000000000000000e+00,-5.000000000000000000e+00,-1.600000000000000000e+01,-7.000000000000000000e+00,0.000000000000000000e+00,-3.225708007812500000e-01,1.775512695312500000e-01,7.312622070312500000e-01,5.741577148437500000e-01
-4.000000000000000000e+00,8.000000000000000000e+00,2.100000000000000000e+01,2.000000000000000000e+00,-2.000000000000000000e+00,-2.300000000000000000e+01,1.000000000000000000e+00,-3.000000000000000000e+00,-3.225708007812500000e-01,1.775512695312500000e-01,7.312622070312500000e-01,5.741577148437500000e-01
6.000000000000000000e+00,0.000000000000000000e+00,-1.800000000000000000e+01,-3.000000000000000000e+00,-3.000000000000000000e+00,1.700000000000000000e+01,-1.100000000000000000e+01,-1.000000000000000000e+00,-3.240966796875000000e-01,1.757812500000000000e-01,7.305908203125000000e-01,5.745849609375000000e-01
-3.000000000000000000e+00,-5.000000000000000000e+00,-1.000000000000000000e+01,-7.000000000000000000e+00,-2.000000000000000000e+00,8.000000000000000000e+00,8.000000000000000000e+00,1.000000000000000000e+00,-3.240966796875000000e-01,1.757812500000000000e-01,7.305908203125000000e-01,5.745849609375000000e-01
-5.000000000000000000e+01,-1.700000000000000000e+01,4.000000000000000000e+00,8.000000000000000000e+00,1.000000000000000000e+00,-1.500000000000000000e+01,-1.300000000000000000e+01,-9.000000000000000000e+00,-3.240966796875000000e-01,1.757812500000000000e-01,7.305908203125000000e-01,5.745849609375000000e-01
2.000000000000000000e+01,1.700000000000000000e+01,-1.100000000000000000e+01,9.000000000000000000e+00,1.000000000000000000e+00,4.000000000000000000e+00,-6.000000000000000000e+00,2.000000000000000000e+00,-3.240966796875000000e-01,1.757812500000000000e-01,7.305908203125000000e-01,5.745849609375000000e-01
1.100000000000000000e+01,-1.000000000000000000e+01,1.400000000000000000e+01,2.000000000000000000e+00,-2.000000000000000000e+00,-1.000000000000000000e+01,3.000000000000000000e+00,2.000000000000000000e+00,-3.262329101562500000e-01,1.749267578125000000e-01,7.295532226562500000e-01,5.750122070312500000e-01
1.900000000000000000e+01,-7.000000000000000000e+00,-1.000000000000000000e+00,-1.000000000000000000e+01,-2.000000000000000000e+00,5.000000000000000000e+00,5.000000000000000000e+00,4.000000000000000000e+00,-3.262329101562500000e-01,1.749267578125000000e-01,7.295532226562500000e-01,5.750122070312500000e-01
-2.200000000000000000e+01,1.600000000000000000e+01,-1.300000000000000000e+01,-5.000000000000000000e+00,-2.000000000000000000e+00,-7.000000000000000000e+00,-1.000000000000000000e+01,-3.000000000000000000e+00,-3.262329101562500000e-01,1.749267578125000000e-01,7.295532226562500000e-01,5.750122070312500000e-01
9.000000000000000000e+00,4.000000000000000000e+00,-3.000000000000000000e+00,0.000000000000000000e+00,1.000000000000000000e+00,7.000000000000000000e+00,1.100000000000000000e+01,4.000000000000000000e+00,-3.262329101562500000e-01,1.749267578125000000e-01,7.295532226562500000e-01,5.750122070312500000e-01
-1.800000000000000000e+01,-3.000000000000000000e+01,-1.000000000000000000e+01,1.000000000000000000e+00,0.000000000000000000e+00,7.000000000000000000e+00,7.000000000000000000e+00,-3.000000000000000000e+00,-3.281860351562500000e-01,1.751708984375000000e-01,7.282714843750000000e-01,5.754394531250000000e-01
-1.000000000000000000e+00,1.100000000000000000e+01,-6.000000000000000000e+00,-1.000000000000000000e+00,1.000000000000000000e+00,2.000000000000000000e+00,-1.500000000000000000e+01,-3.000000000000000000e+00,-3.281860351562500000e-01,1.751708984375000000e-01,7.282714843750000000e-01,5.754394531250000000e-01
-1.400000000000000000e+01,-8.000000000000000000e+00,-2.000000000000000000e+00,5.000000000000000000e+00,9.000000000000000000e+00,9.000000000000000000e+00,1.000000000000000000e+01,-2.000000000000000000e+00,-3.281860351562500000e-01,1.751708984375000000e-01,7.282714843750000000e-01,5.754394531250000000e-01
2.300000000000000000e+01,-1.100000000000000000e+01,1.000000000000000000e+00,0.000000000000000000e+00,-1.000000000000000000e+00,3.000000000000000000e+00,4.000000000000000000e+00,1.400000000000000000e+01,-3.281860351562500000e-01,1.751708984375000000e-01,7.282714843750000000e-01,5.754394531250000000e-01
8.000000000000000000e+00,2.600000000000000000e+01,4.000000000000000000e+00,-1.000000000000000000e+00,-1.000000000000000000e+00,2.000000000000000000e+00,9.000000000000000000e+00,-1.000000000000000000e+00,-3.294677734375000000e-01,1.772460937500000000e-01,7.274169921875000000e-01,5.751953125000000000e-01
1.000000000000000000e+00,-3.000000000000000000e+00,7.000000000000000000e+00,-1.000000000000000000e+00,-5.000000000000000000e+00,-7.000000000000000000e+00,-8.000000000000000000e+00,-2.000000000000000000e+00,-3.294677734375000000e-01,1.772460937500000000e-01,7.274169921875000000e-01,5.751953125000000000e-01
3.000000000000000000e+00,-6.000000000000000000e+00,4.000000000000000000e+00,1.100000000000000000e+01,4.000000000000000000e+00,1.200000000000000000e+01,-3.000000000000000000e+00,-8.000000000000000000e+00,-3.294677734375000000e-01,1.772460937500000000e-01,7.274169921875000000e-01,5.751953125000000000e-01
-1.900000000000000000e+01,-1.200000000000000000e+01,-4.000000000000000000e+00,-2.100000000000000000e+01,-8.000000000000000000e+00,-3.000000000000000000e+00,-8.000000000000000000e+00,-5.000000000000000000e+00,-3.294677734375000000e-01,1.772460937500000000e-01,7.274169921875000000e-01,5.751953125000000000e-01
4.000000000000000000e+00,-1.200000000000000000e+01,-1.300000000000000000e+01,4.000000000000000000e+00,-3.000000000000000000e+00,-1.200000000000000000e+01,-4.000000000000000000e+00,3.000000000000000000e+00,-3.318481445312500000e-01,1.773071289062500000e-01,7.266845703125000000e-01,5.747070312500000000e-01
-7.000000000000000000e+00,4.000000000000000000e+00,2.000000000000000000e+00,1.000000000000000000e+01,6.000000000000000000e+00,2.000000000000000000e+01,4.000000000000000000e+00,-1.000000000000000000e+00,-3.318481445312500000e-01,1.773071289062500000e-01,7.266845703125000000e-01,5.747070312500000000e-01
1.200000000000000000e+01,-2.000000000000000000e+00,1.600000000000000000e+01,-1.600000000000000000e+01,-9.000000000000000000e+00,-1.900000000000000000e+01,-1.600000000000000000e+01,-2.000000000000000000e+00,-3.318481445312500000e-01,1.773071289062500000e-01,7.266845703125000000e-01,5.747070312500000000e-01
5.000000000000000000e+00,1.000000000000000000e+01,0.000000000000000000e+00,1.300000000000000000e+01,8.000000000000000000e+00,3.100000000000000000e+01,2.500000000000000000e+01,3.000000000000000000e+00,-3.318481445312500000e-01,1.773071289062500000e-01,7.266845703125000000e-01,5.747070312500000000e-01
-1.200000000000000000e+01,-3.000000000000000000e+00,-1.600000000000000000e+01,-1.400000000000000000e+01,-6.000000000000000000e+00,-2.000000000000000000e+01,-3.100000000000000000e+01,-5.000000000000000000e+00,-3.344116210937500000e-01,1.752929687500000000e-01,7.262573242187500000e-01,5.744018554687500000e-01
-6.000000000000000000e+00,4.000000000000000000e+00,1.100000000000000000e+01,9.000000000000000000e+00,7.000000000000000000e+00,2.600000000000000000e+01,2.100000000000000000e+01,-3.000000000000000000e+00,-3.344116210937500000e-01,1.752929687500000000e-01,7.262573242187500000e-01,5.744018554687500000e-01
1.100000000000000000e+01,-3.200000000000000000e+01,4.000000000000000000e+00,-9.000000000000000000e+00,-6.000000000000000000e+00,-1.800000000000000000e+01,2.000000000000000000e+00,3.000000000000000000e+00,-3.344116210937500000e-01,1.752929687500000000e-01,7.262573242187500000e-01,5.744018554687500000e-01
1.000000000000000000e+00,2.100000000000000000e+01,-8.000000000000000000e+00,2.000000000000000000e+00,2.000000000000000000e+00,4.000000000000000000e+00,-1.300000000000000000e+01,-5.000000000000000000e+00,-3.344116210937500000e-01,1.752929687500000000e-01,7.262573242187500000e-01,5.744018554687500000e-01
-2.000000000000000000e+00,-6.000000000000000000e+00,1.900000000000000000e+01,-5.000000000000000000e+00,-7.000000000000000000e+00,-1.100000000000000000e+01,3.000000000000000000e+00,4.000000000000000000e+00,-3.360595703125000000e-01,1.737670898437500000e-01,7.254028320312500000e-01,5.749511718750000000e-01
-5.800000000000000000e+01,4.000000000000000000e+00,-5.000000000000000000e+00,-4.000000000000000000e+00,-2.000000000000000000e+00,-1.200000000000000000e+01,-1.800000000000000000e+01,-9.000000000000000000e+00,-3.360595703125000000e-01,1.737670898437500000e-01,7.254028320312500000e-01,5.749511718750000000e-01
1.000000000000000000e+01,-2.600000000000000000e+01,-1.500000000000000000e+01,-2.000000000000000000e+00,-1.000000000000000000e+00,1.300000000000000000e+01,-5.000000000000000000e+00,-1.000000000000000000e+00,-3.360595703125000000e-01,1.737670898437500000e-01,7.254028320312500000e-01,5.749511718750000000e-01
-8.000000000000000000e+00,5.000000000000000000e+00,-7.000000000000000000e+00,-3.000000000000000000e+00,-3.000000000000000000e+00,-1.000000000000000000e+01,-1.000000000000000000e+00,-6.000000000000000000e+00,-3.360595703125000000e-01,1.737670898437500000e-01,7.254028320312500000e-01,5.749511718750000000e-01
2.000000000000000000e+01,9.000000000000000000e+00,-1.000000000000000000e+00,3.000000000000000000e+00,4.000000000000000000e+00,1.000000000000000000e+01,1.300000000000000000e+01,2.000000000000000000e+00,-3.368530273437500000e-01,1.729125976562500000e-01,7.244262695312500000e-01,5.760498046875000000e-01
2.900000000000000000e+01,-1.700000000000000000e+01,1.000000000000000000e+00,-6.000000000000000000e+00,-5.000000000000000000e+00,-3.000000000000000000e+00,-3.000000000000000000e+00,1.200000000000000000e+01,-3.368530273437500000e-01,1.729125976562500000e-01,7.244262695312500000e-01,5.760498046875000000e-01
-3.900000000000000000e+01,2.000000000000000000e+01,-1.000000000000000000e+00,4.000000000000000000e+00,5.000000000000000000e+00,-3.000000000000000000e+00,-3.000000000000000000e+00,-1.200000000000000000e+01,-3.368530273437500000e-01,1.729125976562500000e-01,7.244262695312500000e-01,5.760498046875000000e-01
0.000000000000000000e+00,-1.400000000000000000e+01,7.000000000000000000e+00,7.000000000000000000e+00,3.000000000000000000e+00,-4.000000000000000000e+00,0.000000000000000000e+00,0.000000000000000000e+00,-3.368530273437500000e-01,1.729125976562500000e-01,7.244262695312500000e-01,5.760498046875000000e-01
7.000000000000000000e+00,2.600000000000000000e+01,2.000000000000000000e+00,4.000000000000000000e+00,8.000000000000000000e+00,5.000000000000000000e+00,3.000000000000000000e+00,-1.000000000000000000e+00,-3.368530273437500000e-01,1.721801757812500000e-01,7.238769531250000000e-01,5.768432617187500000e-01
2.000000000000000000e+00,-2.200000000000000000e+01,-8.000000000000000000e+00,-1.600000000000000000e+01,-1.000000000000000000e+00,2.000000000000000000e+00,4.000000000000000000e+00,-1.000000000000000000e+00,-3.368530273437500000e-01,1.721801757812500000e-01,7.238769531250000000e-01,5.768432617187500000e-01
3.000000000000000000e+00,2.100000000000000000e+01,-4.000000000000000000e+00,1.700000000000000000e+01,-8.000000000000000000e+00,-5.000000000000000000e+00,-5.000000000000000000e+00,2.000000000000000000e+00,-3.368530273437500000e-01,1.721801757812500000e-01,7.238769531250000000e-01,5.768432617187500000e-01
-6.000000000000000000e+00,2.000000000000000000e+00,7.000000000000000000e+00,1.000000000000000000e+00,7.000000000000000000e+00,0.000000000000000000e+00,1.000000000000000000e+00,-1.000000000000000000e+00,-3.368530273437500000e-01,1.721801757812500000e-01,7.238769531250000000e-01,5.768432617187500000e-01
-1.100000000000000000e+01,-7.000000000000000000e+00,0.000000000000000000e+00,-1.200000000000000000e+01,-1.100000000000000000e+01,1.000000000000000000e+00,-6.000000000000000000e+00,-2.000000000000000000e+00,-3.357543945312500000e-01,1.722412109375000000e-01,7.244873046875000000e-01,5.767822265625000000e-01
9.000000000000000000e+00,-5.000000000000000000e+00,-1.000000000000000000e+00,0.000000000000000000e+00,-2.000000000000000000e+00,-5.000000000000000000e+00,3.000000000000000000e+00,-2.000000000000000000e+00,-3.357543945312500000e-01,1.722412109375000000e-01,7.244873046875000000e-01,5.767822265625000000e-01
1.500000000000000000e+01,1.400000000000000000e+01,-1.000000000000000000e+00,4.000000000000000000e+00,-1.000000000000000000e+00,-2.000000000000000000e+00,1.000000000000000000e+00,1.000000000000000000e+00,-3.357543945312500000e-01,1.722412109375000000e-01,7.244873046875000000e-01,5.767822265625000000e-01
-1.200000000000000000e+01,-1.400000000000000000e+01,-1.300000000000000000e+01,-2.300000000000000000e+01,-1.100000000000000000e+01,-8.000000000000000000e+00,-7.000000000000000000e+00,0.000000000000000000e+00,-3.357543945312500000e-01,1.722412109375000000e-01,7.244873046875000000e-01,5.767822265625000000e-01
-3.000000000000000000e+00,-5.000000000000000000e+00,-2.200000000000000000e+01,8.000000000000000000e+00,-2.000000000000000000e+00,6.000000000000000000e+00,1.000000000000000000e+00,0.000000000000000000e+00,-3.355102539062500000e-01,1.703491210937500000e-01,7.258911132812500000e-01,5.756835937500000000e-01
1.000000000000000000e+00,-2.000000000000000000e+00,-1.900000000000000000e+01,-1.300000000000000000e+01,-4.000000000000000000e+00,-1.000000000000000000e+00,1.000000000000000000e+00,7.000000000000000000e+00,-3.355102539062500000e-01,1.703491210937500000e-01,7.258911132812500000e-01,5.756835937500000000e-01
5.000000000000000000e+00,-3.000000000000000000e+00,1.700000000000000000e+01,2.000000000000000000e+00,0.000000000000000000e+00,-3.000000000000000000e+00,-8.000000000000000000e+00,-1.400000000000000000e+01,-3.355102539062500000e-01,1.703491210937500000e-01,7.258911132812500000e-01,5.756835937500000000e-01
0.000000000000000000e+00,-9.000000000000000000e+00,-1.500000000000000000e+01,-1.000000000000000000e+01,-6.000000000000000000e+00,-2.000000000000000000e+00,4.000000000000000000e+00,0.000000000000000000e+00,-3.355102539062500000e-01,1.703491210937500000e-01,7.258911132812500000e-01,5.756835937500000000e-01
-1.500000000000000000e+01,-1.200000000000000000e+01,-1.800000000000000000e+01,9.000000000000000000e+00,2.000000000000000000e+00,4.000000000000000000e+00,-1.000000000000000000e+01,-9.000000000000000000e+00,-3.376464843750000000e-01,1.648559570312500000e-01,7.279052734375000000e-01,5.735473632812500000e-01
3.000000000000000000e+00,-4.000000000000000000e+00,1.700000000000000000e+01,-2.400000000000000000e+01,-4.000000000000000000e+00,-2.600000000000000000e+01,-4.400000000000000000e+01,1.000000000000000000e+00,-3.376464843750000000e-01,1.648559570312500000e-01,7.279052734375000000e-01,5.735473632812500000e-01
-5.000000000000000000e+00,1.000000000000000000e+01,1.700000000000000000e+01,1.800000000000000000e+01,3.000000000000000000e+00,2.600000000000000000e+01,4.300000000000000000e+01,0.000000000000000000e+00,-3.376464843750000000e-01,1.648559570312500000e-01,7.279052734375000000e-01,5.735473632812500000e-01
1.500000000000000000e+01,5.000000000000000000e+00,-2.000000000000000000e+00,0.000000000000000000e+00,1.000000000000000000e+00,1.000000000000000000e+00,-1.000000000000000000e+01,-7.000000000000000000e+00,-3.376464843750000000e-01,1.648559570312500000e-01,7.279052734375000000e-01,5.735473632812500000e-01
-6.000000000000000000e+00,1.300000000000000000e+01,1.200000000000000000e+01,-2.000000000000000000e+00,-3.000000000000000000e+00,-5.000000000000000000e+00,7.000000000000000000e+00,0.000000000000000000e+00,-3.386230468750000000e-01,1.603393554687500000e-01,7.291870117187500000e-01,5.725708007812500000e-01
-6.000000000000000000e+00,-4.600000000000000000e+01,-2.000000000000000000e+01,2.000000000000000000e+00,6.000000000000000000e+00,1.500000000000000000e+01,-4.000000000000000000e+00,-5.000000000000000000e+00,-3.386230468750000000e-01,1.603393554687500000e-01,7.291870117187500000e-01,5.725708007812500000e-01
1.500000000000000000e+01,2.400000000000000000e+01,1.100000000000000000e+01,-1.100000000000000000e+01,0.000000000000000000e+00,-1.100000000000000000e+01,-6.000000000000000000e+00,1.200000000000000000e+01,-3.386230468750000000e-01,1.603393554687500000e-01,7.291870117187500000e-01,5.725708007812500000e-01
-1.000000000000000000e+01,-1.600000000000000000e+01,7.000000000000000000e+00,-3.000000000000000000e+00,-5.000000000000000000e+00,-7.000000000000000000e+00,-7.000000000000000000e+00,-3.000000000000000000e+00,-3.386230468750000000e-01,1.603393554687500000e-01,7.291870117187500000e-01,5.725708007812500000e-01
-8.000000000000000000e+00,1.100000000000000000e+01,3.000000000000000000e+00,0.000000000000000000e+00,4.000000000000000000e+00,6.000000000000000000e+00,1.300000000000000000e+01,3.000000000000000000e+00,-3.382568359375000000e-01,1.571655273437500000e-01,7.294921875000000000e-01,5.733032226562500000e-01
1.000000000000000000e+00,-1.100000000000000000e+01,0.000000000000000000e+00,1.200000000000000000e+01,-6.000000000000000000e+00,-9.000000000000000000e+00,-4.000000000000000000e+00,-5.000000000000000000e+00,-3.382568359375000000e-01,1.571655273437500000e-01,7.294921875000000000e-01,5.733032226562500000e-01
2.000000000000000000e+00,-3.000000000000000000e+00,-6.000000000000000000e+00,-1.500000000000000000e+01,-1.000000000000000000e+00,-1.000000000000000000e+00,-2.000000000000000000e+00,2.000000000000000000e+00,-3.382568359375000000e-01,1.571655273437500000e-01,7.294921875000000000e-01,5.733032226562500000e-01
-3.000000000000000000e+00,4.000000000000000000e+00,-6.000000000000000000e+00,1.000000000000000000e+01,2.000000000000000000e+00,4.000000000000000000e+00,4.000000000000000000e+00,3.000000000000000000e+00,-3.382568359375000000e-01,1.571655273437500000e-01,7.294921875000000000e-01,5.733032226562500000e-01
0.000000000000000000e+00,-1.700000000000000000e+01,-6.000000000000000000e+00,-2.000000000000000000e+00,-3.000000000000000000e+00,-5.000000000000000000e+00,-9.000000000000000000e+00,0.000000000000000000e+00,-3.361206054687500000e-01,1.567382812500000000e-01,7.296142578125000000e-01,5.744628906250000000e-01
3.000000000000000000e+00,1.800000000000000000e+01,1.100000000000000000e+01,1.200000000000000000e+01,2.000000000000000000e+00,3.000000000000000000e+00,1.400000000000000000e+01,-4.000000000000000000e+00,-3.361206054687500000e-01,1.567382812500000000e-01,7.296142578125000000e-01,5.744628906250000000e-01
-1.000000000000000000e+00,-1.500000000000000000e+01,-1.900000000000000000e+01,-3.500000000000000000e+01,-8.000000000000000000e+00,-5.000000000000000000e+00,-1.100000000000000000e+01,-3.000000000000000000e+00,-3.361206054687500000e-01,1.567382812500000000e-01,7.296142578125000000e-01,5.744628906250000000e-01
-7.000000000000000000e+00,2.000000000000000000e+00,3.000000000000000000e+00,1.800000000000000000e+01,2.000000000000000000e+00,-3.000000000000000000e+00,-1.000000000000000000e+00,-8.000000000000000000e+00,-3.361206054687500000e-01,1.567382812500000000e-01,7.296142578125000000e-01,5.744628906250000000e-01
3.000000000000000000e+00,-2.000000000000000000e+00,1.300000000000000000e+01,0.000000000000000000e+00,0.000000000000000000e+00,1.000000000000000000e+00,-4.000000000000000000e+00,3.000000000000000000e+00,-3.326416015625000000e-01,1.604614257812500000e-01,7.308959960937500000e-01,5.739135742187500000e-01
3.000000000000000000e+00,1.400000000000000000e+01,0.000000000000000000e+00,0.000000000000000000e+00,-3.000000000000000000e+00,0.000000000000000000e+00,4.000000000000000000e+00,-5.000000000000000000e+00,-3.326416015625000000e-01,1.604614257812500000e-01,7.308959960937500000e-01,5.739135742187500000e-01
0.000000000000000000e+00,-1.700000000000000000e+01,-1.800000000000000000e+01,-2.000000000000000000e+00,0.000000000000000000e+00,-1.000000000000000000e+00,-1.000000000000000000e+00,-1.000000000000000000e+00,-3.326416015625000000e-01,1.604614257812500000e-01,7.308959960937500000e-01,5.739135742187500000e-01
-2.000000000000000000e+00,1.400000000000000000e+01,8.000000000000000000e+00,-7.000000000000000000e+00,-3.000000000000000000e+00,-4.000000000000000000e+00,-4.000000000000000000e+00,7.000000000000000000e+00,-3.326416015625000000e-01,1.604614257812500000e-01,7.308959960937500000e-01,5.739135742187500000e-01
-3.200000000000000000e+01,-1.000000000000000000e+01,-2.000000000000000000e+00,-2.000000000000000000e+01,-8.000000000000000000e+00,0.000000000000000000e+00,-3.000000000000000000e+00,-1.000000000000000000e+01,-3.301391601562500000e-01,1.629028320312500000e-01,7.324829101562500000e-01,5.726318359375000000e-01
2.800000000000000000e+01,1.100000000000000000e+01,-1.000000000000000000e+01,1.100000000000000000e+01,5.000000000000000000e+00,2.000000000000000000e+00,1.100000000000000000e+01,3.000000000000000000e+00,-3.301391601562500000e-01,1.629028320312500000e-01,7.324829101562500000e-01,5.726318359375000000e-01
9.000000000000000000e+00,2.000000000000000000e+00,1.700000000000000000e+01,1.100000000000000000e+01,-3.000000000000000000e+00,-8.000000000000000000e+00,-6.000000000000000000e+00,1.000000000000000000e+01,-3.301391601562500000e-01,1.629028320312500000e-01,7.324829101562500000e-01,5.726318359375000000e-01
-1.700000000000000000e+01,-1.400000000000000000e+01,-5.000000000000000000e+01,-3.000000000000000000e+01,-1.100000000000000000e+01,-2.000000000000000000e+00,-6.000000000000000000e+00,-9.000000000000000000e+00,-3.301391601562500000e-01,1.629028320312500000e-01,7.324829101562500000e-01,5.726318359375000000e-01
-5.000000000000000000e+00,-6.000000000000000000e+00,2.100000000000000000e+01,7.000000000000000000e+00,3.000000000000000000e+00,9.000000000000000000e+00,0.000000000000000000e+00,-7.000000000000000000e+00,-3.281250000000000000e-01,1.633911132812500000e-01,7.346801757812500000e-01,5.708007812500000000e-01
-3.200000000000000000e+01,1.400000000000000000e+01,-2.800000000000000000e+01,4.000000000000000000e+00,1.000000000000000000e+00,-3.000000000000000000e+00,3.000000000000000000e+00,-7.000000000000000000e+00,-3.281250000000000000e-01,1.633911132812500000e-01,7.346801757812500000e-01,5.708007812500000000e-01
1.800000000000000000e+01,-5.000000000000000000e+00,0.000000000000000000e+00,-5.000000000000000000e+00,2.000000000000000000e+00,-1.000000000000000000e+00,-1.000000000000000000e+00,2.000000000000000000e+00,-3.281250000000000000e-01,1.633911132812500000e-01,7.346801757812500000e-01,5.708007812500000000e-01
-1.000000000000000000e+00,-5.000000000000000000e+00,1.700000000000000000e+01,2.000000000000000000e+01,6.000000000000000000e+00,0.000000000000000000e+00,3.000000000000000000e+00,1.000000000000000000e+00,-3.281250000000000000e-01,1.633911132812500000e-01,7.346801757812500000e-01,5.708007812500000000e-01
-3.000000000000000000e+00,-3.000000000000000000e+00,4.000000000000000000e+00,-9.000000000000000000e+00,-3.000000000000000000e+00,-2.000000000000000000e+00,-5.000000000000000000e+00,-7.000000000000000000e+00,-3.282470703125000000e-01,1.630859375000000000e-01,7.366943359375000000e-01,5.682373046875000000e-01
-2.000000000000000000e+00,-6.000000000000000000e+00,-1.500000000000000000e+01,-1.800000000000000000e+01,-6.000000000000000000e+00,-1.400000000000000000e+01,-9.000000000000000000e+00,1.100000000000000000e+01,-3.282470703125000000e-01,1.630859375000000000e-01,7.366943359375000000e-01,5.682373046875000000e-01
0.000000000000000000e+00,7.000000000000000000e+00,-1.400000000000000000e+01,1.200000000000000000e+01,8.000000000000000000e+00,1.500000000000000000e+01,1.000000000000000000e+00,-1.000000000000000000e+01,-3.282470703125000000e-01,1.630859375000000000e-01,7.366943359375000000e-01,5.682373046875000000e-01
3.000000000000000000e+00,1.600000000000000000e+01,1.400000000000000000e+01,-7.000000000000000000e+00,-5.000000000000000000e+00,0.000000000000000000e+00,6.000000000000000000e+00,8.000000000000000000e+00,-3.282470703125000000e-01,1.630859375000000000e-01,7.366943359375000000e-01,5.682373046875000000e-01
7.000000000000000000e+00,-2.000000000000000000e+00,-5.000000000000000000e+00,4.000000000000000000e+00,5.000000000000000000e+00,8.000000000000000000e+00,1.300000000000000000e+01,-7.000000000000000000e+00,-3.284912109375000000e-01,1.629638671875000000e-01,7.373046875000000000e-01,5.673217773437500000e-01
1.000000000000000000e+00,2.000000000000000000e+00,1.600000000000000000e+01,9.000000000000000000e+00,0.000000000000000000e+00,-5.000000000000000000e+00,8.000000000000000000e+00,6.000000000000000000e+00,-3.284912109375000000e-01,1.629638671875000000e-01,7.373046875000000000e-01,5.673217773437500000e-01
5.000000000000000000e+00,-2.200000000000000000e+01,-8.000000000000000000e+00,-6.000000000000000000e+00,-2.000000000000000000e+00,-9.000000000000000000e+00,-6.000000000000000000e+00,1.000000000000000000e+00,-3.284912109375000000e-01,1.629638671875000000e-01,7.373046875000000000e-01,5.673217773437500000e-01
-3.000000000000000000e+00,2.400000000000000000e+01,1.300000000000000000e+01,5.000000000000000000e+00,5.000000000000000000e+00,-3.000000000000000000e+00,-5.000000000000000000e+00,-2.000000000000000000e+00,-3.284912109375000000e-01,1.629638671875000000e-01,7.373046875000000000e-01,5.673217773437500000e-01
-4.000000000000000000e+00,-8.000000000000000000e+00,-2.100000000000000000e+01,-5.000000000000000000e+00,-4.000000000000000000e+00,-8.000000000000000000e+00,-9.000000000000000000e+00,2.000000000000000000e+00,-3.276977539062500000e-01,1.641845703125000000e-01,7.362060546875000000e-01,5.688476562500000000e-01
1.000000000000000000e+00,1.000000000000000000e+00,8.000000000000000000e+00,1.000000000000000000e+00,0.000000000000000000e+00,5.000000000000000000e+00,1.100000000000000000e+01,2.000000000000000000e+00,-3.276977539062500000e-01,1.641845703125000000e-01,7.362060546875000000e-01,5.688476562500000000e-01
-1.300000000000000000e+01,-5.400000000000000000e+01,-4.900000000000000000e+01,-2.500000000000000000e+01,-1.200000000000000000e+01,-3.000000000000000000e+00,-4.000000000000000000e+00,-8.000000000000000000e+00,-3.276977539062500000e-01,1.641845703125000000e-01,7.362060546875000000e-01,5.688476562500000000e-01
-3.800000000000000000e+01,5.000000000000000000e+00,8.000000000000000000e+00,3.000000000000000000e+00,0.000000000000000000e+00,1.000000000000000000e+00,-1.000000000000000000e+01,-7.000000000000000000e+00,-3.276977539062500000e-01,1.641845703125000000e-01,7.362060546875000000e-01,5.688476562500000000e-01
3.800000000000000000e+01,1.000000000000000000e+00,2.000000000000000000e+00,-1.000000000000000000e+00,0.000000000000000000e+00,-9.000000000000000000e+00,-1.000000000000000000e+00,9.000000000000000000e+00,-3.253784179687500000e-01,1.674194335937500000e-01,7.346191406250000000e-01,5.712280273437500000e-01
-8.000000000000000000e+00,1.100000000000000000e+01,1.800000000000000000e+01,1.000000000000000000e+00,1.000000000000000000e+00,6.000000000000000000e+00,6.000000000000000000e+00,-9.000000000000000000e+00,-3.253784179687500000e-01,1.674194335937500000e-01,7.346191406250000000e-01,5.712280273437500000e-01
-1.900000000000000000e+01,-2.400000000000000000e+01,1.700000000000000000e+01,2.000000000000000000e+00,-1.000000000000000000e+00,0.000000000000000000e+00,0.000000000000000000e+00,-1.000000000000000000e+00,-3.253784179687500000e-01,1.674194335937500000e-01,7.346191406250000000e-01,5.712280273437500000e-01
1.400000000000000000e+01,1.800000000000000000e+01,-1.200000000000000000e+01,-6.000000000000000000e+00,-4.000000000000000000e+00,-8.000000000000000000e+00,0.000000000000000000e+00,3.000000000000000000e+00,-3.253784179687500000e-01,1.674194335937500000e-01,7.346191406250000000e-01,5.712280273437500000e-01
4.000000000000000000e+00,1.200000000000000000e+01,1.000000000000000000e+00,8.000000000000000000e+00,2.000000000000000000e+00,2.000000000000000000e+00,0.000000000000000000e+00,5.000000000000000000e+00,-3.235473632812500000e-01,1.701660156250000000e-01,7.335205078125000000e-01,5.728759765625000000e-01
5.000000000000000000e+00,-1.100000000000000000e+01,-3.000000000000000000e+00,-1.500000000000000000e+01,-5.000000000000000000e+00,-1.000000000000000000e+00,-1.000000000000000000e+00,-1.000000000000000000e+00,-3.235473632812500000e-01,1.701660156250000000e-01,7.335205078125000000e-01,5.728759765625000000e-01
3.000000000000000000e+00,1.900000000000000000e+01,-5.000000000000000000e+00,2.900000000000000000e+01,3.000000000000000000e+00,-2.000000000000000000e+00,9.000000000000000000e+00,1.000000000000000000e+00,-3.235473632812500000e-01,1.701660156250000000e-01,7.335205078125000000e-01,5.728759765625000000e-01
-2.000000000000000000e+00,-2.000000000000000000e+01,2.000000000000000000e+00,-4.000000000000000000e+00,-5.000000000000000000e+00,-1.000000000000000000e+00,-1.500000000000000000e+01,-6.000000000000000000e+00,-3.235473632812500000e-01,1.701660156250000000e-01,7.335205078125000000e-01,5.728759765625000000e-01
-3.000000000000000000e+00,5.000000000000000000e+00,-2.000000000000000000e+00,-2.000000000000000000e+00,-2.000000000000000000e+00,1.000000000000000000e+00,0.000000000000000000e+00,-1.000000000000000000e+00,-3.231201171875000000e-01,1.703491210937500000e-01,7.327270507812500000e-01,5.741577148437500000e-01
3.000000000000000000e+00,2.000000000000000000e+00,-3.000000000000000000e+00,-5.000000000000000000e+00,3.000000000000000000e+00,-3.000000000000000000e+00,-4.000000000000000000e+00,-4.000000000000000000e+00,-3.231201171875000000e-01,1.703491210937500000e-01,7.327270507812500000e-01,5.741577148437500000e-01
4.000000000000000000e+00,1.800000000000000000e+01,1.700000000000000000e+01,7.000000000000000000e+00,1.000000000000000000e+00,-6.000000000000000000e+00,-1.000000000000000000e+00,1.000000000000000000e+00,-3.231201171875000000e-01,1.703491210937500000e-01,7.327270507812500000e-01,5.741577148437500000e-01
5.000000000000000000e+00,9.000000000000000000e+00,7.000000000000000000e+00,1.000000000000000000e+01,3.000000000000000000e+00,-5.000000000000000000e+00,6.000000000000000000e+00,1.000000000000000000e+00,-3.231201171875000000e-01,1.703491210937500000e-01,7.327270507812500000e-01,5.741577148437500000e-01
-3.000000000000000000e+00,-2.700000000000000000e+01,-2.000000000000000000e+00,-2.000000000000000000e+00,7.000000000000000000e+00,1.000000000000000000e+00,-3.000000000000000000e+00,-1.000000000000000000e+00,-3.232421875000000000e-01,1.691894531250000000e-01,7.321777343750000000e-01,5.750732421875000000e-01
0.000000000000000000e+00,7.000000000000000000e+00,7.000000000000000000e+00,-1.000000000000000000e+01,-8.000000000000000000e+00,-8.000000000000000000e+00,-1.000000000000000000e+01,-6.000000000000000000e+00,-3.232421875000000000e-01,1.691894531250000000e-01,7.321777343750000000e-01,5.750732421875000000e-01
-1.000000000000000000e+01,0.000000000000000000e+00,-8.000000000000000000e+00,1.000000000000000000e+00,-3.000000000000000000e+00,1.400000000000000000e+01,-2.000000000000000000e+00,-2.000000000000000000e+00,-3.232421875000000000e-01,1.691894531250000000e-01,7.321777343750000000e-01,5.750732421875000000e-01
7.000000000000000000e+00,-1.000000000000000000e+01,4.000000000000000000e+00,4.000000000000000000e+00,-3.000000000000000000e+00,-6.000000000000000000e+00,1.000000000000000000e+00,-3.000000000000000000e+00,-3.232421875000000000e-01,1.691894531250000000e-01,7.321777343750000000e-01,5.750732421875000000e-01
0.000000000000000000e+00,3.200000000000000000e+01,7.000000000000000000e+00,-1.000000000000000000e+01,-3.000000000000000000e+00,-5.000000000000000000e+00,1.000000000000000000e+00,2.000000000000000000e+00,-3.234252929687500000e-01,1.677246093750000000e-01,7.313842773437500000e-01,5.764160156250000000e-01
-3.000000000000000000e+00,-1.500000000000000000e+01,-8.000000000000000000e+00,1.700000000000000000e+01,1.000000000000000000e+00,0.000000000000000000e+00,1.000000000000000000e+00,-5.000000000000000000e+00,-3.234252929687500000e-01,1.677246093750000000e-01,7.313842773437500000e-01,5.764160156250000000e-01
4.000000000000000000e+00,9.000000000000000000e+00,1.100000000000000000e+01,-9.000000000000000000e+00,-3.000000000000000000e+00,-3.000000000000000000e+00,-1.000000000000000000e+00,3.000000000000000000e+00,-3.234252929687500000e-01,1.677246093750000000e-01,7.313842773437500000e-01,5.764160156250000000e-01
2.000000000000000000e+00,-4.000000000000000000e+00,-3.000000000000000000e+00,3.000000000000000000e+00,5.000000000000000000e+00,5.000000000000000000e+00,5.000000000000000000e+00,0.000000000000000000e+00,-3.234252929687500000e-01,1.677246093750000000e-01,7.313842773437500000e-01,5.764160156250000000e-01
-2.100000000000000000e+01,-2.400000000000000000e+01,0.000000000000000000e+00,-5.000000000000000000e+00,-4.000000000000000000e+00,3.000000000000000000e+00,-2.000000000000000000e+00,-3.000000000000000000e+00,-3.236083984375000000e-01,1.665649414062500000e-01,7.301635742187500000e-01,5.782470703125000000e-01
2.700000000000000000e+01,1.300000000000000000e+01,1.000000000000000000e+01,4.000000000000000000e+00,0.000000000000000000e+00,0.000000000000000000e+00,2.000000000000000000e+00,-3.000000000000000000e+00,-3.236083984375000000e-01,1.665649414062500000e-01,7.301635742187500000e-01,5.782470703125000000e-01
0.000000000000000000e+00,-2.000000000000000000e+00,-4.000000000000000000e+00,1.000000000000000000e+00,1.000000000000000000e+00,0.000000000000000000e+00,-3.000000000000000000e+00,9.000000000000000000e+00,-3.236083984375000000e-01,1.665649414062500000e-01,7.301635742187500000e-01,5.782470703125000000e-01
-7.000000000000000000e+00,-2.400000000000000000e+01,2.000000000000000000e+00,-9.000000000000000000e+00,-3.000000000000000000e+00,3.000000000000000000e+00,-1.000000000000000000e+00,-4.000000000000000000e+00,-3.236083984375000000e-01,1.665649414062500000e-01,7.301635742187500000e-01,5.782470703125000000e-01
-3.000000000000000000e+00,4.000000000000000000e+00,-2.400000000000000000e+01,4.000000000000000000e+00,0.000000000000000000e+00,0.000000000000000000e+00,-6.000000000000000000e+00,-1.000000000000000000e+01,-3.228149414062500000e-01,1.669311523437500000e-01,7.286376953125000000e-01,5.804443359375000000e-01
-1.400000000000000000e+01,-1.000000000000000000e+00,7.000000000000000000e+00,8.000000000000000000e+00,3.000000000000000000e+00,1.000000000000000000e+00,9.000000000000000000e+00,2.000000000000000000e+00,-3.228149414062500000e-01,1.669311523437500000e-01,7.286376953125000000e-01,5.804443359375000000e-01
2.000000000000000000e+00,4.000000000000000000e+00,-3.000000000000000000e+00,-1.000000000000000000e+00,4.000000000000000000e+00,6.000000000000000000e+00,-1.300000000000000000e+01,1.000000000000000000e+00,-3.228149414062500000e-01,1.669311523437500000e-01,7.286376953125000000e-01,5.804443359375000000e-01
1.000000000000000000e+01,6.000000000000000000e+00,1.000000000000000000e+01,-8.000000000000000000e+00,0.000000000000000000e+00,-3.000000000000000000e+00,-1.000000000000000000e+00,-1.000000000000000000e+00,-3.228149414062500000e-01,1.669311523437500000e-01,7.286376953125000000e-01,5.804443359375000000e-01
1.200000000000000000e+01,5.000000000000000000e+00,4.000000000000000000e+00,2.000000000000000000e+00,-7.000000000000000000e+00,-1.200000000000000000e+01,-3.000000000000000000e+00,7.000000000000000000e+00,-3.220214843750000000e-01,1.674804687500000000e-01,7.272949218750000000e-01,5.824584960937500000e-01
0.000000000000000000e+00,-1.700000000000000000e+01,-6.000000000000000000e+00,-6.000000000000000000e+00,0.000000000000000000e+00,8.000000000000000000e+00,6.000000000000000000e+00,1.000000000000000000e+00,-3.220214843750000000e-01,1.674804687500000000e-01,7.272949218750000000e-01,5.824584960937500000e-01
8.000000000000000000e+00,1.300000000000000000e+01,9.000000000000000000e+00,3.000000000000000000e+00,-4.000000000000000000e+00,-5.000000000000000000e+00,0.000000000000000000e+00,-2.000000000000000000e+00,-3.220214843750000000e-01,1.674804687500000000e-01,7.272949218750000000e-01,5.824584960937500000e-01
-6.000000000000000000e+00,-1.800000000000000000e+01,-7.000000000000000000e+00,-2.000000000000000000e+00,-2.000000000000000000e+00,5.000000000000000000e+00,3.000000000000000000e+00,1.000000000000000000e+00,-3.220214843750000000e-01,1.674804687500000000e-01,7.272949218750000000e-01,5.824584960937500000e-01
-6.000000000000000000e+00,-8.000000000000000000e+00,9.000000000000000000e+00,1.000000000000000000e+00,0.000000000000000000e+00,-3.000000000000000000e+00,-1.000000000000000000e+00,0.000000000000000000e+00,-3.211059570312500000e-01,1.676635742187500000e-01,7.264404296875000000e-01,5.839843750000000000e-01
4.000000000000000000e+00,5.500000000000000000e+01,-5.000000000000000000e+00,1.000000000000000000e+00,-3.000000000000000000e+00,-5.000000000000000000e+00,-6.000000000000000000e+00,-1.000000000000000000e+00,-3.211059570312500000e-01,1.676635742187500000e-01,7.264404296875000000e-01,5.839843750000000000e-01
-5.000000000000000000e+00,-1.400000000000000000e+01,3.000000000000000000e+00,-1.500000000000000000e+01,-2.000000000000000000e+00,-9.000000000000000000e+00,-3.000000000000000000e+00,-1.000000000000000000e+00,-3.211059570312500000e-01,1.676635742187500000e-01,7.264404296875000000e-01,5.839843750000000000e-01
0.000000000000000000e+00,-2.300000000000000000e+01,-3.600000000000000000e+01,9.000000000000000000e+00,4.000000000000000000e+00,5.000000000000000000e+00,0.000000000000000000e+00,-3.000000000000000000e+00,-3.211059570312500000e-01,1.676635742187500000e-01,7.264404296875000000e-01,5.839843750000000000e-01
1.000000000000000000e+00,2.000000000000000000e+00,2.600000000000000000e+01,2.000000000000000000e+00,-3.000000000000000000e+00,-2.000000000000000000e+00,0.000000000000000000e+00,-1.000000000000000000e+00,-3.204345703125000000e-01,1.673583984375000000e-01,7.261352539062500000e-01,5.847778320312500000e-01
-6.000000000000000000e+00,-1.100000000000000000e+01,-8.000000000000000000e+00,1.000000000000000000e+01,7.000000000000000000e+00,4.000000000000000000e+00,-1.000000000000000000e+00,0.000000000000000000e+00,-3.204345703125000000e-01,1.673583984375000000e-01,7.261352539062500000e-01,5.847778320312500000e-01
-2.000000000000000000e+00,7.000000000000000000e+00,-2.000000000000000000e+00,-7.000000000000000000e+00,-2.000000000000000000e+00,-3.000000000000000000e+00,0.000000000000000000e+00,-1.000000000000000000e+00,-3.204345703125000000e-01,1.673583984375000000e-01,7.261352539062500000e-01,5.847778320312500000e-01
9.000000000000000000e+00,3.000000000000000000e+01,1.400000000000000000e+01,-1.000000000000000000e+00,-4.000000000000000000e+00,-2.000000000000000000e+00,2.000000000000000000e+00,0.000000000000000000e+00,-3.204345703125000000e-01,1.673583984375000000e-01,7.261352539062500000e-01,5.847778320312500000e-01
-4.000000000000000000e+00,-1.100000000000000000e+01,-6.000000000000000000e+00,-3.000000000000000000e+00,3.000000000000000000e+00,2.000000000000000000e+00,-1.000000000000000000e+00,-1.000000000000000000e+00,-3.195800781250000000e-01,1.676025390625000000e-01,7.261962890625000000e-01,5.850830078125000000e-01
-8.000000000000000000e+00,-1.000000000000000000e+00,-1.000000000000000000e+00,-2.000000000000000000e+00,0.000000000000000000e+00,3.000000000000000000e+00,-1.000000000000000000e+00,-1.000000000000000000e+00,-3.195800781250000000e-01,1.676025390625000000e-01,7.261962890625000000e-01,5.850830078125000000e-01
-2.000000000000000000e+00,0.000000000000000000e+00,-1.500000000000000000e+01,-1.000000000000000000e+00,-6.000000000000000000e+00,-2.000000000000000000e+00,-3.000000000000000000e+00,-4.000000000000000000e+00,-3.195800781250000000e-01,1.676025390625000000e-01,7.261962890625000000e-01,5.850830078125000000e-01
0.000000000000000000e+00,-1.900000000000000000e+01,3.000000000000000000e+00,-3.000000000000000000e+00,-5.000000000000000000e+00,-4.000000000000000000e+00,0.000000000000000000e+00,-1.000000000000000000e+00,-3.195800781250000000e-01,1.676025390625000000e-01,7.261962890625000000e-01,5.850830078125000000e-01
-1.500000000000000000e+01,-1.000000000000000000e+00,-1.200000000000000000e+01,-6.000000000000000000e+00,-4.000000000000000000e+00,-2.000000000000000000e+00,0.000000000000000000e+00,-3.000000000000000000e+00,-3.185424804687500000e-01,1.687011718750000000e-01,7.261352539062500000e-01,5.853881835937500000e-01
1.500000000000000000e+01,3.000000000000000000e+00,4.000000000000000000e+00,-5.000000000000000000e+00,-3.000000000000000000e+00,-4.000000000000000000e+00,-3.000000000000000000e+00,4.000000000000000000e+00,-3.185424804687500000e-01,1.687011718750000000e-01,7.261352539062500000e-01,5.853881835937500000e-01
-2.000000000000000000e+01,-3.000000000000000000e+00,7.000000000000000000e+00,-5.000000000000000000e+00,0.000000000000000000e+00,-3.000000000000000000e+00,1.000000000000000000e+00,-3.000000000000000000e+00,-3.185424804687500000e-01,1.687011718750000000e-01,7.261352539062500000e-01,5.853881835937500000e-01
2.600000000000000000e+01,1.500000000000000000e+01,-1.000000000000000000e+00,0.000000000000000000e+00,-6.000000000000000000e+00,4.000000000000000000e+00,1.400000000000000000e+01,3.000000000000000000e+00,-3.185424804687500000e-01,1.687011718750000000e-01,7.261352539062500000e-01,5.853881835937500000e-01
-1.300000000000000000e+01,-7.000000000000000000e+00,-9.000000000000000000e+00,0.000000000000000000e+00,4.000000000000000000e+00,-4.000000000000000000e+00,-1.800000000000000000e+01,-4.000000000000000000e+00,-3.179321289062500000e-01,1.693115234375000000e-01,7.258300781250000000e-01,5.859985351562500000e-01
-1.800000000000000000e+01,-9.000000000000000000e+00,-3.000000000000000000e+00,-1.000000000000000000e+00,-2.000000000000000000e+00,-4.000000000000000000e+00,-3.000000000000000000e+00,-9.000000000000000000e+00,-3.179321289062500000e-01,1.693115234375000000e-01,7.258300781250000000e-01,5.859985351562500000e-01
2.900000000000000000e+01,-1.000000000000000000e+00,3.000000000000000000e+00,-5.000000000000000000e+00,-2.000000000000000000e+00,-4.000000000000000000e+00,-2.000000000000000000e+00,6.000000000000000000e+00,-3.179321289062500000e-01,1.693115234375000000e-01,7.258300781250000000e-01,5.859985351562500000e-01
-9.000000000000000000e+00,-8.000000000000000000e+00,2.000000000000000000e+00,-2.000000000000000000e+00,0.000000000000000000e+00,-6.000000000000000000e+00,-1.200000000000000000e+01,-2.000000000000000000e+00,-3.179321289062500000e-01,1.693115234375000000e-01,7.258300781250000000e-01,5.859985351562500000e-01
2.000000000000000000e+00,9.000000000000000000e+00,9.000000000000000000e+00,0.000000000000000000e+00,2.000000000000000000e+00,1.100000000000000000e+01,1.900000000000000000e+01,-4.000000000000000000e+00,-3.171997070312500000e-01,1.698608398437500000e-01,7.257690429687500000e-01,5.863037109375000000e-01
-2.000000000000000000e+00,-1.100000000000000000e+01,0.000000000000000000e+00,-6.000000000000000000e+00,-5.000000000000000000e+00,-5.000000000000000000e+00,1.000000000000000000e+00,2.000000000000000000e+00,-3.171997070312500000e-01,1.698608398437500000e-01,7.257690429687500000e-01,5.863037109375000000e-01
-1.200000000000000000e+01,8.000000000000000000e+00,3.000000000000000000e+00,1.800000000000000000e+01,0.000000000000000000e+00,-1.000000000000000000e+00,1.000000000000000000e+00,-6.000000000000000000e+00,-3.171997070312500000e-01,1.698608398437500000e-01,7.257690429687500000e-01,5.863037109375000000e-01
2.000000000000000000e+00,1.400000000000000000e+01,0.000000000000000000e+00,-3.000000000000000000e+00,2.000000000000000000e+00,1.000000000000000000e+00,-2.000000000000000000e+00,0.000000000000000000e+00,-3.171997070312500000e-01,1.698608398437500000e-01,7.257690429687500000e-01,5.863037109375000000e-01
5.000000000000000000e+00,-2.000000000000000000e+01,-6.000000000000000000e+00,-6.000000000000000000e+00,-4.000000000000000000e+00,-1.000000000000000000e+01,-6.000000000000000000e+00,1.000000000000000000e+00,-3.173217773437500000e-01,1.704101562500000000e-01,7.258300781250000000e-01,5.859985351562500000e-01
-9.000000000000000000e+00,-6.000000000000000000e+00,5.000000000000000000e+00,-1.000000000000000000e+00,0.000000000000000000e+00,3.000000000000000000e+00,-3.000000000000000000e+00,-3.000000000000000000e+00,-3.173217773437500000e-01,1.704101562500000000e-01,7.258300781250000000e-01,5.859985351562500000e-01
-3.000000000000000000e+00,-5.000000000000000000e+00,-9.000000000000000000e+00,-4.000000000000000000e+00,-4.000000000000000000e+00,-1.000000000000000000e+00,0.000000000000000000e+00,-3.000000000000000000e+00,-3.173217773437500000e-01,1.704101562500000000e-01,7.258300781250000000e-01,5.859985351562500000e-01
4.000000000000000000e+00,-2.000000000000000000e+00,3.000000000000000000e+00,1.100000000000000000e+01,4.000000000000000000e+00,-3.000000000000000000e+00,-2.000000000000000000e+00,0.000000000000000000e+00,-3.173217773437500000e-01,1.704101562500000000e-01,7.258300781250000000e-01,5.859985351562500000e-01
2.000000000000000000e+00,8.000000000000000000e+00,-6.000000000000000000e+00,-3.000000000000000000e+00,-3.000000000000000000e+00,4.000000000000000000e+00,0.000000000000000000e+00,1.000000000000000000e+00,-3.182373046875000000e-01,1.710205078125000000e-01,7.255249023437500000e-01,5.856933593750000000e-01
0.000000000000000000e+00,-7.000000000000000000e+00,6.000000000000000000e+00,4.000000000000000000e+00,3.000000000000000000e+00,1.000000000000000000e+00,2.000000000000000000e+00,2.000000000000000000e+00,-3.182373046875000000e-01,1.710205078125000000e-01,7.255249023437500000e-01,5.856933593750000000e-01
4.000000000000000000e+00,0.000000000000000000e+00,0.000000000000000000e+00,-1.200000000000000000e+01,-6.000000000000000000e+00,0.000000000000000000e+00,-2.000000000000000000e+00,-4.000000000000000000e+00,-3.182373046875000000e-01,1.710205078125000000e-01,7.255249023437500000e-01,5.856933593750000000e-01
1.000000000000000000e+00,7.000000000000000000e+00,-3.000000000000000000e+00,7.000000000000000000e+00,3.000000000000000000e+00,-1.000000000000000000e+00,-3.000000000000000000e+00,-1.000000000000000000e+00,-3.182373046875000000e-01,1.710205078125000000e-01,7.255249023437500000e-01,5.856933593750000000e-01
-4.300000000000000000e+01,-7.000000000000000000e+00,-2.000000000000000000e+00,-5.000000000000000000e+00,-1.000000000000000000e+00,-1.000000000000000000e+00,0.000000000000000000e+00,-1.000000000000000000e+00,-3.185424804687500000e-01,1.722412109375000000e-01,7.249755859375000000e-01,5.858154296875000000e-01
3.600000000000000000e+01,-4.000000000000000000e+00,-9.000000000000000000e+00,-5.000000000000000000e+00,-8.000000000000000000e+00,-3.000000000000000000e+00,-1.000000000000000000e+00,2.000000000000000000e+00,-3.185424804687500000e-01,1.722412109375000000e-01,7.249755859375000000e-01,5.858154296875000000e-01
-7.000000000000000000e+00,0.000000000000000000e+00,1.000000000000000000e+00,0.000000000000000000e+00,-3.000000000000000000e+00,-5.000000000000000000e+00,-5.000000000000000000e+00,-2.000000000000000000e+00,-3.185424804687500000e-01,1.722412109375000000e-01,7.249755859375000000e-01,5.858154296875000000e-01
1.000000000000000000e+00,-8.000000000000000000e+00,-6.000000000000000000e+00,-3.000000000000000000e+00,-1.000000000000000000e+00,3.000000000000000000e+00,2.000000000000000000e+00,-2.000000000000000000e+00,-3.185424804687500000e-01,1.722412109375000000e-01,7.249755859375000000e-01,5.858154296875000000e-01
1.000000000000000000e+00,1.100000000000000000e+01,2.000000000000000000e+00,2.000000000000000000e+00,4.000000000000000000e+00,6.000000000000000000e+00,0.000000000000000000e+00,-1.000000000000000000e+00,-3.184204101562500000e-01,1.738891601562500000e-01,7.247314453125000000e-01,5.857543945312500000e-01
-1.200000000000000000e+01,-6.000000000000000000e+00,-1.900000000000000000e+01,-8.000000000000000000e+00,-3.000000000000000000e+00,-5.000000000000000000e+00,-3.000000000000000000e+00,-4.000000000000000000e+00,-3.184204101562500000e-01,1.738891601562500000e-01,7.247314453125000000e-01,5.857543945312500000e-01
-8.000000000000000000e+00,2.000000000000000000e+00,-1.000000000000000000e+00,2.000000000000000000e+00,3.000000000000000000e+00,2.000000000000000000e+00,3.000000000000000000e+00,0.000000000000000000e+00,-3.184204101562500000e-01,1.738891601562500000e-01,7.247314453125000000e-01,5.857543945312500000e-01
5.000000000000000000e+00,-1.600000000000000000e+01,6.000000000000000000e+00,-2.000000000000000000e+00,-1.000000000000000000e+00,1.000000000000000000e+00,0.000000000000000000e+00,1.000000000000000000e+00,-3.184204101562500000e-01,1.738891601562500000e-01,7.247314453125000000e-01,5.857543945312500000e-01
4.000000000000000000e+00,1.900000000000000000e+01,-4.000000000000000000e+00,-3.000000000000000000e+00,-2.000000000000000000e+00,-6.000000000000000000e+00,-2.000000000000000000e+00,-1.000000000000000000e+00,-3.191528320312500000e-01,1.745605468750000000e-01,7.249755859375000000e-01,5.848388671875000000e-01
-5.000000000000000000e+00,-1.400000000000000000e+01,1.200000000000000000e+01,-6.000000000000000000e+00,2.000000000000000000e+00,7.000000000000000000e+00,3.000000000000000000e+00,4.000000000000000000e+00,-3.191528320312500000e-01,1.745605468750000000e-01,7.249755859375000000e-01,5.848388671875000000e-01
1.000000000000000000e+00,6.000000000000000000e+00,-1.300000000000000000e+01,1.500000000000000000e+01,-1.000000000000000000e+00,-4.000000000000000000e+00,-3.000000000000000000e+00,-4.000000000000000000e+00,-3.191528320312500000e-01,1.745605468750000000e-01,7.249755859375000000e-01,5.848388671875000000e-01
-1.600000000000000000e+01,3.000000000000000000e+00,0.000000000000000000e+00,2.000000000000000000e+00,-3.000000000000000000e+00,-1.000000000000000000e+00,2.000000000000000000e+00,0.000000000000000000e+00,-3.191528320312500000e-01,1.745605468750000000e-01,7.249755859375000000e-01,5.848388671875000000e-01
1.600000000000000000e+01,-3.000000000000000000e+00,-9.000000000000000000e+00,-2.000000000000000000e+00,-3.000000000000000000e+00,4.000000000000000000e+00,7.000000000000000000e+00,-2.000000000000000000e+00,-3.207397460937500000e-01,1.737670898437500000e-01,7.251586914062500000e-01,5.839233398437500000e-01
-9.000000000000000000e+00,-1.000000000000000000e+00,-4.000000000000000000e+00,-7.000000000000000000e+00,-5.000000000000000000e+00,-8.000000000000000000e+00,-2.700000000000000000e+01,-4.000000000000000000e+00,-3.207397460937500000e-01,1.737670898437500000e-01,7.251586914062500000e-01,5.839233398437500000e-01
3.000000000000000000e+00,-2.000000000000000000e+00,6.000000000000000000e+00,1.000000000000000000e+00,4.000000000000000000e+00,0.000000000000000000e+00,3.000000000000000000e+00,0.000000000000000000e+00,-3.207397460937500000e-01,1.737670898437500000e-01,7.251586914062500000e-01,5.839233398437500000e-01
-3.600000000000000000e+01,1.000000000000000000e+00,1.000000000000000000e+01,-7.000000000000000000e+00,-5.000000000000000000e+00,0.000000000000000000e+00,0.000000000000000000e+00,-6.000000000000000000e+00,-3.207397460937500000e-01,1.737670898437500000e-01,7.251586914062500000e-01,5.839233398437500000e-01
4.300000000000000000e+01,1.500000000000000000e+01,-2.000000000000000000e+00,4.000000000000000000e+00,1.000000000000000000e+00,1.000000000000000000e+00,0.000000000000000000e+00,6.000000000000000000e+00,-3.220214843750000000e-01,1.732177734375000000e-01,7.249145507812500000e-01,5.837402343750000000e-01
-1.200000000000000000e+01,-6.000000000000000000e+00,-1.500000000000000000e+01,-6.000000000000000000e+00,-7.000000000000000000e+00,1.000000000000000000e+00,5.000000000000000000e+00,-8.000000000000000000e+00,-3.220214843750000000e-01,1.732177734375000000e-01,7.249145507812500000e-01,5.837402343750000000e-01
-1.000000000000000000e+00,2.000000000000000000e+00,3.000000000000000000e+00,-5.000000000000000000e+00,2.000000000000000000e+00,-2.000000000000000000e+00,-1.500000000000000000e+01,-2.000000000000000000e+00,-3.220214843750000000e-01,1.732177734375000000e-01,7.249145507812500000e-01,5.837402343750000000e-01
1.100000000000000000e+01,2.000000000000000000e+00,1.000000000000000000e+00,2.000000000000000000e+00,-1.000000000000000000e+00,-5.000000000000000000e+00,-4.000000000000000000e+00,-1.000000000000000000e+00,-3.220214843750000000e-01,1.732177734375000000e-01,7.249145507812500000e-01,5.837402343750000000e-01
8.000000000000000000e+00,-5.000000000000000000e+00,9.000000000000000000e+00,-2.000000000000000000e+00,-1.000000000000000000e+00,-5.000000000000000000e+00,2.000000000000000000e+00,9.000000000000000000e+00,-3.226318359375000000e-01,1.736450195312500000e-01,7.241821289062500000e-01,5.841674804687500000e-01
5.000000000000000000e+00,7.000000000000000000e+00,2.000000000000000000e+00,7.000000000000000000e+00,5.000000000000000000e+00,1.300000000000000000e+01,1.400000000000000000e+01,-3.000000000000000000e+00,-3.226318359375000000e-01,1.736450195312500000e-01,7.241821289062500000e-01,5.841674804687500000e-01
-6.000000000000000000e+00,-1.700000000000000000e+01,2.000000000000000000e+00,-2.000000000000000000e+00,-3.000000000000000000e+00,-3.000000000000000000e+00,-1.000000000000000000e+00,1.000000000000000000e+00,-3.226318359375000000e-01,1.736450195312500000e-01,7.241821289062500000e-01,5.841674804687500000e-01
-1.500000000000000000e+01,6.000000000000000000e+00,0.000000000000000000e+00,-4.000000000000000000e+00,1.000000000000000000e+00,2.000000000000000000e+00,-3.000000000000000000e+00,-5.000000000000000000e+00,-3.226318359375000000e-01,1.736450195312500000e-01,7.241821289062500000e-01,5.841674804687500000e-01
-6.000000000000000000e+00,5.000000000000000000e+00,-5.000000000000000000e+00,4.000000000000000000e+00,2.000000000000000000e+00,-6.000000000000000000e+00,-1.100000000000000000e+01,-5.000000000000000000e+00,-3.228759765625000000e-01,1.743164062500000000e-01,7.236938476562500000e-01,5.844726562500000000e-01
8.000000000000000000e+00,2.000000000000000000e+00,5.000000000000000000e+00,5.000000000000000000e+00,-2.000000000000000000e+00,-2.000000000000000000e+00,-1.000000000000000000e+00,6.000000000000000000e+00,-3.228759765625000000e-01,1.743164062500000000e-01,7.236938476562500000e-01,5.844726562500000000e-01
-7.000000000000000000e+00,-1.200000000000000000e+01,-2.000000000000000000e+00,-8.000000000000000000e+00,-3.000000000000000000e+00,0.000000000000000000e+00,0.000000000000000000e+00,-4.000000000000000000e+00,-3.228759765625000000e-01,1.743164062500000000e-01,7.236938476562500000e-01,5.844726562500000000e-01
2.600000000000000000e+01,-4.000000000000000000e+00,2.000000000000000000e+00,1.000000000000000000e+00,0.000000000000000000e+00,-2.000000000000000000e+00,1.000000000000000000e+00,7.000000000000000000e+00,-3.228759765625000000e-01,1.743164062500000000e-01,7.236938476562500000e-01,5.844726562500000000e-01
-7.000000000000000000e+00,-2.400000000000000000e+01,4.000000000000000000e+00,-8.000000000000000000e+00,-6.000000000000000000e+00,-3.000000000000000000e+00,0.000000000000000000e+00,-5.000000000000000000e+00,-3.229980468750000000e-01,1.744995117187500000e-01,7.233886718750000000e-01,5.847167968750000000e-01
-1.500000000000000000e+01,1.400000000000000000e+01,1.000000000000000000e+01,-3.000000000000000000e+00,2.000000000000000000e+00,-1.000000000000000000e+00,-2.000000000000000000e+00,-2.000000000000000000e+00,-3.229980468750000000e-01,1.744995117187500000e-01,7.233886718750000000e-01,5.847167968750000000e-01
9.000000000000000000e+00,1.100000000000000000e+01,1.000000000000000000e+00,9.000000000000000000e+00,5.000000000000000000e+00,3.000000000000000000e+00,6.000000000000000000e+00,-1.000000000000000000e+00,-3.229980468750000000e-01,1.744995117187500000e-01,7.233886718750000000e-01,5.847167968750000000e-01
-1.500000000000000000e+01,-1.600000000000000000e+01,-1.000000000000000000e+00,-1.800000000000000000e+01,-3.000000000000000000e+00,-3.000000000000000000e+00,-2.000000000000000000e+00,-1.000000000000000000e+00,-3.229980468750000000e-01,1.744995117187500000e-01,7.233886718750000000e-01,5.847167968750000000e-01
-5.000000000000000000e+00,0.000000000000000000e+00,-2.000000000000000000e+00,1.200000000000000000e+01,-3.000000000000000000e+00,1.000000000000000000e+00,-6.000000000000000000e+00,-4.000000000000000000e+00,-3.230590820312500000e-01,1.742553710937500000e-01,7.235717773437500000e-01,5.844726562500000000e-01
2.000000000000000000e+01,9.000000000000000000e+00,4.000000000000000000e+00,1.000000000000000000e+01,1.000000000000000000e+00,-2.000000000000000000e+00,4.000000000000000000e+00,0.000000000000000000e+00,-3.230590820312500000e-01,1.742553710937500000e-01,7.235717773437500000e-01,5.844726562500000000e-01
-8.000000000000000000e+00,-5.000000000000000000e+00,8.000000000000000000e+00,-9.000000000000000000e+00,-3.000000000000000000e+00,0.000000000000000000e+00,2.000000000000000000e+00,3.000000000000000000e+00,-3.230590820312500000e-01,1.742553710937500000e-01,7.235717773437500000e-01,5.844726562500000000e-01
4.000000000000000000e+00,5.000000000000000000e+00,-1.000000000000000000e+01,0.000000000000000000e+00,-2.000000000000000000e+00,-1.000000000000000000e+00,-3.000000000000000000e+00,-2.000000000000000000e+00,-3.230590820312500000e-01,1.742553710937500000e-01,7.235717773437500000e-01,5.844726562500000000e-01
-6.000000000000000000e+00,-4.000000000000000000e+00,5.000000000000000000e+00,-3.000000000000000000e+00,0.000000000000000000e+00,2.000000000000000000e+00,-1.000000000000000000e+00,-3.000000000000000000e+00,-3.237915039062500000e-01,1.735229492187500000e-01,7.238769531250000000e-01,5.839843750000000000e-01
-1.400000000000000000e+01,-4.000000000000000000e+00,-1.000000000000000000e+00,5.000000000000000000e+00,4.000000000000000000e+00,-2.000000000000000000e+00,4.000000000000000000e+00,-1.000000000000000000e+00,-3.237915039062500000e-01,1.735229492187500000e-01,7.238769531250000000e-01,5.839843750000000000e-01
7.000000000000000000e+00,1.300000000000000000e+01,5.000000000000000000e+00,0.000000000000000000e+00,1.000000000000000000e+00,-4.000000000000000000e+00,-7.000000000000000000e+00,-1.000000000000000000e+00,-3.237915039062500000e-01,1.735229492187500000e-01,7.238769531250000000e-01,5.839843750000000000e-01
-1.000000000000000000e+00,-5.000000000000000000e+00,7.000000000000000000e+00,4.000000000000000000e+00,1.000000000000000000e+00,-1.000000000000000000e+00,0.000000000000000000e+00,0.000000000000000000e+00,-3.237915039062500000e-01,1.735229492187500000e-01,7.238769531250000000e-01,5.839843750000000000e-01
1.800000000000000000e+01,2.200000000000000000e+01,5.000000000000000000e+00,-5.000000000000000000e+00,-1.000000000000000000e+00,-4.000000000000000000e+00,1.400000000000000000e+01,6.000000000000000000e+00,-3.248291015625000000e-01,1.727294921875000000e-01,7.241210937500000000e-01,5.832519531250000000e-01
-3.100000000000000000e+01,-1.300000000000000000e+01,-6.000000000000000000e+00,5.000000000000000000e+00,0.000000000000000000e+00,7.000000000000000000e+00,-1.300000000000000000e+01,-9.000000000000000000e+00,-3.248291015625000000e-01,1.727294921875000000e-01,7.241210937500000000e-01,5.832519531250000000e-01
2.900000000000000000e+01,1.100000000000000000e+01,0.000000000000000000e+00,-1.000000000000000000e+00,2.000000000000000000e+00,4.000000000000000000e+00,5.000000000000000000e+00,2.000000000000000000e+00,-3.248291015625000000e-01,1.727294921875000000e-01,7.241210937500000000e-01,5.832519531250000000e-01
1.000000000000000000e+00,8.000000000000000000e+00,-3.000000000000000000e+00,-7.000000000000000000e+00,-4.000000000000000000e+00,-2.000000000000000000e+00,0.000000000000000000e+00,0.000000000000000000e+00,-3.248291015625000000e-01,1.727294921875000000e-01,7.241210937500000000e-01,5.832519531250000000e-01
-2.600000000000000000e+01,-2.000000000000000000e+00,-1.000000000000000000e+00,-1.000000000000000000e+00,-2.000000000000000000e+00,1.000000000000000000e+00,-4.000000000000000000e+00,-2.000000000000000000e+00,-3.252563476562500000e-01,1.716918945312500000e-01,7.244873046875000000e-01,5.828857421875000000e-01
1.100000000000000000e+01,-1.800000000000000000e+01,-4.000000000000000000e+00,-4.000000000000000000e+00,0.000000000000000000e+00,-2.000000000000000000e+00,5.000000000000000000e+00,1.000000000000000000e+00,-3.252563476562500000e-01,1.716918945312500000e-01,7.244873046875000000e-01,5.828857421875000000e-01
-1.100000000000000000e+01,3.000000000000000000e+00,2.000000000000000000e+00,2.000000000000000000e+00,2.000000000000000000e+00,-3.000000000000000000e+00,0.000000000000000000e+00,-3.000000000000000000e+00,-3.252563476562500000e-01,1.716918945312500000e-01,7.244873046875000000e-01,5.828857421875000000e-01
9.000000000000000000e+00,2.000000000000000000e+01,-8.000000000000000000e+00,-3.000000000000000000e+00,1.000000000000000000e+00,2.000000000000000000e+00,3.000000000000000000e+00,-2.000000000000000000e+00,-3.252563476562500000e-01,1.716918945312500000e-01,7.244873046875000000e-01,5.828857421875000000e-01
