4.000000000000000000e+00,-5.000000000000000000e+00,-9.000000000000000000e+00,-5.000000000000000000e+00,0.000000000000000000e+00,-1.000000000000000000e+00,1.800000000000000000e+01,0.000000000000000000e+00,3.863525390625000000e-01,1.287841796875000000e-01,-9.070434570312500000e-01,-1.069946289062500000e-01
1.000000000000000000e+00,8.000000000000000000e+00,7.000000000000000000e+00,1.100000000000000000e+01,-1.000000000000000000e+00,-3.000000000000000000e+00,1.000000000000000000e+00,-3.000000000000000000e+00,3.863525390625000000e-01,1.287841796875000000e-01,-9.070434570312500000e-01,-1.069946289062500000e-01
9.000000000000000000e+00,-4.000000000000000000e+00,-7.000000000000000000e+00,2.000000000000000000e+00,-3.000000000000000000e+00,-2.000000000000000000e+00,-1.000000000000000000e+00,-2.000000000000000000e+00,3.854980468750000000e-01,1.273803710937500000e-01,-9.076538085937500000e-01,-1.064453125000000000e-01
-2.200000000000000000e+01,-5.000000000000000000e+00,-3.600000000000000000e+01,-3.300000000000000000e+01,-5.000000000000000000e+00,1.000000000000000000e+00,4.000000000000000000e+00,-2.000000000000000000e+00,3.854980468750000000e-01,1.273803710937500000e-01,-9.076538085937500000e-01,-1.064453125000000000e-01
2.000000000000000000e+00,1.000000000000000000e+01,6.500000000000000000e+01,2.300000000000000000e+01,5.000000000000000000e+00,5.000000000000000000e+00,-1.100000000000000000e+01,-1.000000000000000000e+00,3.854980468750000000e-01,1.273803710937500000e-01,-9.076538085937500000e-01,-1.064453125000000000e-01
1.000000000000000000e+00,-5.000000000000000000e+00,-6.400000000000000000e+01,-6.000000000000000000e+00,1.000000000000000000e+00,-1.000000000000000000e+00,-4.000000000000000000e+00,-2.000000000000000000e+00,3.854980468750000000e-01,1.273803710937500000e-01,-9.076538085937500000e-01,-1.064453125000000000e-01
-1.800000000000000000e+01,-1.900000000000000000e+01,1.100000000000000000e+01,6.000000000000000000e+00,-1.400000000000000000e+01,-7.000000000000000000e+00,-1.000000000000000000e+00,-5.000000000000000000e+00,3.854980468750000000e-01,1.258544921875000000e-01,-9.079589843750000000e-01,-1.058349609375000000e-01
2.000000000000000000e+00,-4.000000000000000000e+00,-3.000000000000000000e+00,-8.000000000000000000e+00,2.000000000000000000e+00,2.000000000000000000e+00,3.000000000000000000e+00,2.000000000000000000e+00,3.854980468750000000e-01,1.258544921875000000e-01,-9.079589843750000000e-01,-1.058349609375000000e-01
4.000000000000000000e+00,-4.000000000000000000e+00,4.000000000000000000e+00,-2.000000000000000000e+00,2.000000000000000000e+00,-1.000000000000000000e+00,-3.000000000000000000e+00,5.000000000000000000e+00,3.854980468750000000e-01,1.258544921875000000e-01,-9.079589843750000000e-01,-1.058349609375000000e-01
0.000000000000000000e+00,7.000000000000000000e+00,1.500000000000000000e+01,3.000000000000000000e+00,4.000000000000000000e+00,1.000000000000000000e+00,6.000000000000000000e+00,1.000000000000000000e+00,3.854980468750000000e-01,1.258544921875000000e-01,-9.079589843750000000e-01,-1.058349609375000000e-01
-1.000000000000000000e+00,1.100000000000000000e+01,-5.000000000000000000e+00,-7.000000000000000000e+00,-1.200000000000000000e+01,-5.000000000000000000e+00,-3.000000000000000000e+00,-1.000000000000000000e+00,3.856201171875000000e-01,1.239013671875000000e-01,-9.082641601562500000e-01,-1.051635742187500000e-01
7.000000000000000000e+00,-9.000000000000000000e+00,-7.000000000000000000e+00,1.000000000000000000e+00,-2.000000000000000000e+00,-3.000000000000000000e+00,-5.000000000000000000e+00,-3.000000000000000000e+00,3.856201171875000000e-01,1.239013671875000000e-01,-9.082641601562500000e-01,-1.051635742187500000e-01
-1.000000000000000000e+01,3.000000000000000000e+00,-9.000000000000000000e+00,-3.000000000000000000e+00,-3.000000000000000000e+00,-5.000000000000000000e+00,-6.000000000000000000e+00,-2.000000000000000000e+00,3.856201171875000000e-01,1.239013671875000000e-01,-9.082641601562500000e-01,-1.051635742187500000e-01
6.000000000000000000e+00,1.000000000000000000e+00,1.100000000000000000e+01,-2.000000000000000000e+00,6.000000000000000000e+00,1.000000000000000000e+00,-2.000000000000000000e+00,-2.000000000000000000e+00,3.856201171875000000e-01,1.239013671875000000e-01,-9.082641601562500000e-01,-1.051635742187500000e-01
-1.000000000000000000e+00,-7.000000000000000000e+00,-1.500000000000000000e+01,-5.000000000000000000e+00,4.000000000000000000e+00,2.000000000000000000e+00,1.000000000000000000e+00,-2.000000000000000000e+00,3.858032226562500000e-01,1.222534179687500000e-01,-9.084472656250000000e-01,-1.046752929687500000e-01
-9.000000000000000000e+00,1.400000000000000000e+01,2.200000000000000000e+01,9.000000000000000000e+00,-1.000000000000000000e+00,0.000000000000000000e+00,5.000000000000000000e+00,0.000000000000000000e+00,3.858032226562500000e-01,1.222534179687500000e-01,-9.084472656250000000e-01,-1.046752929687500000e-01
-7.000000000000000000e+00,-1.700000000000000000e+01,-1.200000000000000000e+01,-1.600000000000000000e+01,-3.000000000000000000e+00,-4.000000000000000000e+00,-2.000000000000000000e+00,-4.000000000000000000e+00,3.858032226562500000e-01,1.222534179687500000e-01,-9.084472656250000000e-01,-1.046752929687500000e-01
-6.000000000000000000e+00,-1.100000000000000000e+01,-8.000000000000000000e+00,-3.000000000000000000e+00,-8.000000000000000000e+00,-7.000000000000000000e+00,-7.000000000000000000e+00,-3.000000000000000000e+00,3.858032226562500000e-01,1.222534179687500000e-01,-9.084472656250000000e-01,-1.046752929687500000e-01
-4.000000000000000000e+00,4.000000000000000000e+00,-3.000000000000000000e+00,-4.000000000000000000e+00,2.000000000000000000e+00,5.000000000000000000e+00,-3.000000000000000000e+00,2.000000000000000000e+00,3.860473632812500000e-01,1.203002929687500000e-01,-9.085693359375000000e-01,-1.048583984375000000e-01
7.000000000000000000e+00,5.000000000000000000e+00,-3.000000000000000000e+00,1.100000000000000000e+01,3.000000000000000000e+00,2.000000000000000000e+00,3.000000000000000000e+00,4.000000000000000000e+00,3.860473632812500000e-01,1.203002929687500000e-01,-9.085693359375000000e-01,-1.048583984375000000e-01
1.200000000000000000e+01,1.700000000000000000e+01,5.000000000000000000e+00,2.000000000000000000e+00,0.000000000000000000e+00,0.000000000000000000e+00,-2.000000000000000000e+00,4.000000000000000000e+00,3.860473632812500000e-01,1.203002929687500000e-01,-9.085693359375000000e-01,-1.048583984375000000e-01
-1.600000000000000000e+01,-1.200000000000000000e+01,-1.100000000000000000e+01,-1.000000000000000000e+01,6.000000000000000000e+00,-1.000000000000000000e+00,3.000000000000000000e+00,-3.000000000000000000e+00,3.860473632812500000e-01,1.203002929687500000e-01,-9.085693359375000000e-01,-1.048583984375000000e-01
-3.000000000000000000e+00,0.000000000000000000e+00,-1.100000000000000000e+01,-6.000000000000000000e+00,-1.000000000000000000e+00,-3.000000000000000000e+00,-5.000000000000000000e+00,-4.000000000000000000e+00,3.865356445312500000e-01,1.187744140625000000e-01,-9.085083007812500000e-01,-1.054687500000000000e-01
-9.000000000000000000e+00,-9.000000000000000000e+00,3.000000000000000000e+00,2.000000000000000000e+00,-1.000000000000000000e+00,0.000000000000000000e+00,1.000000000000000000e+00,-2.000000000000000000e+00,3.865356445312500000e-01,1.187744140625000000e-01,-9.085083007812500000e-01,-1.054687500000000000e-01
7.000000000000000000e+00,-6.000000000000000000e+00,1.000000000000000000e+00,1.000000000000000000e+00,-5.000000000000000000e+00,0.000000000000000000e+00,-1.000000000000000000e+00,-1.000000000000000000e+00,3.865356445312500000e-01,1.187744140625000000e-01,-9.085083007812500000e-01,-1.054687500000000000e-01
8.000000000000000000e+00,1.000000000000000000e+00,1.100000000000000000e+01,-2.000000000000000000e+00,7.000000000000000000e+00,-2.000000000000000000e+00,-3.000000000000000000e+00,-1.000000000000000000e+00,3.865356445312500000e-01,1.187744140625000000e-01,-9.085083007812500000e-01,-1.054687500000000000e-01
0.000000000000000000e+00,3.000000000000000000e+00,-3.000000000000000000e+00,-1.000000000000000000e+00,2.000000000000000000e+00,-4.000000000000000000e+00,3.000000000000000000e+00,-1.000000000000000000e+00,3.869018554687500000e-01,1.179199218750000000e-01,-9.083862304687500000e-01,-1.061401367187500000e-01
4.000000000000000000e+00,1.000000000000000000e+00,-1.200000000000000000e+01,-6.000000000000000000e+00,-2.000000000000000000e+00,1.000000000000000000e+00,3.000000000000000000e+00,-2.000000000000000000e+00,3.869018554687500000e-01,1.179199218750000000e-01,-9.083862304687500000e-01,-1.061401367187500000e-01
2.000000000000000000e+00,2.000000000000000000e+00,-8.000000000000000000e+00,-8.000000000000000000e+00,-8.000000000000000000e+00,-2.000000000000000000e+00,-2.000000000000000000e+00,-1.000000000000000000e+00,3.869018554687500000e-01,1.179199218750000000e-01,-9.083862304687500000e-01,-1.061401367187500000e-01
3.000000000000000000e+00,1.200000000000000000e+01,1.500000000000000000e+01,1.100000000000000000e+01,4.000000000000000000e+00,0.000000000000000000e+00,2.000000000000000000e+00,2.000000000000000000e+00,3.869018554687500000e-01,1.179199218750000000e-01,-9.083862304687500000e-01,-1.061401367187500000e-01
-1.600000000000000000e+01,-1.400000000000000000e+01,8.000000000000000000e+00,-5.000000000000000000e+00,-1.000000000000000000e+00,-3.000000000000000000e+00,-4.000000000000000000e+00,-3.000000000000000000e+00,3.868408203125000000e-01,1.170043945312500000e-01,-9.084472656250000000e-01,-1.069946289062500000e-01
4.000000000000000000e+00,-3.000000000000000000e+00,5.000000000000000000e+00,-1.000000000000000000e+00,-2.000000000000000000e+00,0.000000000000000000e+00,2.000000000000000000e+00,1.000000000000000000e+00,3.868408203125000000e-01,1.170043945312500000e-01,-9.084472656250000000e-01,-1.069946289062500000e-01
-6.000000000000000000e+00,-4.000000000000000000e+00,-6.000000000000000000e+00,3.000000000000000000e+00,1.000000000000000000e+00,-1.000000000000000000e+00,0.000000000000000000e+00,0.000000000000000000e+00,3.868408203125000000e-01,1.170043945312500000e-01,-9.084472656250000000e-01,-1.069946289062500000e-01
1.300000000000000000e+01,1.100000000000000000e+01,1.200000000000000000e+01,-3.000000000000000000e+00,-5.000000000000000000e+00,2.000000000000000000e+00,0.000000000000000000e+00,2.000000000000000000e+00,3.868408203125000000e-01,1.170043945312500000e-01,-9.084472656250000000e-01,-1.069946289062500000e-01
1.000000000000000000e+00,0.000000000000000000e+00,-2.000000000000000000e+00,3.000000000000000000e+00,2.000000000000000000e+00,1.000000000000000000e+00,4.000000000000000000e+00,2.000000000000000000e+00,3.865356445312500000e-01,1.156616210937500000e-01,-9.086303710937500000e-01,-1.080322265625000000e-01
-6.000000000000000000e+00,-2.000000000000000000e+00,-2.000000000000000000e+00,-2.000000000000000000e+00,0.000000000000000000e+00,-1.000000000000000000e+00,-4.000000000000000000e+00,-2.000000000000000000e+00,3.865356445312500000e-01,1.156616210937500000e-01,-9.086303710937500000e-01,-1.080322265625000000e-01
1.100000000000000000e+01,1.500000000000000000e+01,2.000000000000000000e+00,5.000000000000000000e+00,-6.000000000000000000e+00,-1.000000000000000000e+00,2.000000000000000000e+00,5.000000000000000000e+00,3.865356445312500000e-01,1.156616210937500000e-01,-9.086303710937500000e-01,-1.080322265625000000e-01
-4.000000000000000000e+00,-1.100000000000000000e+01,4.000000000000000000e+00,3.000000000000000000e+00,5.000000000000000000e+00,3.000000000000000000e+00,-3.000000000000000000e+00,6.000000000000000000e+00,3.865356445312500000e-01,1.156616210937500000e-01,-9.086303710937500000e-01,-1.080322265625000000e-01
-2.500000000000000000e+01,-1.900000000000000000e+01,-8.000000000000000000e+00,-1.000000000000000000e+00,-2.000000000000000000e+00,0.000000000000000000e+00,-3.000000000000000000e+00,-3.000000000000000000e+00,3.864135742187500000e-01,1.133422851562500000e-01,-9.088745117187500000e-01,-1.089477539062500000e-01
-2.000000000000000000e+00,-8.000000000000000000e+00,-3.000000000000000000e+00,3.000000000000000000e+00,0.000000000000000000e+00,-3.000000000000000000e+00,-5.000000000000000000e+00,-1.000000000000000000e+00,3.864135742187500000e-01,1.133422851562500000e-01,-9.088745117187500000e-01,-1.089477539062500000e-01
-6.000000000000000000e+00,4.000000000000000000e+00,-6.000000000000000000e+00,-1.100000000000000000e+01,-7.000000000000000000e+00,0.000000000000000000e+00,-1.000000000000000000e+00,-2.000000000000000000e+00,3.864135742187500000e-01,1.133422851562500000e-01,-9.088745117187500000e-01,-1.089477539062500000e-01
1.000000000000000000e+01,1.500000000000000000e+01,2.000000000000000000e+00,-3.000000000000000000e+00,-6.000000000000000000e+00,-2.000000000000000000e+00,2.000000000000000000e+00,2.000000000000000000e+00,3.864135742187500000e-01,1.133422851562500000e-01,-9.088745117187500000e-01,-1.089477539062500000e-01
1.100000000000000000e+01,-8.000000000000000000e+00,-5.000000000000000000e+00,3.000000000000000000e+00,1.000000000000000000e+00,-1.000000000000000000e+00,-1.000000000000000000e+00,2.000000000000000000e+00,3.865966796875000000e-01,1.105346679687500000e-01,-9.090576171875000000e-01,-1.095581054687500000e-01
-1.600000000000000000e+01,-5.000000000000000000e+00,6.000000000000000000e+00,-5.000000000000000000e+00,-2.000000000000000000e+00,-1.000000000000000000e+00,5.000000000000000000e+00,0.000000000000000000e+00,3.865966796875000000e-01,1.105346679687500000e-01,-9.090576171875000000e-01,-1.095581054687500000e-01
-4.000000000000000000e+00,-1.900000000000000000e+01,-4.000000000000000000e+00,2.000000000000000000e+00,3.000000000000000000e+00,-6.000000000000000000e+00,-3.000000000000000000e+00,-7.000000000000000000e+00,3.865966796875000000e-01,1.105346679687500000e-01,-9.090576171875000000e-01,-1.095581054687500000e-01
-6.000000000000000000e+00,-6.000000000000000000e+00,-1.000000000000000000e+00,-3.000000000000000000e+00,-1.100000000000000000e+01,-6.000000000000000000e+00,-6.000000000000000000e+00,-4.000000000000000000e+00,3.865966796875000000e-01,1.105346679687500000e-01,-9.090576171875000000e-01,-1.095581054687500000e-01
5.000000000000000000e+00,1.300000000000000000e+01,2.700000000000000000e+01,4.000000000000000000e+00,1.300000000000000000e+01,6.000000000000000000e+00,2.000000000000000000e+00,0.000000000000000000e+00,3.869018554687500000e-01,1.068725585937500000e-01,-9.093017578125000000e-01,-1.101684570312500000e-01
2.000000000000000000e+00,-8.000000000000000000e+00,-5.700000000000000000e+01,-2.000000000000000000e+01,-8.000000000000000000e+00,-4.000000000000000000e+00,-4.000000000000000000e+00,-6.000000000000000000e+00,3.869018554687500000e-01,1.068725585937500000e-01,-9.093017578125000000e-01,-1.101684570312500000e-01
0.000000000000000000e+00,-5.000000000000000000e+00,1.700000000000000000e+01,-9.000000000000000000e+00,0.000000000000000000e+00,0.000000000000000000e+00,-5.000000000000000000e+00,-4.000000000000000000e+00,3.869018554687500000e-01,1.068725585937500000e-01,-9.093017578125000000e-01,-1.101684570312500000e-01
-1.100000000000000000e+01,-9.000000000000000000e+00,1.600000000000000000e+01,0.000000000000000000e+00,-9.000000000000000000e+00,-6.000000000000000000e+00,-5.000000000000000000e+00,-1.000000000000000000e+00,3.869018554687500000e-01,1.068725585937500000e-01,-9.093017578125000000e-01,-1.101684570312500000e-01
-1.000000000000000000e+00,5.000000000000000000e+00,-5.000000000000000000e+01,-1.200000000000000000e+01,-5.000000000000000000e+00,1.000000000000000000e+00,1.000000000000000000e+00,1.000000000000000000e+00,3.872680664062500000e-01,1.028442382812500000e-01,-9.095458984375000000e-01,-1.107788085937500000e-01
1.300000000000000000e+01,9.000000000000000000e+00,8.000000000000000000e+00,8.000000000000000000e+00,6.000000000000000000e+00,2.000000000000000000e+00,6.000000000000000000e+00,2.000000000000000000e+00,3.872680664062500000e-01,1.028442382812500000e-01,-9.095458984375000000e-01,-1.107788085937500000e-01
-2.000000000000000000e+00,7.000000000000000000e+00,-2.300000000000000000e+01,2.000000000000000000e+00,6.000000000000000000e+00,-2.000000000000000000e+00,5.000000000000000000e+00,2.000000000000000000e+00,3.872680664062500000e-01,1.028442382812500000e-01,-9.095458984375000000e-01,-1.107788085937500000e-01
-1.100000000000000000e+01,-7.000000000000000000e+00,3.100000000000000000e+01,-1.000000000000000000e+01,-5.000000000000000000e+00,-3.000000000000000000e+00,-5.000000000000000000e+00,-5.000000000000000000e+00,3.872680664062500000e-01,1.028442382812500000e-01,-9.095458984375000000e-01,-1.107788085937500000e-01
2.000000000000000000e+00,1.000000000000000000e+00,1.800000000000000000e+01,6.000000000000000000e+00,-6.000000000000000000e+00,-3.000000000000000000e+00,4.000000000000000000e+00,-3.000000000000000000e+00,3.872680664062500000e-01,9.838867187500000000e-02,-9.098510742187500000e-01,-1.117553710937500000e-01
1.200000000000000000e+01,9.000000000000000000e+00,1.600000000000000000e+01,6.000000000000000000e+00,4.000000000000000000e+00,-2.000000000000000000e+00,-5.000000000000000000e+00,2.000000000000000000e+00,3.872680664062500000e-01,9.838867187500000000e-02,-9.098510742187500000e-01,-1.117553710937500000e-01
-3.000000000000000000e+00,-1.000000000000000000e+01,-1.600000000000000000e+01,1.000000000000000000e+00,0.000000000000000000e+00,-2.000000000000000000e+00,-5.000000000000000000e+00,-2.000000000000000000e+00,3.872680664062500000e-01,9.838867187500000000e-02,-9.098510742187500000e-01,-1.117553710937500000e-01
3.000000000000000000e+00,2.000000000000000000e+00,1.000000000000000000e+00,7.000000000000000000e+00,3.000000000000000000e+00,3.000000000000000000e+00,-3.000000000000000000e+00,2.000000000000000000e+00,3.872680664062500000e-01,9.838867187500000000e-02,-9.098510742187500000e-01,-1.117553710937500000e-01
1.300000000000000000e+01,8.000000000000000000e+00,2.000000000000000000e+00,1.000000000000000000e+00,-6.000000000000000000e+00,-1.000000000000000000e+00,0.000000000000000000e+00,0.000000000000000000e+00,3.871459960937500000e-01,9.503173828125000000e-02,-9.101562500000000000e-01,-1.128540039062500000e-01
-4.100000000000000000e+01,-2.700000000000000000e+01,-2.000000000000000000e+00,-1.200000000000000000e+01,-1.500000000000000000e+01,-8.000000000000000000e+00,-7.000000000000000000e+00,-5.000000000000000000e+00,3.871459960937500000e-01,9.503173828125000000e-02,-9.101562500000000000e-01,-1.128540039062500000e-01
4.000000000000000000e+00,1.200000000000000000e+01,1.800000000000000000e+01,1.000000000000000000e+01,5.000000000000000000e+00,2.000000000000000000e+00,9.000000000000000000e+00,1.000000000000000000e+00,3.871459960937500000e-01,9.503173828125000000e-02,-9.101562500000000000e-01,-1.128540039062500000e-01
5.000000000000000000e+00,-6.000000000000000000e+00,-2.200000000000000000e+01,-1.200000000000000000e+01,-5.000000000000000000e+00,-1.000000000000000000e+00,5.000000000000000000e+00,0.000000000000000000e+00,3.871459960937500000e-01,9.503173828125000000e-02,-9.101562500000000000e-01,-1.128540039062500000e-01
-5.000000000000000000e+00,-8.000000000000000000e+00,-4.000000000000000000e+00,-4.000000000000000000e+00,0.000000000000000000e+00,-3.000000000000000000e+00,-4.000000000000000000e+00,-2.000000000000000000e+00,3.870849609375000000e-01,9.234619140625000000e-02,-9.102783203125000000e-01,-1.141967773437500000e-01
9.000000000000000000e+00,1.600000000000000000e+01,7.000000000000000000e+00,6.000000000000000000e+00,1.000000000000000000e+00,-1.000000000000000000e+00,-1.000000000000000000e+00,2.000000000000000000e+00,3.870849609375000000e-01,9.234619140625000000e-02,-9.102783203125000000e-01,-1.141967773437500000e-01
1.400000000000000000e+01,1.100000000000000000e+01,-2.000000000000000000e+00,-1.000000000000000000e+00,-5.000000000000000000e+00,-1.000000000000000000e+00,-6.000000000000000000e+00,1.000000000000000000e+00,3.870849609375000000e-01,9.234619140625000000e-02,-9.102783203125000000e-01,-1.141967773437500000e-01
-3.000000000000000000e+01,-2.200000000000000000e+01,-1.000000000000000000e+01,-5.000000000000000000e+00,1.000000000000000000e+00,-1.000000000000000000e+00,-4.000000000000000000e+00,-1.000000000000000000e+00,3.870849609375000000e-01,9.234619140625000000e-02,-9.102783203125000000e-01,-1.141967773437500000e-01
4.000000000000000000e+00,-2.200000000000000000e+01,8.000000000000000000e+00,2.000000000000000000e+00,-3.000000000000000000e+00,4.000000000000000000e+00,3.000000000000000000e+00,-2.000000000000000000e+00,3.874511718750000000e-01,9.039306640625000000e-02,-9.101562500000000000e-01,-1.154174804687500000e-01
-2.000000000000000000e+00,1.200000000000000000e+01,2.800000000000000000e+01,1.100000000000000000e+01,-1.000000000000000000e+00,-2.000000000000000000e+00,-5.000000000000000000e+00,-1.000000000000000000e+00,3.874511718750000000e-01,9.039306640625000000e-02,-9.101562500000000000e-01,-1.154174804687500000e-01
-8.000000000000000000e+00,-1.700000000000000000e+01,-1.600000000000000000e+01,-1.000000000000000000e+01,1.000000000000000000e+00,3.000000000000000000e+00,6.000000000000000000e+00,-1.000000000000000000e+00,3.874511718750000000e-01,9.039306640625000000e-02,-9.101562500000000000e-01,-1.154174804687500000e-01
1.500000000000000000e+01,1.600000000000000000e+01,1.500000000000000000e+01,-2.000000000000000000e+00,-4.000000000000000000e+00,-6.000000000000000000e+00,-3.000000000000000000e+00,-2.000000000000000000e+00,3.874511718750000000e-01,9.039306640625000000e-02,-9.101562500000000000e-01,-1.154174804687500000e-01
-2.000000000000000000e+00,4.000000000000000000e+00,-5.000000000000000000e+00,8.000000000000000000e+00,4.000000000000000000e+00,4.000000000000000000e+00,-3.000000000000000000e+00,2.000000000000000000e+00,3.881225585937500000e-01,8.917236328125000000e-02,-9.098510742187500000e-01,-1.163940429687500000e-01
-1.000000000000000000e+00,-3.000000000000000000e+00,-1.000000000000000000e+01,-1.600000000000000000e+01,-3.000000000000000000e+00,0.000000000000000000e+00,5.000000000000000000e+00,-3.000000000000000000e+00,3.881225585937500000e-01,8.917236328125000000e-02,-9.098510742187500000e-01,-1.163940429687500000e-01
7.000000000000000000e+00,9.000000000000000000e+00,2.800000000000000000e+01,1.800000000000000000e+01,-2.000000000000000000e+00,-2.000000000000000000e+00,-6.000000000000000000e+00,-1.000000000000000000e+00,3.881225585937500000e-01,8.917236328125000000e-02,-9.098510742187500000e-01,-1.163940429687500000e-01
2.000000000000000000e+00,-6.000000000000000000e+00,-3.100000000000000000e+01,-1.100000000000000000e+01,3.000000000000000000e+00,4.000000000000000000e+00,-2.000000000000000000e+00,-1.000000000000000000e+00,3.881225585937500000e-01,8.917236328125000000e-02,-9.098510742187500000e-01,-1.163940429687500000e-01
-5.000000000000000000e+00,7.000000000000000000e+00,0.000000000000000000e+00,0.000000000000000000e+00,-2.000000000000000000e+00,-2.000000000000000000e+00,-1.000000000000000000e+00,-5.000000000000000000e+00,3.889160156250000000e-01,8.825683593750000000e-02,-9.095458984375000000e-01,-1.173706054687500000e-01
1.000000000000000000e+01,-9.000000000000000000e+00,2.000000000000000000e+00,3.000000000000000000e+00,2.000000000000000000e+00,-2.000000000000000000e+00,-3.000000000000000000e+00,-4.000000000000000000e+00,3.889160156250000000e-01,8.825683593750000000e-02,-9.095458984375000000e-01,-1.173706054687500000e-01
-9.000000000000000000e+00,-7.000000000000000000e+00,-1.900000000000000000e+01,-5.000000000000000000e+00,-3.000000000000000000e+00,-3.000000000000000000e+00,-4.000000000000000000e+00,-2.000000000000000000e+00,3.889160156250000000e-01,8.825683593750000000e-02,-9.095458984375000000e-01,-1.173706054687500000e-01
1.100000000000000000e+01,1.000000000000000000e+00,1.000000000000000000e+00,2.000000000000000000e+00,-3.000000000000000000e+00,-4.000000000000000000e+00,1.000000000000000000e+00,2.000000000000000000e+00,3.889160156250000000e-01,8.825683593750000000e-02,-9.095458984375000000e-01,-1.173706054687500000e-01
-2.100000000000000000e+01,-2.000000000000000000e+00,1.100000000000000000e+01,0.000000000000000000e+00,-4.000000000000000000e+00,-4.000000000000000000e+00,-6.000000000000000000e+00,0.000000000000000000e+00,3.895874023437500000e-01,8.776855468750000000e-02,-9.091796875000000000e-01,-1.179199218750000000e-01
2.000000000000000000e+00,4.000000000000000000e+00,-2.200000000000000000e+01,-1.000000000000000000e+00,2.000000000000000000e+00,5.000000000000000000e+00,4.000000000000000000e+00,1.000000000000000000e+00,3.895874023437500000e-01,8.776855468750000000e-02,-9.091796875000000000e-01,-1.179199218750000000e-01
1.000000000000000000e+00,-4.000000000000000000e+00,6.000000000000000000e+00,6.000000000000000000e+00,6.000000000000000000e+00,0.000000000000000000e+00,1.000000000000000000e+00,0.000000000000000000e+00,3.895874023437500000e-01,8.776855468750000000e-02,-9.091796875000000000e-01,-1.179199218750000000e-01
-8.000000000000000000e+00,9.000000000000000000e+00,-1.100000000000000000e+01,-2.000000000000000000e+00,-3.000000000000000000e+00,-3.000000000000000000e+00,-1.000000000000000000e+00,-1.000000000000000000e+00,3.895874023437500000e-01,8.776855468750000000e-02,-9.091796875000000000e-01,-1.179199218750000000e-01
2.000000000000000000e+00,2.000000000000000000e+00,7.000000000000000000e+00,-1.000000000000000000e+00,-2.000000000000000000e+00,-4.000000000000000000e+00,-2.000000000000000000e+00,-1.000000000000000000e+00,3.899536132812500000e-01,8.801269531250000000e-02,-9.089965820312500000e-01,-1.181030273437500000e-01
1.000000000000000000e+01,0.000000000000000000e+00,8.000000000000000000e+00,3.000000000000000000e+00,0.000000000000000000e+00,1.000000000000000000e+00,-1.000000000000000000e+00,3.000000000000000000e+00,3.899536132812500000e-01,8.801269531250000000e-02,-9.089965820312500000e-01,-1.181030273437500000e-01
0.000000000000000000e+00,5.000000000000000000e+00,2.000000000000000000e+00,-6.000000000000000000e+00,-1.000000000000000000e+00,-1.000000000000000000e+00,-3.000000000000000000e+00,-2.000000000000000000e+00,3.899536132812500000e-01,8.801269531250000000e-02,-9.089965820312500000e-01,-1.181030273437500000e-01
-5.000000000000000000e+00,-1.300000000000000000e+01,-1.300000000000000000e+01,8.000000000000000000e+00,1.000000000000000000e+00,-4.000000000000000000e+00,-2.000000000000000000e+00,-4.000000000000000000e+00,3.899536132812500000e-01,8.801269531250000000e-02,-9.089965820312500000e-01,-1.181030273437500000e-01
5.000000000000000000e+00,-7.000000000000000000e+00,3.000000000000000000e+00,-1.100000000000000000e+01,-4.000000000000000000e+00,3.000000000000000000e+00,2.000000000000000000e+00,-6.000000000000000000e+00,3.901367187500000000e-01,8.825683593750000000e-02,-9.089355468750000000e-01,-1.180419921875000000e-01
-5.000000000000000000e+00,4.000000000000000000e+00,4.000000000000000000e+00,1.100000000000000000e+01,-2.000000000000000000e+00,-5.000000000000000000e+00,-3.000000000000000000e+00,-4.000000000000000000e+00,3.901367187500000000e-01,8.825683593750000000e-02,-9.089355468750000000e-01,-1.180419921875000000e-01
-2.000000000000000000e+00,-7.000000000000000000e+00,-4.000000000000000000e+00,-7.000000000000000000e+00,2.000000000000000000e+00,4.000000000000000000e+00,-1.000000000000000000e+00,-3.000000000000000000e+00,3.901367187500000000e-01,8.825683593750000000e-02,-9.089355468750000000e-01,-1.180419921875000000e-01
-1.000000000000000000e+00,7.000000000000000000e+00,4.000000000000000000e+00,2.000000000000000000e+00,6.000000000000000000e+00,1.000000000000000000e+00,2.000000000000000000e+00,0.000000000000000000e+00,3.901367187500000000e-01,8.825683593750000000e-02,-9.089355468750000000e-01,-1.180419921875000000e-01
6.000000000000000000e+00,5.000000000000000000e+00,-2.000000000000000000e+01,-5.000000000000000000e+00,1.000000000000000000e+00,-2.000000000000000000e+00,-3.000000000000000000e+00,4.000000000000000000e+00,3.900756835937500000e-01,8.850097656250000000e-02,-9.089355468750000000e-01,-1.176147460937500000e-01
1.000000000000000000e+01,8.000000000000000000e+00,2.600000000000000000e+01,-3.000000000000000000e+00,-4.000000000000000000e+00,-1.000000000000000000e+00,0.000000000000000000e+00,1.000000000000000000e+00,3.900756835937500000e-01,8.850097656250000000e-02,-9.089355468750000000e-01,-1.176147460937500000e-01
1.000000000000000000e+00,-3.000000000000000000e+00,-1.900000000000000000e+01,0.000000000000000000e+00,-5.000000000000000000e+00,0.000000000000000000e+00,4.000000000000000000e+00,2.000000000000000000e+00,3.900756835937500000e-01,8.850097656250000000e-02,-9.089355468750000000e-01,-1.176147460937500000e-01
-5.000000000000000000e+00,-7.000000000000000000e+00,8.000000000000000000e+00,-1.000000000000000000e+00,-3.000000000000000000e+00,0.000000000000000000e+00,-1.000000000000000000e+00,-6.000000000000000000e+00,3.900756835937500000e-01,8.850097656250000000e-02,-9.089355468750000000e-01,-1.176147460937500000e-01
-5.000000000000000000e+00,-6.000000000000000000e+00,-1.200000000000000000e+01,-3.000000000000000000e+00,0.000000000000000000e+00,1.000000000000000000e+00,0.000000000000000000e+00,-1.000000000000000000e+00,3.898925781250000000e-01,8.923339843750000000e-02,-9.090576171875000000e-01,-1.170654296875000000e-01
1.000000000000000000e+00,0.000000000000000000e+00,2.000000000000000000e+00,1.000000000000000000e+00,-1.000000000000000000e+00,-1.000000000000000000e+00,-1.000000000000000000e+00,-1.000000000000000000e+00,3.898925781250000000e-01,8.923339843750000000e-02,-9.090576171875000000e-01,-1.170654296875000000e-01
-3.000000000000000000e+00,6.000000000000000000e+00,0.000000000000000000e+00,3.000000000000000000e+00,5.000000000000000000e+00,0.000000000000000000e+00,-1.000000000000000000e+00,3.000000000000000000e+00,3.898925781250000000e-01,8.923339843750000000e-02,-9.090576171875000000e-01,-1.170654296875000000e-01
6.000000000000000000e+00,-4.000000000000000000e+00,-3.000000000000000000e+00,0.000000000000000000e+00,-3.000000000000000000e+00,0.000000000000000000e+00,1.000000000000000000e+00,1.000000000000000000e+00,3.898925781250000000e-01,8.923339843750000000e-02,-9.090576171875000000e-01,-1.170654296875000000e-01
3.000000000000000000e+00,1.000000000000000000e+00,-6.000000000000000000e+00,0.000000000000000000e+00,-2.000000000000000000e+00,-3.000000000000000000e+00,-4.000000000000000000e+00,1.000000000000000000e+00,3.893432617187500000e-01,8.996582031250000000e-02,-9.093017578125000000e-01,-1.165161132812500000e-01
-1.000000000000000000e+00,-3.000000000000000000e+00,-1.100000000000000000e+01,-4.000000000000000000e+00,2.000000000000000000e+00,0.000000000000000000e+00,-1.000000000000000000e+00,1.000000000000000000e+00,3.893432617187500000e-01,8.996582031250000000e-02,-9.093017578125000000e-01,-1.165161132812500000e-01
-1.300000000000000000e+01,-8.000000000000000000e+00,2.000000000000000000e+00,-6.000000000000000000e+00,-5.000000000000000000e+00,-3.000000000000000000e+00,-3.000000000000000000e+00,-4.000000000000000000e+00,3.893432617187500000e-01,8.996582031250000000e-02,-9.093017578125000000e-01,-1.165161132812500000e-01
-5.000000000000000000e+00,5.000000000000000000e+00,-2.000000000000000000e+00,2.000000000000000000e+00,1.000000000000000000e+00,2.000000000000000000e+00,1.000000000000000000e+00,1.000000000000000000e+00,3.893432617187500000e-01,8.996582031250000000e-02,-9.093017578125000000e-01,-1.165161132812500000e-01
4.000000000000000000e+00,1.000000000000000000e+00,7.000000000000000000e+00,5.000000000000000000e+00,-3.000000000000000000e+00,-5.000000000000000000e+00,-1.000000000000000000e+00,-1.000000000000000000e+00,3.887329101562500000e-01,9.088134765625000000e-02,-9.095458984375000000e-01,-1.159057617187500000e-01
-2.000000000000000000e+00,-5.000000000000000000e+00,-1.500000000000000000e+01,-8.000000000000000000e+00,-1.000000000000000000e+00,0.000000000000000000e+00,-3.000000000000000000e+00,-2.000000000000000000e+00,3.887329101562500000e-01,9.088134765625000000e-02,-9.095458984375000000e-01,-1.159057617187500000e-01
-7.000000000000000000e+00,-7.000000000000000000e+00,4.000000000000000000e+00,-7.000000000000000000e+00,-2.000000000000000000e+00,-1.000000000000000000e+00,2.000000000000000000e+00,-1.000000000000000000e+00,3.887329101562500000e-01,9.088134765625000000e-02,-9.095458984375000000e-01,-1.159057617187500000e-01
8.000000000000000000e+00,-4.000000000000000000e+00,-6.000000000000000000e+00,4.000000000000000000e+00,4.000000000000000000e+00,3.000000000000000000e+00,0.000000000000000000e+00,1.000000000000000000e+00,3.887329101562500000e-01,9.088134765625000000e-02,-9.095458984375000000e-01,-1.159057617187500000e-01
-1.300000000000000000e+01,4.000000000000000000e+00,-4.000000000000000000e+00,3.000000000000000000e+00,-3.000000000000000000e+00,-2.000000000000000000e+00,-3.000000000000000000e+00,-1.000000000000000000e+00,3.884277343750000000e-01,9.228515625000000000e-02,-9.096069335937500000e-01,-1.151123046875000000e-01
-5.000000000000000000e+00,-7.000000000000000000e+00,2.000000000000000000e+00,0.000000000000000000e+00,1.000000000000000000e+00,-3.000000000000000000e+00,1.000000000000000000e+00,0.000000000000000000e+00,3.884277343750000000e-01,9.228515625000000000e-02,-9.096069335937500000e-01,-1.151123046875000000e-01
2.000000000000000000e+00,-5.000000000000000000e+00,-7.000000000000000000e+00,-4.000000000000000000e+00,-6.000000000000000000e+00,-3.000000000000000000e+00,-1.000000000000000000e+00,-3.000000000000000000e+00,3.884277343750000000e-01,9.228515625000000000e-02,-9.096069335937500000e-01,-1.151123046875000000e-01
1.200000000000000000e+01,1.300000000000000000e+01,5.000000000000000000e+00,-1.000000000000000000e+00,3.000000000000000000e+00,0.000000000000000000e+00,2.000000000000000000e+00,-2.000000000000000000e+00,3.884277343750000000e-01,9.228515625000000000e-02,-9.096069335937500000e-01,-1.151123046875000000e-01
5.000000000000000000e+00,0.000000000000000000e+00,-2.000000000000000000e+00,0.000000000000000000e+00,4.000000000000000000e+00,0.000000000000000000e+00,1.000000000000000000e+00,2.000000000000000000e+00,3.884277343750000000e-01,9.387207031250000000e-02,-9.095458984375000000e-01,-1.142578125000000000e-01
-1.500000000000000000e+01,-9.000000000000000000e+00,4.000000000000000000e+00,-7.000000000000000000e+00,-8.000000000000000000e+00,-2.000000000000000000e+00,-5.000000000000000000e+00,-5.000000000000000000e+00,3.884277343750000000e-01,9.387207031250000000e-02,-9.095458984375000000e-01,-1.142578125000000000e-01
-1.000000000000000000e+00,5.000000000000000000e+00,-2.500000000000000000e+01,5.000000000000000000e+00,2.000000000000000000e+00,-1.000000000000000000e+00,-6.000000000000000000e+00,-3.000000000000000000e+00,3.884277343750000000e-01,9.387207031250000000e-02,-9.095458984375000000e-01,-1.142578125000000000e-01
-1.000000000000000000e+00,-9.000000000000000000e+00,1.600000000000000000e+01,1.000000000000000000e+00,0.000000000000000000e+00,-3.000000000000000000e+00,2.000000000000000000e+00,0.000000000000000000e+00,3.884277343750000000e-01,9.387207031250000000e-02,-9.095458984375000000e-01,-1.142578125000000000e-01
-8.000000000000000000e+00,3.000000000000000000e+00,-5.000000000000000000e+00,2.000000000000000000e+00,2.000000000000000000e+00,-1.000000000000000000e+00,-3.000000000000000000e+00,-3.000000000000000000e+00,3.887939453125000000e-01,9.594726562500000000e-02,-9.092407226562500000e-01,-1.135864257812500000e-01
4.000000000000000000e+00,1.000000000000000000e+00,1.400000000000000000e+01,0.000000000000000000e+00,2.000000000000000000e+00,2.000000000000000000e+00,0.000000000000000000e+00,1.000000000000000000e+00,3.887939453125000000e-01,9.594726562500000000e-02,-9.092407226562500000e-01,-1.135864257812500000e-01
6.000000000000000000e+00,-2.000000000000000000e+00,2.000000000000000000e+00,-1.000000000000000000e+00,-5.000000000000000000e+00,-1.000000000000000000e+00,-2.000000000000000000e+00,1.000000000000000000e+00,3.887939453125000000e-01,9.594726562500000000e-02,-9.092407226562500000e-01,-1.135864257812500000e-01
-7.000000000000000000e+00,-4.000000000000000000e+00,-3.000000000000000000e+00,1.000000000000000000e+00,-1.000000000000000000e+00,-2.000000000000000000e+00,-8.000000000000000000e+00,-1.000000000000000000e+00,3.887939453125000000e-01,9.594726562500000000e-02,-9.092407226562500000e-01,-1.135864257812500000e-01
4.000000000000000000e+00,1.000000000000000000e+00,-2.000000000000000000e+00,-5.000000000000000000e+00,-1.000000000000000000e+00,4.000000000000000000e+00,2.000000000000000000e+00,-1.000000000000000000e+00,3.892211914062500000e-01,9.863281250000000000e-02,-9.088134765625000000e-01,-1.134033203125000000e-01
1.000000000000000000e+00,4.000000000000000000e+00,-4.000000000000000000e+00,5.000000000000000000e+00,-4.000000000000000000e+00,-2.000000000000000000e+00,2.000000000000000000e+00,2.000000000000000000e+00,3.892211914062500000e-01,9.863281250000000000e-02,-9.088134765625000000e-01,-1.134033203125000000e-01
-8.000000000000000000e+00,1.000000000000000000e+00,1.000000000000000000e+00,0.000000000000000000e+00,1.000000000000000000e+00,-3.000000000000000000e+00,1.000000000000000000e+00,-2.000000000000000000e+00,3.892211914062500000e-01,9.863281250000000000e-02,-9.088134765625000000e-01,-1.134033203125000000e-01
8.000000000000000000e+00,1.100000000000000000e+01,2.000000000000000000e+00,-2.000000000000000000e+00,1.000000000000000000e+00,-4.000000000000000000e+00,0.000000000000000000e+00,2.000000000000000000e+00,3.892211914062500000e-01,9.863281250000000000e-02,-9.088134765625000000e-01,-1.134033203125000000e-01
-7.000000000000000000e+00,-1.100000000000000000e+01,3.000000000000000000e+00,-7.000000000000000000e+00,-9.000000000000000000e+00,-6.000000000000000000e+00,1.000000000000000000e+00,-2.000000000000000000e+00,3.895874023437500000e-01,1.018066406250000000e-01,-9.082641601562500000e-01,-1.136474609375000000e-01
-1.000000000000000000e+00,-7.000000000000000000e+00,-1.300000000000000000e+01,-1.000000000000000000e+00,-3.000000000000000000e+00,-2.000000000000000000e+00,-2.000000000000000000e+00,-2.000000000000000000e+00,3.895874023437500000e-01,1.018066406250000000e-01,-9.082641601562500000e-01,-1.136474609375000000e-01
1.000000000000000000e+00,0.000000000000000000e+00,8.000000000000000000e+00,-1.000000000000000000e+00,2.000000000000000000e+00,1.000000000000000000e+00,1.000000000000000000e+00,-1.000000000000000000e+00,3.895874023437500000e-01,1.018066406250000000e-01,-9.082641601562500000e-01,-1.136474609375000000e-01
-9.000000000000000000e+00,-2.000000000000000000e+00,-5.000000000000000000e+00,-4.000000000000000000e+00,-3.000000000000000000e+00,0.000000000000000000e+00,2.000000000000000000e+00,-1.000000000000000000e+00,3.895874023437500000e-01,1.018066406250000000e-01,-9.082641601562500000e-01,-1.136474609375000000e-01
6.000000000000000000e+00,4.000000000000000000e+00,6.000000000000000000e+00,5.000000000000000000e+00,3.000000000000000000e+00,2.000000000000000000e+00,-4.000000000000000000e+00,-1.000000000000000000e+00,3.898315429687500000e-01,1.054077148437500000e-01,-9.077148437500000000e-01,-1.139526367187500000e-01
-1.000000000000000000e+00,0.000000000000000000e+00,-4.000000000000000000e+00,-3.000000000000000000e+00,-2.000000000000000000e+00,-2.000000000000000000e+00,1.000000000000000000e+00,2.000000000000000000e+00,3.898315429687500000e-01,1.054077148437500000e-01,-9.077148437500000000e-01,-1.139526367187500000e-01
-5.000000000000000000e+00,-5.000000000000000000e+00,-2.000000000000000000e+00,-2.000000000000000000e+00,0.000000000000000000e+00,1.000000000000000000e+00,0.000000000000000000e+00,-3.000000000000000000e+00,3.898315429687500000e-01,1.054077148437500000e-01,-9.077148437500000000e-01,-1.139526367187500000e-01
1.000000000000000000e+00,0.000000000000000000e+00,3.000000000000000000e+00,-2.000000000000000000e+00,-1.000000000000000000e+00,0.000000000000000000e+00,-3.000000000000000000e+00,-5.000000000000000000e+00,3.898315429687500000e-01,1.054077148437500000e-01,-9.077148437500000000e-01,-1.139526367187500000e-01
4.000000000000000000e+00,1.400000000000000000e+01,2.000000000000000000e+00,-2.000000000000000000e+00,-7.000000000000000000e+00,-3.000000000000000000e+00,-2.000000000000000000e+00,1.000000000000000000e+00,3.897705078125000000e-01,1.090087890625000000e-01,-9.072875976562500000e-01,-1.143188476562500000e-01
1.200000000000000000e+01,-3.000000000000000000e+00,1.000000000000000000e+00,1.300000000000000000e+01,1.100000000000000000e+01,5.000000000000000000e+00,5.000000000000000000e+00,1.000000000000000000e+00,3.897705078125000000e-01,1.090087890625000000e-01,-9.072875976562500000e-01,-1.143188476562500000e-01
-7.000000000000000000e+00,-1.700000000000000000e+01,-2.600000000000000000e+01,-5.000000000000000000e+00,0.000000000000000000e+00,-1.000000000000000000e+00,-3.000000000000000000e+00,-3.000000000000000000e+00,3.897705078125000000e-01,1.090087890625000000e-01,-9.072875976562500000e-01,-1.143188476562500000e-01
-1.600000000000000000e+01,-1.600000000000000000e+01,3.000000000000000000e+00,-1.100000000000000000e+01,-6.000000000000000000e+00,0.000000000000000000e+00,8.000000000000000000e+00,-4.000000000000000000e+00,3.897705078125000000e-01,1.090087890625000000e-01,-9.072875976562500000e-01,-1.143188476562500000e-01
-1.000000000000000000e+00,-7.000000000000000000e+00,-1.800000000000000000e+01,-1.100000000000000000e+01,-4.000000000000000000e+00,-6.000000000000000000e+00,-2.000000000000000000e+00,-3.000000000000000000e+00,3.893432617187500000e-01,1.124267578125000000e-01,-9.070434570312500000e-01,-1.143798828125000000e-01
4.000000000000000000e+00,3.000000000000000000e+00,1.000000000000000000e+00,-1.000000000000000000e+00,-1.000000000000000000e+00,-4.000000000000000000e+00,-4.000000000000000000e+00,0.000000000000000000e+00,3.893432617187500000e-01,1.124267578125000000e-01,-9.070434570312500000e-01,-1.143798828125000000e-01
9.000000000000000000e+00,7.000000000000000000e+00,1.200000000000000000e+01,2.000000000000000000e+00,-1.000000000000000000e+00,-4.000000000000000000e+00,-2.000000000000000000e+00,7.000000000000000000e+00,3.893432617187500000e-01,1.124267578125000000e-01,-9.070434570312500000e-01,-1.143798828125000000e-01
-1.000000000000000000e+00,3.000000000000000000e+00,-9.000000000000000000e+00,-6.000000000000000000e+00,-6.000000000000000000e+00,1.000000000000000000e+00,-2.000000000000000000e+00,2.000000000000000000e+00,3.893432617187500000e-01,1.124267578125000000e-01,-9.070434570312500000e-01,-1.143798828125000000e-01
0.000000000000000000e+00,3.000000000000000000e+00,-2.000000000000000000e+00,9.000000000000000000e+00,2.000000000000000000e+00,-1.000000000000000000e+00,-2.000000000000000000e+00,-1.000000000000000000e+00,3.881835937500000000e-01,1.160278320312500000e-01,-9.071044921875000000e-01,-1.141357421875000000e-01
-2.000000000000000000e+00,3.000000000000000000e+00,3.000000000000000000e+00,-4.000000000000000000e+00,8.000000000000000000e+00,2.000000000000000000e+00,1.000000000000000000e+00,-1.000000000000000000e+00,3.881835937500000000e-01,1.160278320312500000e-01,-9.071044921875000000e-01,-1.141357421875000000e-01
-5.000000000000000000e+00,4.000000000000000000e+00,8.000000000000000000e+00,-4.000000000000000000e+00,0.000000000000000000e+00,0.000000000000000000e+00,-4.000000000000000000e+00,-2.000000000000000000e+00,3.881835937500000000e-01,1.160278320312500000e-01,-9.071044921875000000e-01,-1.141357421875000000e-01
9.000000000000000000e+00,1.400000000000000000e+01,-1.300000000000000000e+01,-4.000000000000000000e+00,-8.000000000000000000e+00,-1.000000000000000000e+00,2.000000000000000000e+00,0.000000000000000000e+00,3.881835937500000000e-01,1.160278320312500000e-01,-9.071044921875000000e-01,-1.141357421875000000e-01
-3.000000000000000000e+00,-7.000000000000000000e+00,-1.400000000000000000e+01,9.000000000000000000e+00,5.000000000000000000e+00,1.000000000000000000e+00,3.000000000000000000e+00,2.000000000000000000e+00,3.862304687500000000e-01,1.196899414062500000e-01,-9.074707031250000000e-01,-1.139526367187500000e-01
-1.600000000000000000e+01,-2.700000000000000000e+01,3.200000000000000000e+01,-1.000000000000000000e+01,-1.200000000000000000e+01,-4.000000000000000000e+00,-2.000000000000000000e+00,-3.000000000000000000e+00,3.862304687500000000e-01,1.196899414062500000e-01,-9.074707031250000000e-01,-1.139526367187500000e-01
0.000000000000000000e+00,-1.600000000000000000e+01,-8.000000000000000000e+00,-6.000000000000000000e+00,-8.000000000000000000e+00,-5.000000000000000000e+00,-1.100000000000000000e+01,-7.000000000000000000e+00,3.862304687500000000e-01,1.196899414062500000e-01,-9.074707031250000000e-01,-1.139526367187500000e-01
-6.000000000000000000e+00,-6.000000000000000000e+00,6.000000000000000000e+00,-6.000000000000000000e+00,2.000000000000000000e+00,2.000000000000000000e+00,-1.000000000000000000e+00,0.000000000000000000e+00,3.862304687500000000e-01,1.196899414062500000e-01,-9.074707031250000000e-01,-1.139526367187500000e-01
1.400000000000000000e+01,1.200000000000000000e+01,5.000000000000000000e+00,-7.000000000000000000e+00,-2.000000000000000000e+00,-1.000000000000000000e+00,-2.000000000000000000e+00,0.000000000000000000e+00,3.837890625000000000e-01,1.241455078125000000e-01,-9.078979492187500000e-01,-1.138916015625000000e-01
0.000000000000000000e+00,1.200000000000000000e+01,-1.000000000000000000e+01,1.900000000000000000e+01,1.300000000000000000e+01,3.000000000000000000e+00,4.000000000000000000e+00,2.000000000000000000e+00,3.837890625000000000e-01,1.241455078125000000e-01,-9.078979492187500000e-01,-1.138916015625000000e-01
-5.000000000000000000e+00,-2.000000000000000000e+00,1.000000000000000000e+00,-3.000000000000000000e+00,-4.000000000000000000e+00,0.000000000000000000e+00,4.000000000000000000e+00,1.000000000000000000e+00,3.837890625000000000e-01,1.241455078125000000e-01,-9.078979492187500000e-01,-1.138916015625000000e-01
8.000000000000000000e+00,7.000000000000000000e+00,-4.000000000000000000e+00,1.000000000000000000e+00,0.000000000000000000e+00,-7.000000000000000000e+00,-1.200000000000000000e+01,-1.000000000000000000e+00,3.837890625000000000e-01,1.241455078125000000e-01,-9.078979492187500000e-01,-1.138916015625000000e-01
-4.000000000000000000e+00,-1.400000000000000000e+01,2.000000000000000000e+00,-9.000000000000000000e+00,-5.000000000000000000e+00,0.000000000000000000e+00,4.000000000000000000e+00,-3.000000000000000000e+00,3.812866210937500000e-01,1.282958984375000000e-01,-9.083862304687500000e-01,-1.142578125000000000e-01
-1.600000000000000000e+01,-8.000000000000000000e+00,-1.300000000000000000e+01,-1.000000000000000000e+01,-4.000000000000000000e+00,0.000000000000000000e+00,-1.000000000000000000e+00,-5.000000000000000000e+00,3.812866210937500000e-01,1.282958984375000000e-01,-9.083862304687500000e-01,-1.142578125000000000e-01
7.000000000000000000e+00,3.000000000000000000e+00,-1.400000000000000000e+01,-3.000000000000000000e+00,-3.000000000000000000e+00,-1.000000000000000000e+00,2.000000000000000000e+00,0.000000000000000000e+00,3.812866210937500000e-01,1.282958984375000000e-01,-9.083862304687500000e-01,-1.142578125000000000e-01
-1.400000000000000000e+01,-5.000000000000000000e+00,9.000000000000000000e+00,-1.000000000000000000e+00,1.000000000000000000e+00,-2.000000000000000000e+00,0.000000000000000000e+00,-3.000000000000000000e+00,3.812866210937500000e-01,1.282958984375000000e-01,-9.083862304687500000e-01,-1.142578125000000000e-01
3.000000000000000000e+00,4.000000000000000000e+00,2.100000000000000000e+01,6.000000000000000000e+00,-2.000000000000000000e+00,-3.000000000000000000e+00,-4.000000000000000000e+00,-1.000000000000000000e+00,3.789672851562500000e-01,1.318359375000000000e-01,-9.088134765625000000e-01,-1.144409179687500000e-01
4.000000000000000000e+00,1.000000000000000000e+00,-1.000000000000000000e+01,-1.100000000000000000e+01,-6.000000000000000000e+00,0.000000000000000000e+00,0.000000000000000000e+00,-3.000000000000000000e+00,3.789672851562500000e-01,1.318359375000000000e-01,-9.088134765625000000e-01,-1.144409179687500000e-01
0.000000000000000000e+00,4.000000000000000000e+00,4.000000000000000000e+00,1.000000000000000000e+00,6.000000000000000000e+00,3.000000000000000000e+00,2.000000000000000000e+00,3.000000000000000000e+00,3.789672851562500000e-01,1.318359375000000000e-01,-9.088134765625000000e-01,-1.144409179687500000e-01
3.000000000000000000e+00,-2.000000000000000000e+00,-1.200000000000000000e+01,-8.000000000000000000e+00,-3.000000000000000000e+00,-4.000000000000000000e+00,-1.000000000000000000e+00,-1.000000000000000000e+00,3.789672851562500000e-01,1.318359375000000000e-01,-9.088134765625000000e-01,-1.144409179687500000e-01
-6.000000000000000000e+00,-1.200000000000000000e+01,-6.000000000000000000e+00,7.000000000000000000e+00,0.000000000000000000e+00,1.000000000000000000e+00,-1.000000000000000000e+00,2.000000000000000000e+00,3.767089843750000000e-01,1.352539062500000000e-01,-9.093017578125000000e-01,-1.138916015625000000e-01
5.000000000000000000e+00,6.000000000000000000e+00,-1.000000000000000000e+01,4.000000000000000000e+00,-3.000000000000000000e+00,-1.000000000000000000e+00,2.000000000000000000e+00,1.000000000000000000e+00,3.767089843750000000e-01,1.352539062500000000e-01,-9.093017578125000000e-01,-1.138916015625000000e-01
4.000000000000000000e+00,8.000000000000000000e+00,-1.100000000000000000e+01,-9.000000000000000000e+00,-2.000000000000000000e+00,3.000000000000000000e+00,0.000000000000000000e+00,1.000000000000000000e+00,3.767089843750000000e-01,1.352539062500000000e-01,-9.093017578125000000e-01,-1.138916015625000000e-01
-2.300000000000000000e+01,-2.000000000000000000e+00,2.600000000000000000e+01,1.100000000000000000e+01,-1.000000000000000000e+00,-1.000000000000000000e+00,0.000000000000000000e+00,-1.000000000000000000e+00,3.767089843750000000e-01,1.352539062500000000e-01,-9.093017578125000000e-01,-1.138916015625000000e-01
-3.000000000000000000e+00,-1.300000000000000000e+01,-8.000000000000000000e+00,-9.000000000000000000e+00,3.000000000000000000e+00,2.000000000000000000e+00,4.000000000000000000e+00,-3.000000000000000000e+00,3.747558593750000000e-01,1.391601562500000000e-01,-9.096679687500000000e-01,-1.129150390625000000e-01
3.000000000000000000e+00,-2.000000000000000000e+00,-9.000000000000000000e+00,-3.000000000000000000e+00,-3.000000000000000000e+00,0.000000000000000000e+00,-6.000000000000000000e+00,-3.000000000000000000e+00,3.747558593750000000e-01,1.391601562500000000e-01,-9.096679687500000000e-01,-1.129150390625000000e-01
3.000000000000000000e+00,3.000000000000000000e+00,7.000000000000000000e+00,-3.000000000000000000e+00,1.000000000000000000e+00,0.000000000000000000e+00,3.000000000000000000e+00,-4.000000000000000000e+00,3.747558593750000000e-01,1.391601562500000000e-01,-9.096679687500000000e-01,-1.129150390625000000e-01
9.000000000000000000e+00,1.200000000000000000e+01,-2.000000000000000000e+00,1.000000000000000000e+00,-1.000000000000000000e+00,-2.000000000000000000e+00,-2.000000000000000000e+00,0.000000000000000000e+00,3.747558593750000000e-01,1.391601562500000000e-01,-9.096679687500000000e-01,-1.129150390625000000e-01
2.000000000000000000e+00,6.000000000000000000e+00,2.000000000000000000e+00,1.000000000000000000e+00,0.000000000000000000e+00,-2.000000000000000000e+00,-5.000000000000000000e+00,0.000000000000000000e+00,3.732299804687500000e-01,1.426391601562500000e-01,-9.098510742187500000e-01,-1.118774414062500000e-01
5.000000000000000000e+00,-5.000000000000000000e+00,-1.100000000000000000e+01,-3.000000000000000000e+00,-2.000000000000000000e+00,-2.000000000000000000e+00,2.000000000000000000e+00,0.000000000000000000e+00,3.732299804687500000e-01,1.426391601562500000e-01,-9.098510742187500000e-01,-1.118774414062500000e-01
-1.800000000000000000e+01,-6.000000000000000000e+00,2.100000000000000000e+01,7.000000000000000000e+00,-2.000000000000000000e+00,-2.000000000000000000e+00,-5.000000000000000000e+00,-3.000000000000000000e+00,3.732299804687500000e-01,1.426391601562500000e-01,-9.098510742187500000e-01,-1.118774414062500000e-01
4.000000000000000000e+00,-1.400000000000000000e+01,-9.000000000000000000e+00,-1.000000000000000000e+00,-8.000000000000000000e+00,-6.000000000000000000e+00,5.000000000000000000e+00,-1.000000000000000000e+00,3.732299804687500000e-01,1.426391601562500000e-01,-9.098510742187500000e-01,-1.118774414062500000e-01
4.000000000000000000e+00,5.000000000000000000e+00,7.000000000000000000e+00,1.000000000000000000e+00,1.000000000000000000e+00,-1.000000000000000000e+00,0.000000000000000000e+00,1.000000000000000000e+00,3.724975585937500000e-01,1.447753906250000000e-01,-9.099121093750000000e-01,-1.110839843750000000e-01
2.000000000000000000e+00,-3.000000000000000000e+00,4.000000000000000000e+00,-1.000000000000000000e+00,2.000000000000000000e+00,-1.000000000000000000e+00,-3.000000000000000000e+00,-1.000000000000000000e+00,3.724975585937500000e-01,1.447753906250000000e-01,-9.099121093750000000e-01,-1.110839843750000000e-01
0.000000000000000000e+00,1.000000000000000000e+00,-1.000000000000000000e+00,0.000000000000000000e+00,0.000000000000000000e+00,-1.000000000000000000e+00,1.000000000000000000e+00,-1.000000000000000000e+00,3.724975585937500000e-01,1.447753906250000000e-01,-9.099121093750000000e-01,-1.110839843750000000e-01
-4.000000000000000000e+00,-2.000000000000000000e+00,-8.000000000000000000e+00,-1.000000000000000000e+00,-1.000000000000000000e+00,5.000000000000000000e+00,-2.000000000000000000e+00,0.000000000000000000e+00,3.724975585937500000e-01,1.447753906250000000e-01,-9.099121093750000000e-01,-1.110839843750000000e-01
-5.000000000000000000e+00,7.000000000000000000e+00,2.000000000000000000e+00,-4.000000000000000000e+00,0.000000000000000000e+00,3.000000000000000000e+00,-2.000000000000000000e+00,-1.000000000000000000e+00,3.724365234375000000e-01,1.458740234375000000e-01,-9.099121093750000000e-01,-1.100463867187500000e-01
-6.000000000000000000e+00,-1.000000000000000000e+00,3.000000000000000000e+00,4.000000000000000000e+00,-7.000000000000000000e+00,-1.000000000000000000e+00,-2.000000000000000000e+00,-1.000000000000000000e+00,3.724365234375000000e-01,1.458740234375000000e-01,-9.099121093750000000e-01,-1.100463867187500000e-01
1.400000000000000000e+01,-1.000000000000000000e+00,3.000000000000000000e+00,1.000000000000000000e+00,4.000000000000000000e+00,-5.000000000000000000e+00,0.000000000000000000e+00,2.000000000000000000e+00,3.724365234375000000e-01,1.458740234375000000e-01,-9.099121093750000000e-01,-1.100463867187500000e-01
-1.900000000000000000e+01,-7.000000000000000000e+00,-9.000000000000000000e+00,-1.000000000000000000e+00,-2.000000000000000000e+00,-3.000000000000000000e+00,-1.000000000000000000e+00,-3.000000000000000000e+00,3.724365234375000000e-01,1.458740234375000000e-01,-9.099121093750000000e-01,-1.100463867187500000e-01
5.000000000000000000e+00,-5.000000000000000000e+00,-3.000000000000000000e+00,-1.100000000000000000e+01,-7.000000000000000000e+00,-4.000000000000000000e+00,-2.000000000000000000e+00,-2.000000000000000000e+00,3.728027343750000000e-01,1.469726562500000000e-01,-9.097900390625000000e-01,-1.084594726562500000e-01
-5.000000000000000000e+00,1.200000000000000000e+01,1.000000000000000000e+00,1.100000000000000000e+01,3.000000000000000000e+00,-2.000000000000000000e+00,-5.000000000000000000e+00,-1.000000000000000000e+00,3.728027343750000000e-01,1.469726562500000000e-01,-9.097900390625000000e-01,-1.084594726562500000e-01
-2.000000000000000000e+00,-7.000000000000000000e+00,7.000000000000000000e+00,0.000000000000000000e+00,-3.000000000000000000e+00,1.000000000000000000e+00,0.000000000000000000e+00,-2.000000000000000000e+00,3.728027343750000000e-01,1.469726562500000000e-01,-9.097900390625000000e-01,-1.084594726562500000e-01
6.000000000000000000e+00,2.000000000000000000e+00,-7.000000000000000000e+00,1.100000000000000000e+01,1.300000000000000000e+01,3.000000000000000000e+00,-5.000000000000000000e+00,-2.000000000000000000e+00,3.728027343750000000e-01,1.469726562500000000e-01,-9.097900390625000000e-01,-1.084594726562500000e-01
0.000000000000000000e+00,1.000000000000000000e+00,-3.000000000000000000e+00,-6.000000000000000000e+00,0.000000000000000000e+00,1.000000000000000000e+00,3.000000000000000000e+00,0.000000000000000000e+00,3.733520507812500000e-01,1.483764648437500000e-01,-9.095458984375000000e-01,-1.065063476562500000e-01
-1.100000000000000000e+01,-2.300000000000000000e+01,-5.000000000000000000e+00,-1.900000000000000000e+01,-8.000000000000000000e+00,-6.000000000000000000e+00,-5.000000000000000000e+00,-3.000000000000000000e+00,3.733520507812500000e-01,1.483764648437500000e-01,-9.095458984375000000e-01,-1.065063476562500000e-01
6.000000000000000000e+00,6.000000000000000000e+00,5.000000000000000000e+00,4.000000000000000000e+00,-1.000000000000000000e+00,-2.000000000000000000e+00,-1.000000000000000000e+00,0.000000000000000000e+00,3.733520507812500000e-01,1.483764648437500000e-01,-9.095458984375000000e-01,-1.065063476562500000e-01
-4.000000000000000000e+00,-3.000000000000000000e+00,-6.000000000000000000e+00,0.000000000000000000e+00,0.000000000000000000e+00,-1.000000000000000000e+00,-1.000000000000000000e+00,0.000000000000000000e+00,3.733520507812500000e-01,1.483764648437500000e-01,-9.095458984375000000e-01,-1.065063476562500000e-01
2.000000000000000000e+00,-2.000000000000000000e+00,-1.300000000000000000e+01,-4.000000000000000000e+00,-1.000000000000000000e+00,-1.000000000000000000e+00,-4.000000000000000000e+00,0.000000000000000000e+00,3.742065429687500000e-01,1.499633789062500000e-01,-9.091186523437500000e-01,-1.047363281250000000e-01
5.000000000000000000e+00,7.000000000000000000e+00,6.000000000000000000e+00,-2.000000000000000000e+00,-2.000000000000000000e+00,1.000000000000000000e+00,1.000000000000000000e+00,1.000000000000000000e+00,3.742065429687500000e-01,1.499633789062500000e-01,-9.091186523437500000e-01,-1.047363281250000000e-01
-3.000000000000000000e+00,0.000000000000000000e+00,-2.000000000000000000e+00,-8.000000000000000000e+00,-5.000000000000000000e+00,-3.000000000000000000e+00,-2.000000000000000000e+00,-2.000000000000000000e+00,3.742065429687500000e-01,1.499633789062500000e-01,-9.091186523437500000e-01,-1.047363281250000000e-01
1.400000000000000000e+01,1.000000000000000000e+00,0.000000000000000000e+00,-3.000000000000000000e+00,-6.000000000000000000e+00,-4.000000000000000000e+00,2.000000000000000000e+00,0.000000000000000000e+00,3.742065429687500000e-01,1.499633789062500000e-01,-9.091186523437500000e-01,-1.047363281250000000e-01
-9.000000000000000000e+00,-4.000000000000000000e+00,-1.000000000000000000e+00,6.000000000000000000e+00,6.000000000000000000e+00,3.000000000000000000e+00,1.000000000000000000e+00,1.000000000000000000e+00,3.750610351562500000e-01,1.509399414062500000e-01,-9.087524414062500000e-01,-1.034545898437500000e-01
2.000000000000000000e+00,2.000000000000000000e+00,2.000000000000000000e+00,-3.000000000000000000e+00,-1.000000000000000000e+00,-1.000000000000000000e+00,-2.000000000000000000e+00,3.000000000000000000e+00,3.750610351562500000e-01,1.509399414062500000e-01,-9.087524414062500000e-01,-1.034545898437500000e-01
-6.000000000000000000e+00,5.000000000000000000e+00,-1.000000000000000000e+01,-1.000000000000000000e+00,1.000000000000000000e+00,-3.000000000000000000e+00,-5.000000000000000000e+00,1.000000000000000000e+00,3.750610351562500000e-01,1.509399414062500000e-01,-9.087524414062500000e-01,-1.034545898437500000e-01
5.000000000000000000e+00,-7.000000000000000000e+00,1.000000000000000000e+00,-4.000000000000000000e+00,-2.000000000000000000e+00,0.000000000000000000e+00,7.000000000000000000e+00,2.000000000000000000e+00,3.750610351562500000e-01,1.509399414062500000e-01,-9.087524414062500000e-01,-1.034545898437500000e-01
3.000000000000000000e+00,-2.000000000000000000e+00,1.200000000000000000e+01,9.000000000000000000e+00,-2.000000000000000000e+00,0.000000000000000000e+00,1.000000000000000000e+00,3.000000000000000000e+00,3.761596679687500000e-01,1.515502929687500000e-01,-9.083251953125000000e-01,-1.022949218750000000e-01
-1.800000000000000000e+01,-1.000000000000000000e+00,-1.600000000000000000e+01,-1.600000000000000000e+01,4.000000000000000000e+00,-3.000000000000000000e+00,-3.000000000000000000e+00,-5.000000000000000000e+00,3.761596679687500000e-01,1.515502929687500000e-01,-9.083251953125000000e-01,-1.022949218750000000e-01
3.000000000000000000e+00,4.000000000000000000e+00,-1.000000000000000000e+00,1.400000000000000000e+01,5.000000000000000000e+00,1.000000000000000000e+00,0.000000000000000000e+00,-1.000000000000000000e+00,3.761596679687500000e-01,1.515502929687500000e-01,-9.083251953125000000e-01,-1.022949218750000000e-01
-2.000000000000000000e+00,-1.000000000000000000e+01,-1.000000000000000000e+00,0.000000000000000000e+00,0.000000000000000000e+00,-1.000000000000000000e+00,-3.000000000000000000e+00,-4.000000000000000000e+00,3.761596679687500000e-01,1.515502929687500000e-01,-9.083251953125000000e-01,-1.022949218750000000e-01
3.000000000000000000e+00,4.000000000000000000e+00,3.000000000000000000e+00,-6.000000000000000000e+00,-1.000000000000000000e+01,-6.000000000000000000e+00,-4.000000000000000000e+00,-4.000000000000000000e+00,3.770751953125000000e-01,1.524047851562500000e-01,-9.079589843750000000e-01,-1.008911132812500000e-01
0.000000000000000000e+00,6.000000000000000000e+00,8.000000000000000000e+00,2.000000000000000000e+00,1.000000000000000000e+00,1.000000000000000000e+00,2.000000000000000000e+00,-2.000000000000000000e+00,3.770751953125000000e-01,1.524047851562500000e-01,-9.079589843750000000e-01,-1.008911132812500000e-01
-1.000000000000000000e+01,-1.800000000000000000e+01,-8.000000000000000000e+00,-4.000000000000000000e+00,-2.000000000000000000e+00,-3.000000000000000000e+00,-1.000000000000000000e+00,-3.000000000000000000e+00,3.770751953125000000e-01,1.524047851562500000e-01,-9.079589843750000000e-01,-1.008911132812500000e-01
9.000000000000000000e+00,5.000000000000000000e+00,1.000000000000000000e+00,-4.000000000000000000e+00,-2.000000000000000000e+00,-3.000000000000000000e+00,-3.000000000000000000e+00,3.000000000000000000e+00,3.770751953125000000e-01,1.524047851562500000e-01,-9.079589843750000000e-01,-1.008911132812500000e-01
-1.700000000000000000e+01,-7.000000000000000000e+00,-8.000000000000000000e+00,-4.000000000000000000e+00,-4.000000000000000000e+00,-3.000000000000000000e+00,-2.000000000000000000e+00,-1.000000000000000000e+00,3.779907226562500000e-01,1.536865234375000000e-01,-9.075317382812500000e-01,-9.948730468750000000e-02
-4.000000000000000000e+00,-6.000000000000000000e+00,-4.000000000000000000e+00,0.000000000000000000e+00,-3.000000000000000000e+00,-3.000000000000000000e+00,0.000000000000000000e+00,-1.000000000000000000e+00,3.779907226562500000e-01,1.536865234375000000e-01,-9.075317382812500000e-01,-9.948730468750000000e-02
-3.000000000000000000e+00,3.000000000000000000e+00,1.000000000000000000e+00,-3.000000000000000000e+00,0.000000000000000000e+00,1.000000000000000000e+00,1.000000000000000000e+00,-1.000000000000000000e+00,3.779907226562500000e-01,1.536865234375000000e-01,-9.075317382812500000e-01,-9.948730468750000000e-02
4.000000000000000000e+00,4.000000000000000000e+00,-1.000000000000000000e+00,0.000000000000000000e+00,1.000000000000000000e+00,5.000000000000000000e+00,-2.000000000000000000e+00,-2.000000000000000000e+00,3.779907226562500000e-01,1.536865234375000000e-01,-9.075317382812500000e-01,-9.948730468750000000e-02
1.100000000000000000e+01,1.700000000000000000e+01,1.200000000000000000e+01,8.000000000000000000e+00,2.000000000000000000e+00,2.000000000000000000e+00,-3.000000000000000000e+00,-1.000000000000000000e+00,3.786621093750000000e-01,1.551513671875000000e-01,-9.071044921875000000e-01,-9.832763671875000000e-02
-8.000000000000000000e+00,-9.000000000000000000e+00,7.000000000000000000e+00,4.000000000000000000e+00,-5.000000000000000000e+00,-1.000000000000000000e+00,-3.000000000000000000e+00,-2.000000000000000000e+00,3.786621093750000000e-01,1.551513671875000000e-01,-9.071044921875000000e-01,-9.832763671875000000e-02
0.000000000000000000e+00,-1.200000000000000000e+01,7.000000000000000000e+00,-5.000000000000000000e+00,-4.000000000000000000e+00,-1.000000000000000000e+00,5.000000000000000000e+00,-1.000000000000000000e+00,3.786621093750000000e-01,1.551513671875000000e-01,-9.071044921875000000e-01,-9.832763671875000000e-02
-3.000000000000000000e+00,-3.000000000000000000e+00,-5.000000000000000000e+00,1.000000000000000000e+00,2.000000000000000000e+00,2.000000000000000000e+00,-4.000000000000000000e+00,-1.000000000000000000e+00,3.786621093750000000e-01,1.551513671875000000e-01,-9.071044921875000000e-01,-9.832763671875000000e-02
-1.000000000000000000e+00,3.000000000000000000e+00,-2.000000000000000000e+00,-1.000000000000000000e+00,-3.000000000000000000e+00,-3.000000000000000000e+00,-5.000000000000000000e+00,-2.000000000000000000e+00,3.793334960937500000e-01,1.561279296875000000e-01,-9.067993164062500000e-01,-9.741210937500000000e-02
7.000000000000000000e+00,7.000000000000000000e+00,2.000000000000000000e+00,8.000000000000000000e+00,8.000000000000000000e+00,3.000000000000000000e+00,-1.000000000000000000e+00,2.000000000000000000e+00,3.793334960937500000e-01,1.561279296875000000e-01,-9.067993164062500000e-01,-9.741210937500000000e-02
-6.000000000000000000e+00,-9.000000000000000000e+00,-1.500000000000000000e+01,-1.200000000000000000e+01,-9.000000000000000000e+00,-4.000000000000000000e+00,-1.100000000000000000e+01,-1.000000000000000000e+00,3.793334960937500000e-01,1.561279296875000000e-01,-9.067993164062500000e-01,-9.741210937500000000e-02
6.000000000000000000e+00,1.800000000000000000e+01,1.200000000000000000e+01,3.000000000000000000e+00,4.000000000000000000e+00,-1.800000000000000000e+01,5.000000000000000000e+00,1.000000000000000000e+00,3.793334960937500000e-01,1.561279296875000000e-01,-9.067993164062500000e-01,-9.741210937500000000e-02
6.000000000000000000e+00,-1.800000000000000000e+01,1.000000000000000000e+00,-2.000000000000000000e+00,-2.000000000000000000e+00,-2.500000000000000000e+01,1.000000000000000000e+00,-1.000000000000000000e+00,3.797607421875000000e-01,1.571044921875000000e-01,-9.065551757812500000e-01,-9.625244140625000000e-02
-1.000000000000000000e+01,-4.000000000000000000e+00,-1.500000000000000000e+01,5.000000000000000000e+00,0.000000000000000000e+00,-1.900000000000000000e+01,-1.000000000000000000e+00,-6.000000000000000000e+00,3.797607421875000000e-01,1.571044921875000000e-01,-9.065551757812500000e-01,-9.625244140625000000e-02
-1.000000000000000000e+00,5.000000000000000000e+00,6.000000000000000000e+00,-5.000000000000000000e+00,4.000000000000000000e+00,-3.000000000000000000e+00,4.000000000000000000e+00,2.000000000000000000e+00,3.797607421875000000e-01,1.571044921875000000e-01,-9.065551757812500000e-01,-9.625244140625000000e-02
0.000000000000000000e+00,3.000000000000000000e+00,0.000000000000000000e+00,0.000000000000000000e+00,2.000000000000000000e+00,8.000000000000000000e+00,-1.000000000000000000e+00,0.000000000000000000e+00,3.797607421875000000e-01,1.571044921875000000e-01,-9.065551757812500000e-01,-9.625244140625000000e-02
4.000000000000000000e+00,-4.000000000000000000e+00,-5.000000000000000000e+00,-1.000000000000000000e+00,0.000000000000000000e+00,1.300000000000000000e+01,3.000000000000000000e+00,-1.000000000000000000e+00,3.800048828125000000e-01,1.583862304687500000e-01,-9.063720703125000000e-01,-9.466552734375000000e-02
5.000000000000000000e+00,2.000000000000000000e+00,2.000000000000000000e+00,-7.000000000000000000e+00,-5.000000000000000000e+00,1.200000000000000000e+01,0.000000000000000000e+00,0.000000000000000000e+00,3.800048828125000000e-01,1.583862304687500000e-01,-9.063720703125000000e-01,-9.466552734375000000e-02
0.000000000000000000e+00,5.000000000000000000e+00,-2.000000000000000000e+00,0.000000000000000000e+00,-1.000000000000000000e+00,7.000000000000000000e+00,-1.000000000000000000e+00,-1.000000000000000000e+00,3.800048828125000000e-01,1.583862304687500000e-01,-9.063720703125000000e-01,-9.466552734375000000e-02
-1.000000000000000000e+00,2.000000000000000000e+00,-7.000000000000000000e+00,2.000000000000000000e+00,-1.000000000000000000e+00,1.600000000000000000e+01,2.000000000000000000e+00,-3.000000000000000000e+00,3.800048828125000000e-01,1.583862304687500000e-01,-9.063720703125000000e-01,-9.466552734375000000e-02
-4.000000000000000000e+00,9.000000000000000000e+00,2.800000000000000000e+01,7.000000000000000000e+00,2.000000000000000000e+00,1.200000000000000000e+01,-1.000000000000000000e+00,1.000000000000000000e+00,3.801879882812500000e-01,1.600952148437500000e-01,-9.062500000000000000e-01,-9.265136718750000000e-02
1.100000000000000000e+01,-5.000000000000000000e+00,-1.000000000000000000e+00,-7.000000000000000000e+00,6.000000000000000000e+00,3.000000000000000000e+00,-1.000000000000000000e+00,0.000000000000000000e+00,3.801879882812500000e-01,1.600952148437500000e-01,-9.062500000000000000e-01,-9.265136718750000000e-02
-2.000000000000000000e+01,-1.900000000000000000e+01,-5.000000000000000000e+00,0.000000000000000000e+00,-3.000000000000000000e+00,3.000000000000000000e+00,4.000000000000000000e+00,-1.000000000000000000e+00,3.801879882812500000e-01,1.600952148437500000e-01,-9.062500000000000000e-01,-9.265136718750000000e-02
0.000000000000000000e+00,-3.000000000000000000e+00,6.000000000000000000e+00,-8.000000000000000000e+00,-7.000000000000000000e+00,-1.000000000000000000e+00,-2.000000000000000000e+00,-1.000000000000000000e+00,3.801879882812500000e-01,1.600952148437500000e-01,-9.062500000000000000e-01,-9.265136718750000000e-02
-6.000000000000000000e+00,-9.000000000000000000e+00,-2.200000000000000000e+01,-3.000000000000000000e+00,3.000000000000000000e+00,-1.000000000000000000e+00,-4.000000000000000000e+00,-1.000000000000000000e+00,3.796997070312500000e-01,1.624145507812500000e-01,-9.062500000000000000e-01,-9.075927734375000000e-02
5.000000000000000000e+00,6.000000000000000000e+00,2.000000000000000000e+00,5.000000000000000000e+00,-5.000000000000000000e+00,2.000000000000000000e+00,1.000000000000000000e+00,-2.000000000000000000e+00,3.796997070312500000e-01,1.624145507812500000e-01,-9.062500000000000000e-01,-9.075927734375000000e-02
8.000000000000000000e+00,5.000000000000000000e+00,2.000000000000000000e+00,5.000000000000000000e+00,3.000000000000000000e+00,2.000000000000000000e+00,1.000000000000000000e+00,-1.000000000000000000e+00,3.796997070312500000e-01,1.624145507812500000e-01,-9.062500000000000000e-01,-9.075927734375000000e-02
-7.000000000000000000e+00,-9.000000000000000000e+00,-3.000000000000000000e+00,-6.000000000000000000e+00,-4.000000000000000000e+00,-5.000000000000000000e+00,-6.000000000000000000e+00,-3.000000000000000000e+00,3.796997070312500000e-01,1.624145507812500000e-01,-9.062500000000000000e-01,-9.075927734375000000e-02
-6.000000000000000000e+00,3.000000000000000000e+00,-5.000000000000000000e+00,-1.000000000000000000e+00,-3.000000000000000000e+00,4.000000000000000000e+00,-3.000000000000000000e+00,-5.000000000000000000e+00,3.790893554687500000e-01,1.636962890625000000e-01,-9.063720703125000000e-01,-8.941650390625000000e-02
5.000000000000000000e+00,6.000000000000000000e+00,3.000000000000000000e+00,1.000000000000000000e+00,4.000000000000000000e+00,3.000000000000000000e+00,1.000000000000000000e+00,0.000000000000000000e+00,3.790893554687500000e-01,1.636962890625000000e-01,-9.063720703125000000e-01,-8.941650390625000000e-02
-1.000000000000000000e+00,0.000000000000000000e+00,-5.000000000000000000e+00,-1.000000000000000000e+01,-2.000000000000000000e+00,-1.000000000000000000e+00,1.000000000000000000e+00,0.000000000000000000e+00,3.790893554687500000e-01,1.636962890625000000e-01,-9.063720703125000000e-01,-8.941650390625000000e-02
-4.000000000000000000e+00,-3.000000000000000000e+00,7.000000000000000000e+00,1.800000000000000000e+01,7.000000000000000000e+00,2.000000000000000000e+00,0.000000000000000000e+00,-1.000000000000000000e+00,3.790893554687500000e-01,1.636962890625000000e-01,-9.063720703125000000e-01,-8.941650390625000000e-02
1.000000000000000000e+00,1.400000000000000000e+01,1.100000000000000000e+01,0.000000000000000000e+00,2.000000000000000000e+00,-1.000000000000000000e+00,-2.000000000000000000e+00,0.000000000000000000e+00,3.781738281250000000e-01,1.644897460937500000e-01,-9.067993164062500000e-01,-8.782958984375000000e-02
-7.000000000000000000e+00,-3.700000000000000000e+01,-3.400000000000000000e+01,-1.200000000000000000e+01,-9.000000000000000000e+00,-7.000000000000000000e+00,-4.000000000000000000e+00,0.000000000000000000e+00,3.781738281250000000e-01,1.644897460937500000e-01,-9.067993164062500000e-01,-8.782958984375000000e-02
1.000000000000000000e+00,1.100000000000000000e+01,1.400000000000000000e+01,-3.000000000000000000e+00,-5.000000000000000000e+00,-5.000000000000000000e+00,-4.000000000000000000e+00,-1.000000000000000000e+00,3.781738281250000000e-01,1.644897460937500000e-01,-9.067993164062500000e-01,-8.782958984375000000e-02
-7.000000000000000000e+00,-9.000000000000000000e+00,0.000000000000000000e+00,6.000000000000000000e+00,4.000000000000000000e+00,-1.000000000000000000e+00,-1.000000000000000000e+00,2.000000000000000000e+00,3.781738281250000000e-01,1.644897460937500000e-01,-9.067993164062500000e-01,-8.782958984375000000e-02
-2.000000000000000000e+00,-2.000000000000000000e+00,-2.000000000000000000e+00,-9.000000000000000000e+00,-5.000000000000000000e+00,0.000000000000000000e+00,2.000000000000000000e+00,-2.000000000000000000e+00,3.770141601562500000e-01,1.656494140625000000e-01,-9.072265625000000000e-01,-8.599853515625000000e-02
-1.000000000000000000e+00,8.000000000000000000e+00,6.000000000000000000e+00,-1.000000000000000000e+00,-2.000000000000000000e+00,-1.000000000000000000e+00,1.000000000000000000e+00,1.000000000000000000e+00,3.770141601562500000e-01,1.656494140625000000e-01,-9.072265625000000000e-01,-8.599853515625000000e-02
2.000000000000000000e+00,1.000000000000000000e+00,-4.000000000000000000e+00,7.000000000000000000e+00,-8.000000000000000000e+00,1.000000000000000000e+00,-1.000000000000000000e+00,-3.000000000000000000e+00,3.770141601562500000e-01,1.656494140625000000e-01,-9.072265625000000000e-01,-8.599853515625000000e-02
-1.000000000000000000e+00,-2.000000000000000000e+00,-7.000000000000000000e+00,-1.000000000000000000e+01,0.000000000000000000e+00,-5.000000000000000000e+00,-2.000000000000000000e+00,-2.000000000000000000e+00,3.770141601562500000e-01,1.656494140625000000e-01,-9.072265625000000000e-01,-8.599853515625000000e-02
-5.000000000000000000e+00,-5.000000000000000000e+00,-7.000000000000000000e+00,-2.000000000000000000e+00,0.000000000000000000e+00,-6.000000000000000000e+00,0.000000000000000000e+00,-1.000000000000000000e+00,3.757934570312500000e-01,1.668090820312500000e-01,-9.076538085937500000e-01,-8.428955078125000000e-02
0.000000000000000000e+00,5.000000000000000000e+00,8.000000000000000000e+00,7.000000000000000000e+00,-1.000000000000000000e+00,1.000000000000000000e+00,2.000000000000000000e+00,-1.000000000000000000e+00,3.757934570312500000e-01,1.668090820312500000e-01,-9.076538085937500000e-01,-8.428955078125000000e-02
7.000000000000000000e+00,2.000000000000000000e+00,-8.000000000000000000e+00,0.000000000000000000e+00,7.000000000000000000e+00,3.000000000000000000e+00,-5.000000000000000000e+00,-2.000000000000000000e+00,3.757934570312500000e-01,1.668090820312500000e-01,-9.076538085937500000e-01,-8.428955078125000000e-02
-8.000000000000000000e+00,-3.000000000000000000e+00,2.100000000000000000e+01,-2.000000000000000000e+00,-7.000000000000000000e+00,0.000000000000000000e+00,1.000000000000000000e+00,-2.000000000000000000e+00,3.757934570312500000e-01,1.668090820312500000e-01,-9.076538085937500000e-01,-8.428955078125000000e-02
-1.300000000000000000e+01,5.000000000000000000e+00,-4.000000000000000000e+01,-1.200000000000000000e+01,0.000000000000000000e+00,-4.000000000000000000e+00,-1.000000000000000000e+00,-1.000000000000000000e+00,3.746948242187500000e-01,1.674804687500000000e-01,-9.081420898437500000e-01,-8.270263671875000000e-02
2.000000000000000000e+00,-6.000000000000000000e+00,5.000000000000000000e+00,-1.600000000000000000e+01,-1.000000000000000000e+01,-5.000000000000000000e+00,-3.000000000000000000e+00,-5.000000000000000000e+00,3.746948242187500000e-01,1.674804687500000000e-01,-9.081420898437500000e-01,-8.270263671875000000e-02
-1.900000000000000000e+01,-2.400000000000000000e+01,-8.000000000000000000e+00,1.300000000000000000e+01,5.000000000000000000e+00,-2.000000000000000000e+00,1.000000000000000000e+00,-1.000000000000000000e+00,3.739013671875000000e-01,1.679687500000000000e-01,-9.085693359375000000e-01,-8.099365234375000000e-02
8.000000000000000000e+00,-2.000000000000000000e+00,-4.000000000000000000e+00,-3.000000000000000000e+00,2.000000000000000000e+00,-3.000000000000000000e+00,3.000000000000000000e+00,-3.000000000000000000e+00,3.739013671875000000e-01,1.679687500000000000e-01,-9.085693359375000000e-01,-8.099365234375000000e-02
