-7.000000000000000000e+00,-9.000000000000000000e+00,-1.300000000000000000e+01,-1.000000000000000000e+01,-8.000000000000000000e+00,-4.000000000000000000e+00,-3.000000000000000000e+00,-2.000000000000000000e+00,4.241333007812500000e-01,2.136230468750000000e-01,-8.659667968750000000e-01,1.568603515625000000e-01
1.400000000000000000e+01,5.000000000000000000e+00,1.700000000000000000e+01,1.100000000000000000e+01,2.000000000000000000e+00,1.000000000000000000e+00,3.000000000000000000e+00,9.000000000000000000e+00,4.241333007812500000e-01,2.136230468750000000e-01,-8.659667968750000000e-01,1.568603515625000000e-01
-4.000000000000000000e+01,-1.000000000000000000e+00,-1.500000000000000000e+01,-3.000000000000000000e+00,-3.000000000000000000e+00,-1.000000000000000000e+00,-3.000000000000000000e+00,-9.000000000000000000e+00,4.241333007812500000e-01,2.136230468750000000e-01,-8.659667968750000000e-01,1.568603515625000000e-01
2.000000000000000000e+00,-1.000000000000000000e+00,7.000000000000000000e+00,-9.000000000000000000e+00,5.000000000000000000e+00,1.000000000000000000e+00,-1.000000000000000000e+00,-3.000000000000000000e+00,4.241333007812500000e-01,2.136230468750000000e-01,-8.659667968750000000e-01,1.568603515625000000e-01
-2.000000000000000000e+00,6.000000000000000000e+00,-7.000000000000000000e+00,2.000000000000000000e+00,0.000000000000000000e+00,1.000000000000000000e+00,-1.000000000000000000e+00,-4.000000000000000000e+00,4.235229492187500000e-01,2.138671875000000000e-01,-8.663330078125000000e-01,1.562500000000000000e-01
2.000000000000000000e+00,-4.000000000000000000e+00,-5.000000000000000000e+00,-6.000000000000000000e+00,-8.000000000000000000e+00,-5.000000000000000000e+00,1.000000000000000000e+00,3.000000000000000000e+00,4.235229492187500000e-01,2.138671875000000000e-01,-8.663330078125000000e-01,1.562500000000000000e-01
2.000000000000000000e+01,1.500000000000000000e+01,-6.000000000000000000e+00,5.000000000000000000e+00,4.000000000000000000e+00,-1.000000000000000000e+00,-1.000000000000000000e+00,4.000000000000000000e+00,4.235229492187500000e-01,2.138671875000000000e-01,-8.663330078125000000e-01,1.562500000000000000e-01
-2.200000000000000000e+01,-9.000000000000000000e+00,1.100000000000000000e+01,5.000000000000000000e+00,-5.000000000000000000e+00,-2.000000000000000000e+00,-4.000000000000000000e+00,-3.000000000000000000e+00,4.235229492187500000e-01,2.138671875000000000e-01,-8.663330078125000000e-01,1.562500000000000000e-01
-4.000000000000000000e+00,0.000000000000000000e+00,-1.000000000000000000e+00,-7.000000000000000000e+00,3.000000000000000000e+00,5.000000000000000000e+00,3.000000000000000000e+00,3.000000000000000000e+00,4.230346679687500000e-01,2.140502929687500000e-01,-8.665161132812500000e-01,1.559448242187500000e-01
-4.000000000000000000e+00,-1.700000000000000000e+01,-3.000000000000000000e+00,3.000000000000000000e+00,-3.000000000000000000e+00,-3.000000000000000000e+00,-3.000000000000000000e+00,-5.000000000000000000e+00,4.230346679687500000e-01,2.140502929687500000e-01,-8.665161132812500000e-01,1.559448242187500000e-01
1.000000000000000000e+00,-2.000000000000000000e+00,4.000000000000000000e+00,-4.000000000000000000e+00,2.000000000000000000e+00,4.000000000000000000e+00,1.000000000000000000e+00,2.000000000000000000e+00,4.230346679687500000e-01,2.140502929687500000e-01,-8.665161132812500000e-01,1.559448242187500000e-01
3.000000000000000000e+00,2.000000000000000000e+00,-7.000000000000000000e+00,0.000000000000000000e+00,-4.000000000000000000e+00,-5.000000000000000000e+00,-1.000000000000000000e+00,-3.000000000000000000e+00,4.230346679687500000e-01,2.140502929687500000e-01,-8.665161132812500000e-01,1.559448242187500000e-01
1.000000000000000000e+00,-3.000000000000000000e+00,4.000000000000000000e+00,-3.000000000000000000e+00,-4.000000000000000000e+00,6.000000000000000000e+00,4.000000000000000000e+00,1.000000000000000000e+00,4.226074218750000000e-01,2.144775390625000000e-01,-8.666381835937500000e-01,1.560668945312500000e-01
-7.000000000000000000e+00,-3.000000000000000000e+00,-4.000000000000000000e+00,-1.100000000000000000e+01,-1.000000000000000000e+00,1.000000000000000000e+00,-2.000000000000000000e+00,-6.000000000000000000e+00,4.226074218750000000e-01,2.144775390625000000e-01,-8.666381835937500000e-01,1.560668945312500000e-01
1.100000000000000000e+01,-4.000000000000000000e+00,8.000000000000000000e+00,1.900000000000000000e+01,9.000000000000000000e+00,1.000000000000000000e+00,3.000000000000000000e+00,2.000000000000000000e+00,4.226074218750000000e-01,2.144775390625000000e-01,-8.666381835937500000e-01,1.560668945312500000e-01
9.000000000000000000e+00,4.000000000000000000e+00,-1.300000000000000000e+01,-3.000000000000000000e+00,4.000000000000000000e+00,1.000000000000000000e+00,2.000000000000000000e+00,3.000000000000000000e+00,4.226074218750000000e-01,2.144775390625000000e-01,-8.666381835937500000e-01,1.560668945312500000e-01
-1.600000000000000000e+01,-1.000000000000000000e+01,7.000000000000000000e+00,3.000000000000000000e+00,-5.000000000000000000e+00,-3.000000000000000000e+00,-1.000000000000000000e+00,-2.000000000000000000e+00,4.221801757812500000e-01,2.149047851562500000e-01,-8.667602539062500000e-01,1.559448242187500000e-01
6.000000000000000000e+00,6.000000000000000000e+00,-8.000000000000000000e+00,-4.000000000000000000e+00,-7.000000000000000000e+00,-6.000000000000000000e+00,-4.000000000000000000e+00,-2.000000000000000000e+00,4.221801757812500000e-01,2.149047851562500000e-01,-8.667602539062500000e-01,1.559448242187500000e-01
-1.000000000000000000e+00,1.000000000000000000e+00,2.000000000000000000e+00,-3.000000000000000000e+00,-6.000000000000000000e+00,-2.000000000000000000e+00,4.000000000000000000e+00,4.000000000000000000e+00,4.221801757812500000e-01,2.149047851562500000e-01,-8.667602539062500000e-01,1.559448242187500000e-01
1.200000000000000000e+01,6.000000000000000000e+00,8.000000000000000000e+00,-1.000000000000000000e+00,-1.000000000000000000e+01,-8.000000000000000000e+00,-1.100000000000000000e+01,-2.600000000000000000e+01,4.221801757812500000e-01,2.149047851562500000e-01,-8.667602539062500000e-01,1.559448242187500000e-01
-1.900000000000000000e+01,-2.200000000000000000e+01,-1.200000000000000000e+01,-6.000000000000000000e+00,8.000000000000000000e+00,-1.000000000000000000e+00,2.000000000000000000e+00,1.300000000000000000e+01,4.219360351562500000e-01,2.149658203125000000e-01,-8.669433593750000000e-01,1.554565429687500000e-01
0.000000000000000000e+00,2.000000000000000000e+00,4.000000000000000000e+00,1.000000000000000000e+01,3.000000000000000000e+00,5.000000000000000000e+00,-7.000000000000000000e+00,-2.800000000000000000e+01,4.219360351562500000e-01,2.149658203125000000e-01,-8.669433593750000000e-01,1.554565429687500000e-01
1.000000000000000000e+00,1.400000000000000000e+01,-1.000000000000000000e+00,2.000000000000000000e+00,1.500000000000000000e+01,3.000000000000000000e+00,0.000000000000000000e+00,-1.000000000000000000e+00,4.219360351562500000e-01,2.149658203125000000e-01,-8.669433593750000000e-01,1.554565429687500000e-01
4.000000000000000000e+00,-1.500000000000000000e+01,-1.000000000000000000e+00,1.000000000000000000e+00,-2.000000000000000000e+00,1.000000000000000000e+00,1.000000000000000000e+00,7.000000000000000000e+00,4.219360351562500000e-01,2.149658203125000000e-01,-8.669433593750000000e-01,1.554565429687500000e-01
8.000000000000000000e+00,9.000000000000000000e+00,-2.000000000000000000e+00,-3.000000000000000000e+00,-8.000000000000000000e+00,-5.000000000000000000e+00,-5.000000000000000000e+00,-1.000000000000000000e+00,4.216308593750000000e-01,2.148437500000000000e-01,-8.671875000000000000e-01,1.550292968750000000e-01
-1.000000000000000000e+01,-6.000000000000000000e+00,-1.000000000000000000e+00,-3.000000000000000000e+00,-1.000000000000000000e+00,-4.000000000000000000e+00,0.000000000000000000e+00,1.000000000000000000e+00,4.216308593750000000e-01,2.148437500000000000e-01,-8.671875000000000000e-01,1.550292968750000000e-01
-1.200000000000000000e+01,4.000000000000000000e+00,-2.000000000000000000e+00,0.000000000000000000e+00,-6.000000000000000000e+00,-5.000000000000000000e+00,0.000000000000000000e+00,4.000000000000000000e+00,4.216308593750000000e-01,2.148437500000000000e-01,-8.671875000000000000e-01,1.550292968750000000e-01
1.000000000000000000e+00,-2.100000000000000000e+01,-8.000000000000000000e+00,-4.000000000000000000e+00,-9.000000000000000000e+00,1.000000000000000000e+00,-1.000000000000000000e+00,0.000000000000000000e+00,4.216308593750000000e-01,2.148437500000000000e-01,-8.671875000000000000e-01,1.550292968750000000e-01
0.000000000000000000e+00,7.000000000000000000e+00,0.000000000000000000e+00,-9.000000000000000000e+00,0.000000000000000000e+00,0.000000000000000000e+00,-2.000000000000000000e+00,-5.000000000000000000e+00,4.216308593750000000e-01,2.149047851562500000e-01,-8.671875000000000000e-01,1.550292968750000000e-01
-3.000000000000000000e+00,-1.000000000000000000e+00,3.000000000000000000e+00,1.400000000000000000e+01,8.000000000000000000e+00,2.000000000000000000e+00,3.000000000000000000e+00,9.000000000000000000e+00,4.216308593750000000e-01,2.149047851562500000e-01,-8.671875000000000000e-01,1.550292968750000000e-01
1.000000000000000000e+00,4.000000000000000000e+00,-5.000000000000000000e+00,-6.000000000000000000e+00,-2.000000000000000000e+00,-4.000000000000000000e+00,-3.000000000000000000e+00,-5.000000000000000000e+00,4.216308593750000000e-01,2.149047851562500000e-01,-8.671875000000000000e-01,1.550292968750000000e-01
-6.000000000000000000e+00,8.000000000000000000e+00,5.000000000000000000e+00,-1.000000000000000000e+00,4.000000000000000000e+00,1.000000000000000000e+00,1.000000000000000000e+00,6.000000000000000000e+00,4.216308593750000000e-01,2.149047851562500000e-01,-8.671875000000000000e-01,1.550292968750000000e-01
1.000000000000000000e+00,-3.000000000000000000e+00,-3.000000000000000000e+00,-5.000000000000000000e+00,-3.000000000000000000e+00,0.000000000000000000e+00,-2.000000000000000000e+00,-5.000000000000000000e+00,4.215087890625000000e-01,2.153320312500000000e-01,-8.671264648437500000e-01,1.553344726562500000e-01
0.000000000000000000e+00,-3.000000000000000000e+00,-1.000000000000000000e+00,-1.000000000000000000e+00,-4.000000000000000000e+00,-3.000000000000000000e+00,-2.000000000000000000e+00,-1.000000000000000000e+00,4.215087890625000000e-01,2.153320312500000000e-01,-8.671264648437500000e-01,1.553344726562500000e-01
1.000000000000000000e+00,1.000000000000000000e+00,2.000000000000000000e+00,-6.000000000000000000e+00,-7.000000000000000000e+00,-3.000000000000000000e+00,-4.000000000000000000e+00,-2.000000000000000000e+00,4.215087890625000000e-01,2.153320312500000000e-01,-8.671264648437500000e-01,1.553344726562500000e-01
-9.000000000000000000e+00,-2.000000000000000000e+00,-2.000000000000000000e+00,-3.000000000000000000e+00,1.000000000000000000e+00,-1.000000000000000000e+00,2.000000000000000000e+00,0.000000000000000000e+00,4.215087890625000000e-01,2.153320312500000000e-01,-8.671264648437500000e-01,1.553344726562500000e-01
1.100000000000000000e+01,-3.000000000000000000e+00,-1.000000000000000000e+00,3.000000000000000000e+00,2.000000000000000000e+00,1.000000000000000000e+00,-1.000000000000000000e+00,0.000000000000000000e+00,4.216308593750000000e-01,2.154541015625000000e-01,-8.670043945312500000e-01,1.552124023437500000e-01
8.000000000000000000e+00,6.000000000000000000e+00,6.000000000000000000e+00,-9.000000000000000000e+00,-9.000000000000000000e+00,-5.000000000000000000e+00,-1.000000000000000000e+00,0.000000000000000000e+00,4.216308593750000000e-01,2.154541015625000000e-01,-8.670043945312500000e-01,1.552124023437500000e-01
0.000000000000000000e+00,-9.000000000000000000e+00,-1.100000000000000000e+01,-1.000000000000000000e+00,-8.000000000000000000e+00,-8.000000000000000000e+00,-1.000000000000000000e+01,-4.000000000000000000e+00,4.216308593750000000e-01,2.154541015625000000e-01,-8.670043945312500000e-01,1.552124023437500000e-01
2.300000000000000000e+01,2.900000000000000000e+01,1.900000000000000000e+01,1.000000000000000000e+00,6.000000000000000000e+00,7.000000000000000000e+00,3.000000000000000000e+00,1.000000000000000000e+00,4.216308593750000000e-01,2.154541015625000000e-01,-8.670043945312500000e-01,1.552124023437500000e-01
-2.600000000000000000e+01,-2.600000000000000000e+01,-6.000000000000000000e+00,9.000000000000000000e+00,1.000000000000000000e+01,0.000000000000000000e+00,-5.000000000000000000e+00,-8.000000000000000000e+00,4.218750000000000000e-01,2.152099609375000000e-01,-8.668823242187500000e-01,1.554565429687500000e-01
-2.800000000000000000e+01,-1.900000000000000000e+01,-1.500000000000000000e+01,0.000000000000000000e+00,1.000000000000000000e+01,7.000000000000000000e+00,5.000000000000000000e+00,3.000000000000000000e+00,4.218750000000000000e-01,2.152099609375000000e-01,-8.668823242187500000e-01,1.554565429687500000e-01
-1.000000000000000000e+00,-6.000000000000000000e+00,1.000000000000000000e+00,-5.000000000000000000e+00,-6.000000000000000000e+00,0.000000000000000000e+00,-2.000000000000000000e+00,-2.000000000000000000e+00,4.218750000000000000e-01,2.152099609375000000e-01,-8.668823242187500000e-01,1.554565429687500000e-01
-1.000000000000000000e+00,-5.000000000000000000e+00,1.000000000000000000e+00,2.000000000000000000e+00,-4.000000000000000000e+00,-1.000000000000000000e+00,1.000000000000000000e+00,3.000000000000000000e+00,4.218750000000000000e-01,2.152099609375000000e-01,-8.668823242187500000e-01,1.554565429687500000e-01
1.100000000000000000e+01,2.800000000000000000e+01,4.000000000000000000e+00,0.000000000000000000e+00,-5.000000000000000000e+00,-4.000000000000000000e+00,0.000000000000000000e+00,-1.000000000000000000e+00,4.219970703125000000e-01,2.155151367187500000e-01,-8.666992187500000000e-01,1.560058593750000000e-01
3.000000000000000000e+00,-1.000000000000000000e+00,2.000000000000000000e+00,-3.000000000000000000e+00,-5.000000000000000000e+00,-7.000000000000000000e+00,-3.000000000000000000e+00,0.000000000000000000e+00,4.219970703125000000e-01,2.155151367187500000e-01,-8.666992187500000000e-01,1.560058593750000000e-01
-3.000000000000000000e+00,-6.000000000000000000e+00,-4.000000000000000000e+00,-5.000000000000000000e+00,0.000000000000000000e+00,1.000000000000000000e+00,-2.000000000000000000e+00,-2.000000000000000000e+00,4.219970703125000000e-01,2.155151367187500000e-01,-8.666992187500000000e-01,1.560058593750000000e-01
-1.000000000000000000e+01,0.000000000000000000e+00,-5.000000000000000000e+00,0.000000000000000000e+00,-4.000000000000000000e+00,-7.000000000000000000e+00,-2.000000000000000000e+00,-1.000000000000000000e+00,4.219970703125000000e-01,2.155151367187500000e-01,-8.666992187500000000e-01,1.560058593750000000e-01
6.000000000000000000e+00,1.000000000000000000e+00,0.000000000000000000e+00,-2.000000000000000000e+00,-5.000000000000000000e+00,0.000000000000000000e+00,0.000000000000000000e+00,0.000000000000000000e+00,4.221801757812500000e-01,2.156982421875000000e-01,-8.665161132812500000e-01,1.560058593750000000e-01
-2.000000000000000000e+00,-7.000000000000000000e+00,-6.000000000000000000e+00,4.000000000000000000e+00,3.000000000000000000e+00,-3.000000000000000000e+00,-1.000000000000000000e+00,2.000000000000000000e+00,4.221801757812500000e-01,2.156982421875000000e-01,-8.665161132812500000e-01,1.560058593750000000e-01
3.000000000000000000e+00,-2.000000000000000000e+00,-3.000000000000000000e+00,3.000000000000000000e+00,1.000000000000000000e+00,4.000000000000000000e+00,3.000000000000000000e+00,0.000000000000000000e+00,4.221801757812500000e-01,2.156982421875000000e-01,-8.665161132812500000e-01,1.560058593750000000e-01
-5.000000000000000000e+00,1.000000000000000000e+00,1.000000000000000000e+00,-6.000000000000000000e+00,-4.000000000000000000e+00,-1.000000000000000000e+00,-1.000000000000000000e+00,3.000000000000000000e+00,4.221801757812500000e-01,2.156982421875000000e-01,-8.665161132812500000e-01,1.560058593750000000e-01
4.000000000000000000e+00,0.000000000000000000e+00,-4.000000000000000000e+00,9.000000000000000000e+00,2.000000000000000000e+00,-1.000000000000000000e+00,-1.000000000000000000e+00,-4.000000000000000000e+00,4.223022460937500000e-01,2.155151367187500000e-01,-8.665771484375000000e-01,1.558227539062500000e-01
3.000000000000000000e+00,1.700000000000000000e+01,0.000000000000000000e+00,-1.500000000000000000e+01,-1.000000000000000000e+01,-4.000000000000000000e+00,-5.000000000000000000e+00,3.000000000000000000e+00,4.223022460937500000e-01,2.155151367187500000e-01,-8.665771484375000000e-01,1.558227539062500000e-01
7.000000000000000000e+00,-1.900000000000000000e+01,-1.000000000000000000e+00,-4.000000000000000000e+00,-3.000000000000000000e+00,-5.000000000000000000e+00,-1.000000000000000000e+00,-1.000000000000000000e+00,4.223022460937500000e-01,2.155151367187500000e-01,-8.665771484375000000e-01,1.558227539062500000e-01
-2.600000000000000000e+01,-2.000000000000000000e+00,7.000000000000000000e+00,-2.000000000000000000e+00,-1.000000000000000000e+00,-1.000000000000000000e+00,-3.000000000000000000e+00,3.000000000000000000e+00,4.223022460937500000e-01,2.155151367187500000e-01,-8.665771484375000000e-01,1.558227539062500000e-01
-1.000000000000000000e+01,-2.200000000000000000e+01,-8.000000000000000000e+00,-5.000000000000000000e+00,-1.000000000000000000e+01,-5.000000000000000000e+00,-4.000000000000000000e+00,-1.300000000000000000e+01,4.222412109375000000e-01,2.155151367187500000e-01,-8.665771484375000000e-01,1.558227539062500000e-01
1.100000000000000000e+01,3.000000000000000000e+00,-6.000000000000000000e+00,4.000000000000000000e+00,4.000000000000000000e+00,0.000000000000000000e+00,-1.000000000000000000e+00,2.000000000000000000e+00,4.222412109375000000e-01,2.155151367187500000e-01,-8.665771484375000000e-01,1.558227539062500000e-01
5.000000000000000000e+00,1.600000000000000000e+01,7.000000000000000000e+00,-1.000000000000000000e+00,4.000000000000000000e+00,2.000000000000000000e+00,0.000000000000000000e+00,-2.000000000000000000e+00,4.222412109375000000e-01,2.155151367187500000e-01,-8.665771484375000000e-01,1.558227539062500000e-01
3.000000000000000000e+00,1.000000000000000000e+00,-3.000000000000000000e+00,1.000000000000000000e+00,1.000000000000000000e+00,1.000000000000000000e+00,2.000000000000000000e+00,6.000000000000000000e+00,4.222412109375000000e-01,2.155151367187500000e-01,-8.665771484375000000e-01,1.558227539062500000e-01
2.000000000000000000e+00,5.000000000000000000e+00,2.000000000000000000e+00,-1.000000000000000000e+00,-1.000000000000000000e+00,0.000000000000000000e+00,1.000000000000000000e+00,1.000000000000000000e+00,4.221801757812500000e-01,2.155151367187500000e-01,-8.666381835937500000e-01,1.558227539062500000e-01
1.000000000000000000e+00,-1.000000000000000000e+00,5.000000000000000000e+00,0.000000000000000000e+00,-3.000000000000000000e+00,-3.000000000000000000e+00,-2.000000000000000000e+00,-5.000000000000000000e+00,4.221801757812500000e-01,2.155151367187500000e-01,-8.666381835937500000e-01,1.558227539062500000e-01
1.000000000000000000e+00,3.000000000000000000e+00,5.000000000000000000e+00,1.000000000000000000e+00,-6.000000000000000000e+00,-3.000000000000000000e+00,0.000000000000000000e+00,3.000000000000000000e+00,4.221801757812500000e-01,2.155151367187500000e-01,-8.666381835937500000e-01,1.558227539062500000e-01
-1.000000000000000000e+00,-8.000000000000000000e+00,-8.000000000000000000e+00,0.000000000000000000e+00,4.000000000000000000e+00,2.000000000000000000e+00,-2.000000000000000000e+00,-3.000000000000000000e+00,4.221801757812500000e-01,2.155151367187500000e-01,-8.666381835937500000e-01,1.558227539062500000e-01
8.000000000000000000e+00,2.000000000000000000e+00,0.000000000000000000e+00,1.000000000000000000e+00,3.000000000000000000e+00,3.000000000000000000e+00,0.000000000000000000e+00,3.000000000000000000e+00,4.222412109375000000e-01,2.154541015625000000e-01,-8.666381835937500000e-01,1.556396484375000000e-01
-2.000000000000000000e+00,4.000000000000000000e+00,-5.000000000000000000e+00,-3.000000000000000000e+00,-2.000000000000000000e+00,-1.000000000000000000e+00,1.000000000000000000e+00,-4.000000000000000000e+00,4.222412109375000000e-01,2.154541015625000000e-01,-8.666381835937500000e-01,1.556396484375000000e-01
-2.000000000000000000e+00,5.000000000000000000e+00,9.000000000000000000e+00,-1.000000000000000000e+00,-4.000000000000000000e+00,-3.000000000000000000e+00,0.000000000000000000e+00,1.000000000000000000e+00,4.222412109375000000e-01,2.154541015625000000e-01,-8.666381835937500000e-01,1.556396484375000000e-01
5.000000000000000000e+00,-4.000000000000000000e+00,-2.800000000000000000e+01,-3.000000000000000000e+00,0.000000000000000000e+00,0.000000000000000000e+00,1.000000000000000000e+00,-4.000000000000000000e+00,4.222412109375000000e-01,2.154541015625000000e-01,-8.666381835937500000e-01,1.556396484375000000e-01
1.000000000000000000e+00,-1.800000000000000000e+01,6.000000000000000000e+00,-2.000000000000000000e+00,-2.000000000000000000e+00,-5.000000000000000000e+00,-3.000000000000000000e+00,-4.000000000000000000e+00,4.222412109375000000e-01,2.154541015625000000e-01,-8.666381835937500000e-01,1.556396484375000000e-01
-1.000000000000000000e+01,2.000000000000000000e+00,-1.000000000000000000e+00,-2.000000000000000000e+00,-5.000000000000000000e+00,-1.000000000000000000e+00,-1.000000000000000000e+00,1.000000000000000000e+00,4.222412109375000000e-01,2.154541015625000000e-01,-8.666381835937500000e-01,1.556396484375000000e-01
1.000000000000000000e+01,5.000000000000000000e+00,5.000000000000000000e+00,8.000000000000000000e+00,1.100000000000000000e+01,2.000000000000000000e+00,1.000000000000000000e+00,4.000000000000000000e+00,4.222412109375000000e-01,2.154541015625000000e-01,-8.666381835937500000e-01,1.556396484375000000e-01
-8.000000000000000000e+00,3.000000000000000000e+00,9.000000000000000000e+00,4.000000000000000000e+00,3.000000000000000000e+00,4.000000000000000000e+00,1.000000000000000000e+00,0.000000000000000000e+00,4.222412109375000000e-01,2.154541015625000000e-01,-8.666381835937500000e-01,1.556396484375000000e-01
1.400000000000000000e+01,9.000000000000000000e+00,-4.000000000000000000e+00,-2.000000000000000000e+00,1.000000000000000000e+00,-1.000000000000000000e+00,-1.000000000000000000e+00,1.000000000000000000e+00,4.221191406250000000e-01,2.156372070312500000e-01,-8.666381835937500000e-01,1.557617187500000000e-01
1.000000000000000000e+00,-7.000000000000000000e+00,-2.000000000000000000e+00,-2.000000000000000000e+00,-8.000000000000000000e+00,-5.000000000000000000e+00,-4.000000000000000000e+00,-3.000000000000000000e+00,4.221191406250000000e-01,2.156372070312500000e-01,-8.666381835937500000e-01,1.557617187500000000e-01
-1.000000000000000000e+01,2.000000000000000000e+00,-5.000000000000000000e+00,-8.000000000000000000e+00,-7.000000000000000000e+00,-5.000000000000000000e+00,-6.000000000000000000e+00,-4.000000000000000000e+00,4.221191406250000000e-01,2.156372070312500000e-01,-8.666381835937500000e-01,1.557617187500000000e-01
1.200000000000000000e+01,2.000000000000000000e+00,0.000000000000000000e+00,-2.000000000000000000e+00,-1.000000000000000000e+00,-1.000000000000000000e+00,1.000000000000000000e+00,-2.000000000000000000e+00,4.221191406250000000e-01,2.156372070312500000e-01,-8.666381835937500000e-01,1.557617187500000000e-01
-1.400000000000000000e+01,0.000000000000000000e+00,-2.000000000000000000e+00,1.000000000000000000e+00,-1.000000000000000000e+00,0.000000000000000000e+00,1.000000000000000000e+00,1.000000000000000000e+00,4.220581054687500000e-01,2.159423828125000000e-01,-8.665771484375000000e-01,1.555786132812500000e-01
-1.000000000000000000e+00,-2.000000000000000000e+00,5.000000000000000000e+00,2.000000000000000000e+00,2.000000000000000000e+00,-1.000000000000000000e+00,-2.000000000000000000e+00,-2.000000000000000000e+00,4.220581054687500000e-01,2.159423828125000000e-01,-8.665771484375000000e-01,1.555786132812500000e-01
3.000000000000000000e+00,-6.000000000000000000e+00,-1.100000000000000000e+01,-5.000000000000000000e+00,-3.000000000000000000e+00,-1.000000000000000000e+00,0.000000000000000000e+00,-4.000000000000000000e+00,4.220581054687500000e-01,2.159423828125000000e-01,-8.665771484375000000e-01,1.555786132812500000e-01
-9.000000000000000000e+00,-7.000000000000000000e+00,6.000000000000000000e+00,-3.000000000000000000e+00,-2.000000000000000000e+00,-5.000000000000000000e+00,-3.000000000000000000e+00,-1.000000000000000000e+00,4.220581054687500000e-01,2.159423828125000000e-01,-8.665771484375000000e-01,1.555786132812500000e-01
1.000000000000000000e+00,-8.000000000000000000e+00,1.000000000000000000e+00,0.000000000000000000e+00,2.000000000000000000e+00,-1.000000000000000000e+00,-3.000000000000000000e+00,0.000000000000000000e+00,4.222412109375000000e-01,2.157592773437500000e-01,-8.665771484375000000e-01,1.555175781250000000e-01
1.000000000000000000e+01,1.000000000000000000e+00,2.000000000000000000e+00,1.000000000000000000e+00,0.000000000000000000e+00,0.000000000000000000e+00,0.000000000000000000e+00,-2.000000000000000000e+00,4.222412109375000000e-01,2.157592773437500000e-01,-8.665771484375000000e-01,1.555175781250000000e-01
-1.400000000000000000e+01,-9.000000000000000000e+00,-8.000000000000000000e+00,-4.000000000000000000e+00,-1.000000000000000000e+00,-2.000000000000000000e+00,-2.000000000000000000e+00,-2.000000000000000000e+00,4.222412109375000000e-01,2.157592773437500000e-01,-8.665771484375000000e-01,1.555175781250000000e-01
-2.000000000000000000e+00,3.000000000000000000e+00,-5.000000000000000000e+00,2.000000000000000000e+00,0.000000000000000000e+00,3.000000000000000000e+00,-2.000000000000000000e+00,-5.000000000000000000e+00,4.222412109375000000e-01,2.157592773437500000e-01,-8.665771484375000000e-01,1.555175781250000000e-01
1.000000000000000000e+00,3.000000000000000000e+01,1.000000000000000000e+01,-2.000000000000000000e+00,-2.000000000000000000e+00,-2.000000000000000000e+00,-1.000000000000000000e+00,1.000000000000000000e+00,4.224243164062500000e-01,2.156372070312500000e-01,-8.665161132812500000e-01,1.554565429687500000e-01
1.000000000000000000e+00,-1.200000000000000000e+01,-1.500000000000000000e+01,7.000000000000000000e+00,2.000000000000000000e+00,2.000000000000000000e+00,2.000000000000000000e+00,1.000000000000000000e+00,4.224243164062500000e-01,2.156372070312500000e-01,-8.665161132812500000e-01,1.554565429687500000e-01
2.000000000000000000e+00,-3.500000000000000000e+01,-9.000000000000000000e+00,-2.300000000000000000e+01,-9.000000000000000000e+00,-5.000000000000000000e+00,-3.000000000000000000e+00,-3.000000000000000000e+00,4.224243164062500000e-01,2.156372070312500000e-01,-8.665161132812500000e-01,1.554565429687500000e-01
-6.000000000000000000e+00,1.000000000000000000e+00,-3.000000000000000000e+00,0.000000000000000000e+00,1.000000000000000000e+00,-2.000000000000000000e+00,-1.000000000000000000e+00,-4.000000000000000000e+00,4.224243164062500000e-01,2.156372070312500000e-01,-8.665161132812500000e-01,1.554565429687500000e-01
1.000000000000000000e+00,-7.000000000000000000e+00,7.000000000000000000e+00,0.000000000000000000e+00,2.000000000000000000e+00,0.000000000000000000e+00,-2.000000000000000000e+00,-1.000000000000000000e+00,4.224243164062500000e-01,2.156372070312500000e-01,-8.665161132812500000e-01,1.554565429687500000e-01
1.000000000000000000e+00,1.500000000000000000e+01,-8.000000000000000000e+00,7.000000000000000000e+00,1.000000000000000000e+00,-2.000000000000000000e+00,-1.000000000000000000e+00,1.000000000000000000e+00,4.224243164062500000e-01,2.156372070312500000e-01,-8.665161132812500000e-01,1.554565429687500000e-01
1.000000000000000000e+01,6.000000000000000000e+00,6.000000000000000000e+00,6.000000000000000000e+00,4.000000000000000000e+00,4.000000000000000000e+00,-1.000000000000000000e+00,-1.000000000000000000e+00,4.224243164062500000e-01,2.156372070312500000e-01,-8.665161132812500000e-01,1.554565429687500000e-01
3.000000000000000000e+00,-7.000000000000000000e+00,-8.000000000000000000e+00,-2.000000000000000000e+00,-3.000000000000000000e+00,-3.000000000000000000e+00,-2.000000000000000000e+00,0.000000000000000000e+00,4.224243164062500000e-01,2.156372070312500000e-01,-8.665161132812500000e-01,1.554565429687500000e-01
-1.400000000000000000e+01,6.000000000000000000e+00,3.000000000000000000e+00,-7.000000000000000000e+00,-5.000000000000000000e+00,0.000000000000000000e+00,-3.000000000000000000e+00,-7.000000000000000000e+00,4.223632812500000000e-01,2.156372070312500000e-01,-8.665771484375000000e-01,1.554565429687500000e-01
-2.000000000000000000e+00,-1.600000000000000000e+01,2.000000000000000000e+00,-5.000000000000000000e+00,0.000000000000000000e+00,-3.000000000000000000e+00,-1.000000000000000000e+00,-2.000000000000000000e+00,4.223632812500000000e-01,2.156372070312500000e-01,-8.665771484375000000e-01,1.554565429687500000e-01
-7.000000000000000000e+00,1.000000000000000000e+00,-9.000000000000000000e+00,2.000000000000000000e+00,0.000000000000000000e+00,1.000000000000000000e+00,4.000000000000000000e+00,0.000000000000000000e+00,4.223632812500000000e-01,2.156372070312500000e-01,-8.665771484375000000e-01,1.554565429687500000e-01
4.000000000000000000e+00,-4.000000000000000000e+00,2.000000000000000000e+00,-5.000000000000000000e+00,-5.000000000000000000e+00,-2.000000000000000000e+00,0.000000000000000000e+00,0.000000000000000000e+00,4.223632812500000000e-01,2.156372070312500000e-01,-8.665771484375000000e-01,1.554565429687500000e-01
3.000000000000000000e+00,3.000000000000000000e+00,-5.000000000000000000e+00,-1.000000000000000000e+00,-2.000000000000000000e+00,0.000000000000000000e+00,0.000000000000000000e+00,3.000000000000000000e+00,4.221191406250000000e-01,2.159423828125000000e-01,-8.665161132812500000e-01,1.558227539062500000e-01
1.000000000000000000e+00,9.000000000000000000e+00,4.000000000000000000e+00,3.000000000000000000e+00,2.000000000000000000e+00,0.000000000000000000e+00,1.000000000000000000e+00,1.000000000000000000e+00,4.221191406250000000e-01,2.159423828125000000e-01,-8.665161132812500000e-01,1.558227539062500000e-01
-2.000000000000000000e+00,0.000000000000000000e+00,1.000000000000000000e+00,2.000000000000000000e+00,-2.000000000000000000e+00,-1.000000000000000000e+00,0.000000000000000000e+00,-1.000000000000000000e+00,4.221191406250000000e-01,2.159423828125000000e-01,-8.665161132812500000e-01,1.558227539062500000e-01
-8.000000000000000000e+00,-2.100000000000000000e+01,-6.000000000000000000e+00,2.000000000000000000e+00,-1.000000000000000000e+00,-1.000000000000000000e+00,-2.000000000000000000e+00,-2.000000000000000000e+00,4.221191406250000000e-01,2.159423828125000000e-01,-8.665161132812500000e-01,1.558227539062500000e-01
-1.000000000000000000e+00,-6.000000000000000000e+00,1.000000000000000000e+00,-1.000000000000000000e+00,-1.000000000000000000e+00,-2.000000000000000000e+00,4.000000000000000000e+00,0.000000000000000000e+00,4.218139648437500000e-01,2.160644531250000000e-01,-8.666381835937500000e-01,1.559448242187500000e-01
-8.000000000000000000e+00,-5.000000000000000000e+00,-1.200000000000000000e+01,-3.000000000000000000e+00,-4.000000000000000000e+00,1.000000000000000000e+00,-2.000000000000000000e+00,-1.000000000000000000e+00,4.218139648437500000e-01,2.160644531250000000e-01,-8.666381835937500000e-01,1.559448242187500000e-01
2.000000000000000000e+01,1.100000000000000000e+01,7.000000000000000000e+00,0.000000000000000000e+00,4.000000000000000000e+00,2.000000000000000000e+00,4.000000000000000000e+00,2.000000000000000000e+00,4.218139648437500000e-01,2.160644531250000000e-01,-8.666381835937500000e-01,1.559448242187500000e-01
-8.000000000000000000e+00,-6.000000000000000000e+00,1.000000000000000000e+00,-2.000000000000000000e+00,1.000000000000000000e+00,-4.000000000000000000e+00,-4.000000000000000000e+00,-2.000000000000000000e+00,4.218139648437500000e-01,2.160644531250000000e-01,-8.666381835937500000e-01,1.559448242187500000e-01
-1.000000000000000000e+00,-2.000000000000000000e+00,4.000000000000000000e+00,7.000000000000000000e+00,1.000000000000000000e+00,0.000000000000000000e+00,-1.000000000000000000e+00,1.000000000000000000e+00,4.216918945312500000e-01,2.157592773437500000e-01,-8.668212890625000000e-01,1.557617187500000000e-01
8.000000000000000000e+00,-3.000000000000000000e+00,1.000000000000000000e+00,-6.000000000000000000e+00,3.000000000000000000e+00,1.000000000000000000e+00,0.000000000000000000e+00,-1.000000000000000000e+00,4.216918945312500000e-01,2.157592773437500000e-01,-8.668212890625000000e-01,1.557617187500000000e-01
-2.300000000000000000e+01,1.400000000000000000e+01,0.000000000000000000e+00,0.000000000000000000e+00,-6.000000000000000000e+00,-2.000000000000000000e+00,0.000000000000000000e+00,1.000000000000000000e+00,4.216918945312500000e-01,2.157592773437500000e-01,-8.668212890625000000e-01,1.557617187500000000e-01
8.000000000000000000e+00,-1.100000000000000000e+01,-4.000000000000000000e+00,1.000000000000000000e+00,4.000000000000000000e+00,-1.000000000000000000e+00,0.000000000000000000e+00,2.000000000000000000e+00,4.216918945312500000e-01,2.157592773437500000e-01,-8.668212890625000000e-01,1.557617187500000000e-01
1.000000000000000000e+00,5.000000000000000000e+00,-8.000000000000000000e+00,-1.400000000000000000e+01,-8.000000000000000000e+00,-4.000000000000000000e+00,-1.000000000000000000e+00,-3.000000000000000000e+00,4.213256835937500000e-01,2.155151367187500000e-01,-8.670654296875000000e-01,1.557006835937500000e-01
-3.000000000000000000e+00,-7.000000000000000000e+00,7.000000000000000000e+00,2.000000000000000000e+01,8.000000000000000000e+00,3.000000000000000000e+00,0.000000000000000000e+00,1.000000000000000000e+00,4.213256835937500000e-01,2.155151367187500000e-01,-8.670654296875000000e-01,1.557006835937500000e-01
1.000000000000000000e+00,-6.000000000000000000e+00,-1.700000000000000000e+01,-5.000000000000000000e+00,-5.000000000000000000e+00,-1.000000000000000000e+00,-3.000000000000000000e+00,0.000000000000000000e+00,4.213256835937500000e-01,2.155151367187500000e-01,-8.670654296875000000e-01,1.557006835937500000e-01
-2.000000000000000000e+00,7.000000000000000000e+00,2.000000000000000000e+00,3.000000000000000000e+00,5.000000000000000000e+00,4.000000000000000000e+00,0.000000000000000000e+00,0.000000000000000000e+00,4.213256835937500000e-01,2.155151367187500000e-01,-8.670654296875000000e-01,1.557006835937500000e-01
2.000000000000000000e+00,3.000000000000000000e+00,0.000000000000000000e+00,-1.000000000000000000e+00,-1.000000000000000000e+00,0.000000000000000000e+00,-1.000000000000000000e+00,3.000000000000000000e+00,4.208984375000000000e-01,2.156372070312500000e-01,-8.671875000000000000e-01,1.558227539062500000e-01
-6.000000000000000000e+00,-7.000000000000000000e+00,0.000000000000000000e+00,-1.000000000000000000e+01,-1.200000000000000000e+01,-3.000000000000000000e+00,1.000000000000000000e+00,0.000000000000000000e+00,4.208984375000000000e-01,2.156372070312500000e-01,-8.671875000000000000e-01,1.558227539062500000e-01
-6.000000000000000000e+00,1.000000000000000000e+00,-1.000000000000000000e+00,5.000000000000000000e+00,-4.000000000000000000e+00,-5.000000000000000000e+00,-3.000000000000000000e+00,-2.000000000000000000e+00,4.208984375000000000e-01,2.156372070312500000e-01,-8.671875000000000000e-01,1.558227539062500000e-01
-1.200000000000000000e+01,1.100000000000000000e+01,7.000000000000000000e+00,-1.500000000000000000e+01,-7.000000000000000000e+00,-4.000000000000000000e+00,-4.000000000000000000e+00,-3.000000000000000000e+00,4.208984375000000000e-01,2.156372070312500000e-01,-8.671875000000000000e-01,1.558227539062500000e-01
2.000000000000000000e+01,1.300000000000000000e+01,-1.100000000000000000e+01,8.000000000000000000e+00,8.000000000000000000e+00,1.000000000000000000e+00,1.000000000000000000e+00,3.000000000000000000e+00,4.203491210937500000e-01,2.161865234375000000e-01,-8.673095703125000000e-01,1.560668945312500000e-01
-1.100000000000000000e+01,-5.500000000000000000e+01,-4.000000000000000000e+00,-1.300000000000000000e+01,-5.000000000000000000e+00,-5.000000000000000000e+00,-4.000000000000000000e+00,-5.000000000000000000e+00,4.203491210937500000e-01,2.161865234375000000e-01,-8.673095703125000000e-01,1.560668945312500000e-01
-2.700000000000000000e+01,-7.000000000000000000e+00,2.000000000000000000e+00,3.000000000000000000e+00,1.000000000000000000e+00,-1.000000000000000000e+00,-4.000000000000000000e+00,-3.000000000000000000e+00,4.203491210937500000e-01,2.161865234375000000e-01,-8.673095703125000000e-01,1.560668945312500000e-01
9.000000000000000000e+00,-2.000000000000000000e+00,3.000000000000000000e+00,1.000000000000000000e+00,-6.000000000000000000e+00,-4.000000000000000000e+00,1.000000000000000000e+00,0.000000000000000000e+00,4.203491210937500000e-01,2.161865234375000000e-01,-8.673095703125000000e-01,1.560668945312500000e-01
-1.000000000000000000e+01,1.300000000000000000e+01,-9.000000000000000000e+00,-1.000000000000000000e+00,-2.000000000000000000e+00,2.000000000000000000e+00,2.000000000000000000e+00,-1.000000000000000000e+00,4.198608398437500000e-01,2.164306640625000000e-01,-8.674926757812500000e-01,1.561889648437500000e-01
0.000000000000000000e+00,3.000000000000000000e+00,5.000000000000000000e+00,8.000000000000000000e+00,-5.000000000000000000e+00,-3.000000000000000000e+00,-1.000000000000000000e+00,0.000000000000000000e+00,4.198608398437500000e-01,2.164306640625000000e-01,-8.674926757812500000e-01,1.561889648437500000e-01
1.900000000000000000e+01,6.000000000000000000e+00,6.000000000000000000e+00,2.000000000000000000e+00,9.000000000000000000e+00,4.000000000000000000e+00,3.000000000000000000e+00,5.000000000000000000e+00,4.198608398437500000e-01,2.164306640625000000e-01,-8.674926757812500000e-01,1.561889648437500000e-01
-1.600000000000000000e+01,0.000000000000000000e+00,-8.000000000000000000e+00,-2.000000000000000000e+00,6.000000000000000000e+00,4.000000000000000000e+00,1.000000000000000000e+00,-3.000000000000000000e+00,4.198608398437500000e-01,2.164306640625000000e-01,-8.674926757812500000e-01,1.561889648437500000e-01
-7.000000000000000000e+00,-1.600000000000000000e+01,-1.000000000000000000e+00,-4.000000000000000000e+00,-4.000000000000000000e+00,-3.000000000000000000e+00,-3.000000000000000000e+00,-3.000000000000000000e+00,4.196166992187500000e-01,2.163085937500000000e-01,-8.676147460937500000e-01,1.560058593750000000e-01
-3.000000000000000000e+00,8.000000000000000000e+00,-1.000000000000000000e+00,-1.000000000000000000e+00,2.000000000000000000e+00,-1.000000000000000000e+00,-2.000000000000000000e+00,-2.000000000000000000e+00,4.196166992187500000e-01,2.163085937500000000e-01,-8.676147460937500000e-01,1.560058593750000000e-01
7.000000000000000000e+00,-6.000000000000000000e+00,-2.000000000000000000e+00,-6.000000000000000000e+00,-6.000000000000000000e+00,-2.000000000000000000e+00,1.000000000000000000e+00,-2.000000000000000000e+00,4.196166992187500000e-01,2.163085937500000000e-01,-8.676147460937500000e-01,1.560058593750000000e-01
1.800000000000000000e+01,1.700000000000000000e+01,-2.000000000000000000e+00,-1.000000000000000000e+00,-4.000000000000000000e+00,-3.000000000000000000e+00,-3.000000000000000000e+00,-2.000000000000000000e+00,4.196166992187500000e-01,2.163085937500000000e-01,-8.676147460937500000e-01,1.560058593750000000e-01
-1.500000000000000000e+01,-1.300000000000000000e+01,-2.000000000000000000e+00,-1.200000000000000000e+01,-6.000000000000000000e+00,-3.000000000000000000e+00,-3.000000000000000000e+00,-2.000000000000000000e+00,4.193725585937500000e-01,2.162475585937500000e-01,-8.677978515625000000e-01,1.560058593750000000e-01
1.000000000000000000e+00,1.200000000000000000e+01,-2.000000000000000000e+00,2.000000000000000000e+00,1.000000000000000000e+00,-2.000000000000000000e+00,-3.000000000000000000e+00,-4.000000000000000000e+00,4.193725585937500000e-01,2.162475585937500000e-01,-8.677978515625000000e-01,1.560058593750000000e-01
1.000000000000000000e+01,1.000000000000000000e+00,1.400000000000000000e+01,5.000000000000000000e+00,4.000000000000000000e+00,-1.000000000000000000e+00,0.000000000000000000e+00,1.000000000000000000e+00,4.193725585937500000e-01,2.162475585937500000e-01,-8.677978515625000000e-01,1.560058593750000000e-01
4.000000000000000000e+00,-3.000000000000000000e+00,-5.000000000000000000e+00,-4.000000000000000000e+00,1.000000000000000000e+00,0.000000000000000000e+00,-1.000000000000000000e+00,-1.000000000000000000e+00,4.193725585937500000e-01,2.162475585937500000e-01,-8.677978515625000000e-01,1.560058593750000000e-01
-3.000000000000000000e+00,-2.000000000000000000e+00,-8.000000000000000000e+00,-5.000000000000000000e+00,-5.000000000000000000e+00,-1.000000000000000000e+00,-2.000000000000000000e+00,-2.000000000000000000e+00,4.191894531250000000e-01,2.161254882812500000e-01,-8.678588867187500000e-01,1.560668945312500000e-01
5.000000000000000000e+00,1.100000000000000000e+01,1.100000000000000000e+01,-4.000000000000000000e+00,-6.000000000000000000e+00,-4.000000000000000000e+00,-3.000000000000000000e+00,1.000000000000000000e+00,4.191894531250000000e-01,2.161254882812500000e-01,-8.678588867187500000e-01,1.560668945312500000e-01
-7.000000000000000000e+00,-7.000000000000000000e+00,-4.000000000000000000e+00,-4.000000000000000000e+00,-8.000000000000000000e+00,-6.000000000000000000e+00,-4.000000000000000000e+00,-1.000000000000000000e+00,4.191894531250000000e-01,2.161254882812500000e-01,-8.678588867187500000e-01,1.560668945312500000e-01
-1.900000000000000000e+01,-9.000000000000000000e+00,6.000000000000000000e+00,5.000000000000000000e+00,-3.000000000000000000e+00,0.000000000000000000e+00,2.000000000000000000e+00,0.000000000000000000e+00,4.191894531250000000e-01,2.161254882812500000e-01,-8.678588867187500000e-01,1.560668945312500000e-01
6.000000000000000000e+00,-7.000000000000000000e+00,3.000000000000000000e+00,5.000000000000000000e+00,7.000000000000000000e+00,5.000000000000000000e+00,2.000000000000000000e+00,1.000000000000000000e+00,4.189453125000000000e-01,2.162475585937500000e-01,-8.679199218750000000e-01,1.562500000000000000e-01
8.000000000000000000e+00,1.700000000000000000e+01,4.000000000000000000e+00,-7.000000000000000000e+00,-3.000000000000000000e+00,-2.000000000000000000e+00,0.000000000000000000e+00,0.000000000000000000e+00,4.189453125000000000e-01,2.162475585937500000e-01,-8.679199218750000000e-01,1.562500000000000000e-01
-1.200000000000000000e+01,-3.000000000000000000e+00,-1.100000000000000000e+01,-1.000000000000000000e+00,1.000000000000000000e+00,0.000000000000000000e+00,-1.000000000000000000e+00,-3.000000000000000000e+00,4.189453125000000000e-01,2.162475585937500000e-01,-8.679199218750000000e-01,1.562500000000000000e-01
-1.900000000000000000e+01,-1.300000000000000000e+01,-1.200000000000000000e+01,0.000000000000000000e+00,1.000000000000000000e+00,-3.000000000000000000e+00,-1.000000000000000000e+00,-1.000000000000000000e+00,4.189453125000000000e-01,2.162475585937500000e-01,-8.679199218750000000e-01,1.562500000000000000e-01
-2.000000000000000000e+00,-2.000000000000000000e+00,2.000000000000000000e+00,8.000000000000000000e+00,-3.000000000000000000e+00,-4.000000000000000000e+00,-3.000000000000000000e+00,-1.000000000000000000e+00,4.184570312500000000e-01,2.162475585937500000e-01,-8.681030273437500000e-01,1.566772460937500000e-01
6.000000000000000000e+00,1.200000000000000000e+01,2.000000000000000000e+00,-6.000000000000000000e+00,4.000000000000000000e+00,1.000000000000000000e+00,-3.000000000000000000e+00,1.000000000000000000e+00,4.184570312500000000e-01,2.162475585937500000e-01,-8.681030273437500000e-01,1.566772460937500000e-01
-2.000000000000000000e+00,2.000000000000000000e+00,3.000000000000000000e+00,-2.000000000000000000e+00,-1.200000000000000000e+01,-2.000000000000000000e+00,0.000000000000000000e+00,-2.000000000000000000e+00,4.184570312500000000e-01,2.162475585937500000e-01,-8.681030273437500000e-01,1.566772460937500000e-01
2.000000000000000000e+00,3.000000000000000000e+00,7.000000000000000000e+00,-3.000000000000000000e+00,6.000000000000000000e+00,-3.000000000000000000e+00,-2.000000000000000000e+00,-2.000000000000000000e+00,4.184570312500000000e-01,2.162475585937500000e-01,-8.681030273437500000e-01,1.566772460937500000e-01
3.000000000000000000e+00,4.000000000000000000e+00,5.000000000000000000e+00,1.100000000000000000e+01,1.600000000000000000e+01,9.000000000000000000e+00,3.000000000000000000e+00,2.000000000000000000e+00,4.180297851562500000e-01,2.163696289062500000e-01,-8.682250976562500000e-01,1.567993164062500000e-01
-9.000000000000000000e+00,-1.200000000000000000e+01,-2.200000000000000000e+01,-4.000000000000000000e+00,-3.000000000000000000e+00,0.000000000000000000e+00,1.000000000000000000e+00,-3.000000000000000000e+00,4.180297851562500000e-01,2.163696289062500000e-01,-8.682250976562500000e-01,1.567993164062500000e-01
6.000000000000000000e+00,2.000000000000000000e+00,1.000000000000000000e+01,-4.000000000000000000e+00,-2.000000000000000000e+00,-1.000000000000000000e+00,-5.000000000000000000e+00,-2.000000000000000000e+00,4.180297851562500000e-01,2.163696289062500000e-01,-8.682250976562500000e-01,1.567993164062500000e-01
8.000000000000000000e+00,-3.000000000000000000e+00,-6.000000000000000000e+00,0.000000000000000000e+00,-9.000000000000000000e+00,-4.000000000000000000e+00,0.000000000000000000e+00,-1.000000000000000000e+00,4.180297851562500000e-01,2.163696289062500000e-01,-8.682250976562500000e-01,1.567993164062500000e-01
1.000000000000000000e+00,0.000000000000000000e+00,1.000000000000000000e+00,1.000000000000000000e+00,-2.000000000000000000e+00,-2.000000000000000000e+00,2.000000000000000000e+00,-1.000000000000000000e+00,4.175415039062500000e-01,2.163085937500000000e-01,-8.684692382812500000e-01,1.570434570312500000e-01
-2.000000000000000000e+00,0.000000000000000000e+00,3.000000000000000000e+00,-4.000000000000000000e+00,-2.000000000000000000e+00,0.000000000000000000e+00,-3.000000000000000000e+00,-3.000000000000000000e+00,4.175415039062500000e-01,2.163085937500000000e-01,-8.684692382812500000e-01,1.570434570312500000e-01
-1.000000000000000000e+00,5.000000000000000000e+00,-1.000000000000000000e+00,-4.000000000000000000e+00,-5.000000000000000000e+00,-5.000000000000000000e+00,-2.000000000000000000e+00,-1.000000000000000000e+00,4.175415039062500000e-01,2.163085937500000000e-01,-8.684692382812500000e-01,1.570434570312500000e-01
1.500000000000000000e+01,2.000000000000000000e+00,1.200000000000000000e+01,4.000000000000000000e+00,2.000000000000000000e+00,4.000000000000000000e+00,1.000000000000000000e+00,1.000000000000000000e+00,4.175415039062500000e-01,2.163085937500000000e-01,-8.684692382812500000e-01,1.570434570312500000e-01
-1.600000000000000000e+01,9.000000000000000000e+00,-1.800000000000000000e+01,1.100000000000000000e+01,1.200000000000000000e+01,3.000000000000000000e+00,2.000000000000000000e+00,-1.000000000000000000e+00,4.172363281250000000e-01,2.163085937500000000e-01,-8.685913085937500000e-01,1.572875976562500000e-01
-6.000000000000000000e+00,-3.400000000000000000e+01,9.000000000000000000e+00,-2.000000000000000000e+00,3.000000000000000000e+00,0.000000000000000000e+00,1.000000000000000000e+00,0.000000000000000000e+00,4.172363281250000000e-01,2.163085937500000000e-01,-8.685913085937500000e-01,1.572875976562500000e-01
-6.000000000000000000e+00,-5.000000000000000000e+00,-8.000000000000000000e+00,-3.000000000000000000e+00,-2.000000000000000000e+00,0.000000000000000000e+00,-3.000000000000000000e+00,-5.000000000000000000e+00,4.172363281250000000e-01,2.163085937500000000e-01,-8.685913085937500000e-01,1.572875976562500000e-01
-4.000000000000000000e+00,-1.100000000000000000e+01,-3.000000000000000000e+00,-8.000000000000000000e+00,-1.100000000000000000e+01,-4.000000000000000000e+00,-5.000000000000000000e+00,-1.000000000000000000e+00,4.172363281250000000e-01,2.163085937500000000e-01,-8.685913085937500000e-01,1.572875976562500000e-01
6.000000000000000000e+00,5.000000000000000000e+00,-1.000000000000000000e+00,-1.300000000000000000e+01,-5.000000000000000000e+00,-3.000000000000000000e+00,1.000000000000000000e+00,0.000000000000000000e+00,4.168090820312500000e-01,2.162475585937500000e-01,-8.687133789062500000e-01,1.577758789062500000e-01
-1.000000000000000000e+00,1.300000000000000000e+01,2.000000000000000000e+00,7.000000000000000000e+00,1.000000000000000000e+00,-1.000000000000000000e+00,-1.000000000000000000e+00,-2.000000000000000000e+00,4.168090820312500000e-01,2.162475585937500000e-01,-8.687133789062500000e-01,1.577758789062500000e-01
6.000000000000000000e+00,1.000000000000000000e+00,3.000000000000000000e+00,-1.000000000000000000e+00,-4.000000000000000000e+00,0.000000000000000000e+00,-1.000000000000000000e+00,-2.000000000000000000e+00,4.168090820312500000e-01,2.162475585937500000e-01,-8.687133789062500000e-01,1.577758789062500000e-01
-3.000000000000000000e+00,-1.000000000000000000e+00,1.000000000000000000e+00,7.000000000000000000e+00,1.000000000000000000e+01,1.000000000000000000e+00,1.000000000000000000e+00,3.000000000000000000e+00,4.168090820312500000e-01,2.162475585937500000e-01,-8.687133789062500000e-01,1.577758789062500000e-01
1.000000000000000000e+01,-7.000000000000000000e+00,1.000000000000000000e+01,-1.000000000000000000e+00,3.000000000000000000e+00,2.000000000000000000e+00,0.000000000000000000e+00,-1.000000000000000000e+00,4.164428710937500000e-01,2.162475585937500000e-01,-8.688354492187500000e-01,1.580200195312500000e-01
-3.000000000000000000e+00,1.200000000000000000e+01,-6.000000000000000000e+00,-4.000000000000000000e+00,-1.000000000000000000e+00,2.000000000000000000e+00,1.000000000000000000e+00,-1.000000000000000000e+00,4.164428710937500000e-01,2.162475585937500000e-01,-8.688354492187500000e-01,1.580200195312500000e-01
3.000000000000000000e+00,-6.000000000000000000e+00,7.000000000000000000e+00,1.000000000000000000e+00,4.000000000000000000e+00,-1.000000000000000000e+00,-1.000000000000000000e+00,-1.000000000000000000e+00,4.164428710937500000e-01,2.162475585937500000e-01,-8.688354492187500000e-01,1.580200195312500000e-01
-3.000000000000000000e+00,4.000000000000000000e+00,-1.000000000000000000e+00,-1.000000000000000000e+00,-1.000000000000000000e+01,-1.000000000000000000e+00,-3.000000000000000000e+00,-3.000000000000000000e+00,4.164428710937500000e-01,2.162475585937500000e-01,-8.688354492187500000e-01,1.580200195312500000e-01
-7.000000000000000000e+00,-7.000000000000000000e+00,0.000000000000000000e+00,-4.000000000000000000e+00,-8.000000000000000000e+00,-8.000000000000000000e+00,-3.000000000000000000e+00,1.000000000000000000e+00,4.161987304687500000e-01,2.161865234375000000e-01,-8.689575195312500000e-01,1.581420898437500000e-01
0.000000000000000000e+00,1.000000000000000000e+00,-5.000000000000000000e+00,-5.000000000000000000e+00,-6.000000000000000000e+00,-4.000000000000000000e+00,-3.000000000000000000e+00,-2.000000000000000000e+00,4.161987304687500000e-01,2.161865234375000000e-01,-8.689575195312500000e-01,1.581420898437500000e-01
-1.000000000000000000e+00,6.000000000000000000e+00,-5.000000000000000000e+00,-5.000000000000000000e+00,-2.000000000000000000e+00,-1.000000000000000000e+00,-3.000000000000000000e+00,-1.000000000000000000e+00,4.161987304687500000e-01,2.161865234375000000e-01,-8.689575195312500000e-01,1.581420898437500000e-01
-5.000000000000000000e+00,-4.000000000000000000e+00,1.000000000000000000e+00,3.000000000000000000e+00,7.000000000000000000e+00,5.000000000000000000e+00,4.000000000000000000e+00,-1.000000000000000000e+00,4.161987304687500000e-01,2.161865234375000000e-01,-8.689575195312500000e-01,1.581420898437500000e-01
2.900000000000000000e+01,1.900000000000000000e+01,1.000000000000000000e+00,1.000000000000000000e+00,3.000000000000000000e+00,0.000000000000000000e+00,1.000000000000000000e+00,3.000000000000000000e+00,4.159545898437500000e-01,2.158203125000000000e-01,-8.691406250000000000e-01,1.580810546875000000e-01
-3.400000000000000000e+01,-1.500000000000000000e+01,-4.000000000000000000e+00,6.000000000000000000e+00,6.000000000000000000e+00,2.000000000000000000e+00,1.000000000000000000e+00,-2.000000000000000000e+00,4.159545898437500000e-01,2.158203125000000000e-01,-8.691406250000000000e-01,1.580810546875000000e-01
-8.000000000000000000e+00,-1.100000000000000000e+01,-1.600000000000000000e+01,-4.000000000000000000e+00,2.000000000000000000e+00,1.000000000000000000e+00,-3.000000000000000000e+00,-1.000000000000000000e+00,4.159545898437500000e-01,2.158203125000000000e-01,-8.691406250000000000e-01,1.580810546875000000e-01
1.000000000000000000e+00,-3.000000000000000000e+00,-2.000000000000000000e+00,-4.000000000000000000e+00,-8.000000000000000000e+00,-7.000000000000000000e+00,-5.000000000000000000e+00,-1.000000000000000000e+00,4.159545898437500000e-01,2.158203125000000000e-01,-8.691406250000000000e-01,1.580810546875000000e-01
-5.000000000000000000e+00,-3.000000000000000000e+00,4.000000000000000000e+00,-3.000000000000000000e+00,-5.000000000000000000e+00,-5.000000000000000000e+00,-5.000000000000000000e+00,-3.000000000000000000e+00,4.154663085937500000e-01,2.157592773437500000e-01,-8.693237304687500000e-01,1.583862304687500000e-01
1.500000000000000000e+01,1.400000000000000000e+01,2.000000000000000000e+00,0.000000000000000000e+00,1.000000000000000000e+00,-1.000000000000000000e+00,1.000000000000000000e+00,1.000000000000000000e+00,4.154663085937500000e-01,2.157592773437500000e-01,-8.693237304687500000e-01,1.583862304687500000e-01
0.000000000000000000e+00,8.000000000000000000e+00,-2.000000000000000000e+00,9.000000000000000000e+00,7.000000000000000000e+00,0.000000000000000000e+00,0.000000000000000000e+00,-1.000000000000000000e+00,4.154663085937500000e-01,2.157592773437500000e-01,-8.693237304687500000e-01,1.583862304687500000e-01
-3.000000000000000000e+00,-1.000000000000000000e+00,0.000000000000000000e+00,-1.000000000000000000e+00,-1.000000000000000000e+00,0.000000000000000000e+00,-2.000000000000000000e+00,-2.000000000000000000e+00,4.154663085937500000e-01,2.157592773437500000e-01,-8.693237304687500000e-01,1.583862304687500000e-01
3.000000000000000000e+00,-3.000000000000000000e+00,1.000000000000000000e+00,-1.000000000000000000e+00,-6.000000000000000000e+00,-3.000000000000000000e+00,-3.000000000000000000e+00,-3.000000000000000000e+00,4.150390625000000000e-01,2.161865234375000000e-01,-8.694458007812500000e-01,1.584472656250000000e-01
0.000000000000000000e+00,-1.000000000000000000e+00,-1.000000000000000000e+00,-7.000000000000000000e+00,-6.000000000000000000e+00,-2.000000000000000000e+00,1.000000000000000000e+00,0.000000000000000000e+00,4.150390625000000000e-01,2.161865234375000000e-01,-8.694458007812500000e-01,1.584472656250000000e-01
-1.100000000000000000e+01,-2.000000000000000000e+00,0.000000000000000000e+00,-3.000000000000000000e+00,1.000000000000000000e+00,-1.000000000000000000e+00,2.000000000000000000e+00,-1.000000000000000000e+00,4.150390625000000000e-01,2.161865234375000000e-01,-8.694458007812500000e-01,1.584472656250000000e-01
9.000000000000000000e+00,1.000000000000000000e+00,0.000000000000000000e+00,-1.000000000000000000e+00,5.000000000000000000e+00,4.000000000000000000e+00,3.000000000000000000e+00,-2.000000000000000000e+00,4.150390625000000000e-01,2.161865234375000000e-01,-8.694458007812500000e-01,1.584472656250000000e-01
-1.400000000000000000e+01,2.000000000000000000e+00,1.000000000000000000e+00,7.000000000000000000e+00,8.000000000000000000e+00,3.000000000000000000e+00,-2.000000000000000000e+00,-5.000000000000000000e+00,4.147949218750000000e-01,2.160034179687500000e-01,-8.695678710937500000e-01,1.585083007812500000e-01
9.000000000000000000e+00,4.000000000000000000e+00,-2.000000000000000000e+00,-2.000000000000000000e+00,1.000000000000000000e+00,-3.000000000000000000e+00,-2.000000000000000000e+00,-2.000000000000000000e+00,4.147949218750000000e-01,2.160034179687500000e-01,-8.695678710937500000e-01,1.585083007812500000e-01
-2.000000000000000000e+00,-4.000000000000000000e+00,-2.000000000000000000e+00,0.000000000000000000e+00,-5.000000000000000000e+00,-5.000000000000000000e+00,-2.000000000000000000e+00,1.000000000000000000e+00,4.147949218750000000e-01,2.160034179687500000e-01,-8.695678710937500000e-01,1.585083007812500000e-01
-1.400000000000000000e+01,-2.500000000000000000e+01,-3.000000000000000000e+00,-1.000000000000000000e+00,-9.000000000000000000e+00,-3.000000000000000000e+00,-2.000000000000000000e+00,-5.000000000000000000e+00,4.147949218750000000e-01,2.160034179687500000e-01,-8.695678710937500000e-01,1.585083007812500000e-01
1.000000000000000000e+01,-6.000000000000000000e+00,-2.000000000000000000e+00,-8.000000000000000000e+00,-3.000000000000000000e+00,-3.000000000000000000e+00,-2.000000000000000000e+00,1.000000000000000000e+00,4.144897460937500000e-01,2.164306640625000000e-01,-8.695678710937500000e-01,1.586914062500000000e-01
-2.300000000000000000e+01,-8.000000000000000000e+00,1.000000000000000000e+00,1.000000000000000000e+00,-2.000000000000000000e+00,0.000000000000000000e+00,-2.000000000000000000e+00,-2.000000000000000000e+00,4.144897460937500000e-01,2.164306640625000000e-01,-8.695678710937500000e-01,1.586914062500000000e-01
5.000000000000000000e+00,1.500000000000000000e+01,-2.000000000000000000e+00,-2.000000000000000000e+00,-1.000000000000000000e+00,-3.000000000000000000e+00,-2.000000000000000000e+00,-2.000000000000000000e+00,4.144897460937500000e-01,2.164306640625000000e-01,-8.695678710937500000e-01,1.586914062500000000e-01
5.000000000000000000e+00,1.300000000000000000e+01,-3.000000000000000000e+00,-4.000000000000000000e+00,-2.000000000000000000e+00,-3.000000000000000000e+00,-1.000000000000000000e+00,1.000000000000000000e+00,4.144897460937500000e-01,2.164306640625000000e-01,-8.695678710937500000e-01,1.586914062500000000e-01
-1.100000000000000000e+01,-1.100000000000000000e+01,-4.000000000000000000e+00,-5.000000000000000000e+00,-1.000000000000000000e+00,2.000000000000000000e+00,-1.000000000000000000e+00,-2.000000000000000000e+00,4.144287109375000000e-01,2.164916992187500000e-01,-8.696289062500000000e-01,1.586303710937500000e-01
7.000000000000000000e+00,2.000000000000000000e+00,0.000000000000000000e+00,6.000000000000000000e+00,2.000000000000000000e+00,-5.000000000000000000e+00,-4.000000000000000000e+00,1.000000000000000000e+00,4.144287109375000000e-01,2.164916992187500000e-01,-8.696289062500000000e-01,1.586303710937500000e-01
1.000000000000000000e+00,-1.000000000000000000e+00,-1.000000000000000000e+00,-5.000000000000000000e+00,-1.000000000000000000e+00,2.000000000000000000e+00,0.000000000000000000e+00,0.000000000000000000e+00,4.144287109375000000e-01,2.164916992187500000e-01,-8.696289062500000000e-01,1.586303710937500000e-01
-5.000000000000000000e+00,3.000000000000000000e+00,2.000000000000000000e+00,3.000000000000000000e+00,1.000000000000000000e+00,-5.000000000000000000e+00,-4.000000000000000000e+00,-2.000000000000000000e+00,4.144287109375000000e-01,2.164916992187500000e-01,-8.696289062500000000e-01,1.586303710937500000e-01
9.000000000000000000e+00,7.000000000000000000e+00,-2.000000000000000000e+00,-2.000000000000000000e+00,2.000000000000000000e+00,1.000000000000000000e+00,0.000000000000000000e+00,-2.000000000000000000e+00,4.144287109375000000e-01,2.164306640625000000e-01,-8.696289062500000000e-01,1.586914062500000000e-01
-9.000000000000000000e+00,-1.000000000000000000e+00,3.000000000000000000e+00,-4.000000000000000000e+00,-5.000000000000000000e+00,1.000000000000000000e+00,3.000000000000000000e+00,2.000000000000000000e+00,4.144287109375000000e-01,2.164306640625000000e-01,-8.696289062500000000e-01,1.586914062500000000e-01
-1.200000000000000000e+01,-2.600000000000000000e+01,-1.500000000000000000e+01,-1.000000000000000000e+00,4.000000000000000000e+00,-3.000000000000000000e+00,-3.000000000000000000e+00,0.000000000000000000e+00,4.144287109375000000e-01,2.164306640625000000e-01,-8.696289062500000000e-01,1.586914062500000000e-01
2.300000000000000000e+01,2.000000000000000000e+00,-3.000000000000000000e+00,-2.000000000000000000e+00,-5.000000000000000000e+00,-2.000000000000000000e+00,-5.000000000000000000e+00,-4.000000000000000000e+00,4.144287109375000000e-01,2.164306640625000000e-01,-8.696289062500000000e-01,1.586914062500000000e-01
-3.200000000000000000e+01,-1.400000000000000000e+01,3.000000000000000000e+00,-8.000000000000000000e+00,-7.000000000000000000e+00,-5.000000000000000000e+00,-4.000000000000000000e+00,-3.000000000000000000e+00,4.142456054687500000e-01,2.167968750000000000e-01,-8.695678710937500000e-01,1.588745117187500000e-01
1.200000000000000000e+01,9.000000000000000000e+00,0.000000000000000000e+00,1.000000000000000000e+01,-1.000000000000000000e+00,-2.000000000000000000e+00,-2.000000000000000000e+00,0.000000000000000000e+00,4.142456054687500000e-01,2.167968750000000000e-01,-8.695678710937500000e-01,1.588745117187500000e-01
0.000000000000000000e+00,1.000000000000000000e+01,6.000000000000000000e+00,-4.000000000000000000e+00,4.000000000000000000e+00,5.000000000000000000e+00,2.000000000000000000e+00,3.000000000000000000e+00,4.142456054687500000e-01,2.167968750000000000e-01,-8.695678710937500000e-01,1.588745117187500000e-01
-4.000000000000000000e+00,-8.000000000000000000e+00,-6.000000000000000000e+00,-2.000000000000000000e+00,-1.000000000000000000e+00,-2.000000000000000000e+00,-2.000000000000000000e+00,0.000000000000000000e+00,4.142456054687500000e-01,2.167968750000000000e-01,-8.695678710937500000e-01,1.588745117187500000e-01
6.000000000000000000e+00,2.000000000000000000e+00,-5.000000000000000000e+00,-4.000000000000000000e+00,-1.000000000000000000e+01,-7.000000000000000000e+00,-3.000000000000000000e+00,-2.000000000000000000e+00,4.141845703125000000e-01,2.168579101562500000e-01,-8.696289062500000000e-01,1.588134765625000000e-01
4.000000000000000000e+00,1.000000000000000000e+00,-1.000000000000000000e+00,2.000000000000000000e+00,3.000000000000000000e+00,1.000000000000000000e+00,0.000000000000000000e+00,0.000000000000000000e+00,4.141845703125000000e-01,2.168579101562500000e-01,-8.696289062500000000e-01,1.588134765625000000e-01
0.000000000000000000e+00,6.000000000000000000e+00,9.000000000000000000e+00,4.000000000000000000e+00,-4.000000000000000000e+00,-2.000000000000000000e+00,0.000000000000000000e+00,-3.000000000000000000e+00,4.141845703125000000e-01,2.168579101562500000e-01,-8.696289062500000000e-01,1.588134765625000000e-01
8.000000000000000000e+00,1.900000000000000000e+01,1.000000000000000000e+00,3.000000000000000000e+00,1.800000000000000000e+01,1.100000000000000000e+01,5.000000000000000000e+00,5.000000000000000000e+00,4.141845703125000000e-01,2.168579101562500000e-01,-8.696289062500000000e-01,1.588134765625000000e-01
-2.500000000000000000e+01,2.000000000000000000e+00,2.000000000000000000e+00,2.000000000000000000e+00,-1.000000000000000000e+00,-1.000000000000000000e+00,-1.000000000000000000e+00,-2.000000000000000000e+00,4.142456054687500000e-01,2.163085937500000000e-01,-8.697509765625000000e-01,1.584472656250000000e-01
1.800000000000000000e+01,-1.100000000000000000e+01,-5.000000000000000000e+00,-5.000000000000000000e+00,-4.000000000000000000e+00,-2.000000000000000000e+00,-3.000000000000000000e+00,-3.000000000000000000e+00,4.142456054687500000e-01,2.163085937500000000e-01,-8.697509765625000000e-01,1.584472656250000000e-01
-9.000000000000000000e+00,-6.000000000000000000e+00,-4.000000000000000000e+00,1.000000000000000000e+00,-6.000000000000000000e+00,-3.000000000000000000e+00,0.000000000000000000e+00,0.000000000000000000e+00,4.142456054687500000e-01,2.163085937500000000e-01,-8.697509765625000000e-01,1.584472656250000000e-01
-2.000000000000000000e+00,1.300000000000000000e+01,7.000000000000000000e+00,-6.000000000000000000e+00,-1.100000000000000000e+01,-9.000000000000000000e+00,-1.000000000000000000e+00,-1.000000000000000000e+00,4.142456054687500000e-01,2.163085937500000000e-01,-8.697509765625000000e-01,1.584472656250000000e-01
-9.000000000000000000e+00,-2.000000000000000000e+01,-4.000000000000000000e+00,-3.000000000000000000e+00,-6.000000000000000000e+00,-1.000000000000000000e+00,-5.000000000000000000e+00,-3.000000000000000000e+00,4.140014648437500000e-01,2.164306640625000000e-01,-8.698730468750000000e-01,1.585693359375000000e-01
0.000000000000000000e+00,2.000000000000000000e+00,-2.000000000000000000e+00,2.000000000000000000e+00,5.000000000000000000e+00,2.000000000000000000e+00,4.000000000000000000e+00,3.000000000000000000e+00,4.140014648437500000e-01,2.164306640625000000e-01,-8.698730468750000000e-01,1.585693359375000000e-01
7.000000000000000000e+00,-3.000000000000000000e+00,0.000000000000000000e+00,6.000000000000000000e+00,4.000000000000000000e+00,5.000000000000000000e+00,1.000000000000000000e+00,0.000000000000000000e+00,4.140014648437500000e-01,2.164306640625000000e-01,-8.698730468750000000e-01,1.585693359375000000e-01
-3.000000000000000000e+00,4.000000000000000000e+00,1.000000000000000000e+00,1.000000000000000000e+00,8.000000000000000000e+00,2.000000000000000000e+00,0.000000000000000000e+00,-1.000000000000000000e+00,4.140014648437500000e-01,2.164306640625000000e-01,-8.698730468750000000e-01,1.585693359375000000e-01
4.000000000000000000e+00,4.000000000000000000e+00,-2.000000000000000000e+00,1.000000000000000000e+00,2.000000000000000000e+00,-3.000000000000000000e+00,-2.000000000000000000e+00,1.000000000000000000e+00,4.136352539062500000e-01,2.166748046875000000e-01,-8.699340820312500000e-01,1.588134765625000000e-01
-1.000000000000000000e+00,-2.000000000000000000e+00,4.000000000000000000e+00,1.000000000000000000e+00,-7.000000000000000000e+00,-2.000000000000000000e+00,-1.000000000000000000e+00,-3.000000000000000000e+00,4.136352539062500000e-01,2.166748046875000000e-01,-8.699340820312500000e-01,1.588134765625000000e-01
1.700000000000000000e+01,-1.000000000000000000e+00,1.000000000000000000e+00,-4.000000000000000000e+00,-1.000000000000000000e+00,-5.000000000000000000e+00,-3.000000000000000000e+00,0.000000000000000000e+00,4.136352539062500000e-01,2.166748046875000000e-01,-8.699340820312500000e-01,1.588134765625000000e-01
-1.600000000000000000e+01,7.000000000000000000e+00,-1.700000000000000000e+01,1.000000000000000000e+00,1.000000000000000000e+00,-3.000000000000000000e+00,4.000000000000000000e+00,2.000000000000000000e+00,4.136352539062500000e-01,2.166748046875000000e-01,-8.699340820312500000e-01,1.588134765625000000e-01
1.700000000000000000e+01,-2.700000000000000000e+01,3.000000000000000000e+00,-5.000000000000000000e+00,-9.000000000000000000e+00,-1.000000000000000000e+00,-1.000000000000000000e+00,-4.000000000000000000e+00,4.133300781250000000e-01,2.171020507812500000e-01,-8.698730468750000000e-01,1.592407226562500000e-01
-1.900000000000000000e+01,-4.000000000000000000e+00,2.000000000000000000e+00,-6.000000000000000000e+00,-1.000000000000000000e+00,1.000000000000000000e+00,0.000000000000000000e+00,1.000000000000000000e+00,4.133300781250000000e-01,2.171020507812500000e-01,-8.698730468750000000e-01,1.592407226562500000e-01
-7.000000000000000000e+00,0.000000000000000000e+00,1.500000000000000000e+01,8.000000000000000000e+00,9.000000000000000000e+00,0.000000000000000000e+00,0.000000000000000000e+00,-4.000000000000000000e+00,4.133300781250000000e-01,2.171020507812500000e-01,-8.698730468750000000e-01,1.592407226562500000e-01
1.000000000000000000e+01,-1.000000000000000000e+00,-1.000000000000000000e+00,3.000000000000000000e+00,-2.000000000000000000e+00,2.000000000000000000e+00,1.000000000000000000e+00,1.000000000000000000e+00,4.133300781250000000e-01,2.171020507812500000e-01,-8.698730468750000000e-01,1.592407226562500000e-01
-2.000000000000000000e+00,5.000000000000000000e+00,2.000000000000000000e+00,3.000000000000000000e+00,2.000000000000000000e+00,-2.000000000000000000e+00,-2.000000000000000000e+00,1.000000000000000000e+00,4.133300781250000000e-01,2.171020507812500000e-01,-8.698730468750000000e-01,1.591796875000000000e-01
5.000000000000000000e+00,-4.000000000000000000e+00,-4.000000000000000000e+00,0.000000000000000000e+00,-7.000000000000000000e+00,-3.000000000000000000e+00,0.000000000000000000e+00,0.000000000000000000e+00,4.133300781250000000e-01,2.171020507812500000e-01,-8.698730468750000000e-01,1.591796875000000000e-01
3.000000000000000000e+00,8.000000000000000000e+00,-4.000000000000000000e+00,-6.000000000000000000e+00,1.000000000000000000e+00,2.000000000000000000e+00,1.000000000000000000e+00,2.000000000000000000e+00,4.133300781250000000e-01,2.171020507812500000e-01,-8.698730468750000000e-01,1.591796875000000000e-01
-2.000000000000000000e+00,-1.000000000000000000e+00,-2.000000000000000000e+00,-4.000000000000000000e+00,-8.000000000000000000e+00,-3.000000000000000000e+00,0.000000000000000000e+00,-2.000000000000000000e+00,4.133300781250000000e-01,2.171020507812500000e-01,-8.698730468750000000e-01,1.591796875000000000e-01
4.000000000000000000e+00,2.000000000000000000e+00,0.000000000000000000e+00,-1.000000000000000000e+00,1.000000000000000000e+00,-5.000000000000000000e+00,-1.000000000000000000e+00,-1.000000000000000000e+00,4.132690429687500000e-01,2.171630859375000000e-01,-8.698730468750000000e-01,1.591796875000000000e-01
-1.100000000000000000e+01,5.000000000000000000e+00,-1.000000000000000000e+00,0.000000000000000000e+00,0.000000000000000000e+00,1.000000000000000000e+00,0.000000000000000000e+00,-3.000000000000000000e+00,4.132690429687500000e-01,2.171630859375000000e-01,-8.698730468750000000e-01,1.591796875000000000e-01
1.700000000000000000e+01,2.000000000000000000e+00,-2.000000000000000000e+00,2.000000000000000000e+00,-5.000000000000000000e+00,-1.000000000000000000e+00,-2.000000000000000000e+00,-3.000000000000000000e+00,4.132690429687500000e-01,2.171630859375000000e-01,-8.698730468750000000e-01,1.591796875000000000e-01
-2.400000000000000000e+01,-2.800000000000000000e+01,-7.000000000000000000e+00,-8.000000000000000000e+00,0.000000000000000000e+00,0.000000000000000000e+00,-1.000000000000000000e+00,-3.000000000000000000e+00,4.132690429687500000e-01,2.171630859375000000e-01,-8.698730468750000000e-01,1.591796875000000000e-01
1.300000000000000000e+01,-1.000000000000000000e+00,-1.000000000000000000e+00,3.000000000000000000e+00,3.000000000000000000e+00,2.000000000000000000e+00,2.000000000000000000e+00,3.000000000000000000e+00,4.134521484375000000e-01,2.167968750000000000e-01,-8.699340820312500000e-01,1.589965820312500000e-01
-1.700000000000000000e+01,-1.000000000000000000e+01,2.000000000000000000e+00,-5.000000000000000000e+00,-1.000000000000000000e+00,-4.000000000000000000e+00,-3.000000000000000000e+00,0.000000000000000000e+00,4.134521484375000000e-01,2.167968750000000000e-01,-8.699340820312500000e-01,1.589965820312500000e-01
-5.000000000000000000e+00,6.000000000000000000e+00,-5.000000000000000000e+00,-8.000000000000000000e+00,-5.000000000000000000e+00,-4.000000000000000000e+00,-7.000000000000000000e+00,-5.000000000000000000e+00,4.134521484375000000e-01,2.167968750000000000e-01,-8.699340820312500000e-01,1.589965820312500000e-01
7.000000000000000000e+00,4.000000000000000000e+00,5.000000000000000000e+00,4.000000000000000000e+00,-3.000000000000000000e+00,0.000000000000000000e+00,-5.000000000000000000e+00,-1.000000000000000000e+00,4.134521484375000000e-01,2.167968750000000000e-01,-8.699340820312500000e-01,1.589965820312500000e-01
3.000000000000000000e+00,4.000000000000000000e+00,-1.000000000000000000e+01,4.000000000000000000e+00,1.000000000000000000e+00,1.000000000000000000e+00,0.000000000000000000e+00,-1.000000000000000000e+00,4.135131835937500000e-01,2.168579101562500000e-01,-8.698730468750000000e-01,1.592407226562500000e-01
0.000000000000000000e+00,2.000000000000000000e+00,-5.000000000000000000e+00,0.000000000000000000e+00,5.000000000000000000e+00,1.000000000000000000e+00,1.000000000000000000e+00,0.000000000000000000e+00,4.135131835937500000e-01,2.168579101562500000e-01,-8.698730468750000000e-01,1.592407226562500000e-01
0.000000000000000000e+00,-7.000000000000000000e+00,5.000000000000000000e+00,2.000000000000000000e+00,2.000000000000000000e+00,3.000000000000000000e+00,1.000000000000000000e+00,1.000000000000000000e+00,4.135131835937500000e-01,2.168579101562500000e-01,-8.698730468750000000e-01,1.592407226562500000e-01
5.000000000000000000e+00,3.000000000000000000e+00,-1.000000000000000000e+00,-2.000000000000000000e+00,-4.000000000000000000e+00,-1.000000000000000000e+00,-3.000000000000000000e+00,-1.000000000000000000e+00,4.135131835937500000e-01,2.168579101562500000e-01,-8.698730468750000000e-01,1.592407226562500000e-01
-8.000000000000000000e+00,-2.000000000000000000e+00,0.000000000000000000e+00,-6.000000000000000000e+00,-3.000000000000000000e+00,-4.000000000000000000e+00,-1.000000000000000000e+00,0.000000000000000000e+00,4.133911132812500000e-01,2.171630859375000000e-01,-8.697509765625000000e-01,1.595458984375000000e-01
1.800000000000000000e+01,-3.000000000000000000e+00,-5.000000000000000000e+00,5.000000000000000000e+00,-2.000000000000000000e+00,-3.000000000000000000e+00,-7.000000000000000000e+00,-5.000000000000000000e+00,4.133911132812500000e-01,2.171630859375000000e-01,-8.697509765625000000e-01,1.595458984375000000e-01
-4.000000000000000000e+00,-1.100000000000000000e+01,1.400000000000000000e+01,-6.000000000000000000e+00,-8.000000000000000000e+00,1.000000000000000000e+00,-1.000000000000000000e+00,1.000000000000000000e+00,4.133911132812500000e-01,2.171630859375000000e-01,-8.697509765625000000e-01,1.595458984375000000e-01
0.000000000000000000e+00,5.000000000000000000e+00,-1.000000000000000000e+00,2.000000000000000000e+00,2.000000000000000000e+00,-1.000000000000000000e+00,2.000000000000000000e+00,-1.000000000000000000e+00,4.133911132812500000e-01,2.171630859375000000e-01,-8.697509765625000000e-01,1.595458984375000000e-01
3.000000000000000000e+00,7.000000000000000000e+00,6.000000000000000000e+00,2.000000000000000000e+00,7.000000000000000000e+00,2.000000000000000000e+00,0.000000000000000000e+00,-1.000000000000000000e+00,4.133911132812500000e-01,2.173461914062500000e-01,-8.696899414062500000e-01,1.596069335937500000e-01
0.000000000000000000e+00,1.000000000000000000e+00,-2.000000000000000000e+00,-2.000000000000000000e+00,5.000000000000000000e+00,1.000000000000000000e+00,3.000000000000000000e+00,0.000000000000000000e+00,4.133911132812500000e-01,2.173461914062500000e-01,-8.696899414062500000e-01,1.596069335937500000e-01
-8.000000000000000000e+00,0.000000000000000000e+00,-8.000000000000000000e+00,0.000000000000000000e+00,-1.000000000000000000e+00,-3.000000000000000000e+00,1.000000000000000000e+00,-2.000000000000000000e+00,4.133911132812500000e-01,2.173461914062500000e-01,-8.696899414062500000e-01,1.596069335937500000e-01
7.000000000000000000e+00,-5.000000000000000000e+00,3.000000000000000000e+00,-4.000000000000000000e+00,-6.000000000000000000e+00,-2.000000000000000000e+00,-3.000000000000000000e+00,-1.000000000000000000e+00,4.133911132812500000e-01,2.173461914062500000e-01,-8.696899414062500000e-01,1.596069335937500000e-01
-4.000000000000000000e+00,1.000000000000000000e+00,-7.000000000000000000e+00,-4.000000000000000000e+00,-4.000000000000000000e+00,-2.000000000000000000e+00,0.000000000000000000e+00,-2.000000000000000000e+00,4.133911132812500000e-01,2.173461914062500000e-01,-8.696899414062500000e-01,1.596069335937500000e-01
-1.000000000000000000e+01,2.000000000000000000e+00,3.000000000000000000e+00,-5.000000000000000000e+00,-4.000000000000000000e+00,-2.000000000000000000e+00,-4.000000000000000000e+00,1.000000000000000000e+00,4.133911132812500000e-01,2.173461914062500000e-01,-8.696899414062500000e-01,1.596069335937500000e-01
1.600000000000000000e+01,1.900000000000000000e+01,-3.000000000000000000e+00,-9.000000000000000000e+00,-1.400000000000000000e+01,-1.100000000000000000e+01,-8.000000000000000000e+00,2.000000000000000000e+00,4.133911132812500000e-01,2.173461914062500000e-01,-8.696899414062500000e-01,1.596069335937500000e-01
-4.300000000000000000e+01,-5.400000000000000000e+01,-2.000000000000000000e+01,4.000000000000000000e+00,9.000000000000000000e+00,6.000000000000000000e+00,3.000000000000000000e+00,-2.000000000000000000e+00,4.133911132812500000e-01,2.173461914062500000e-01,-8.696899414062500000e-01,1.596069335937500000e-01
4.000000000000000000e+00,1.000000000000000000e+01,0.000000000000000000e+00,7.000000000000000000e+00,1.500000000000000000e+01,7.000000000000000000e+00,2.000000000000000000e+00,1.000000000000000000e+00,4.134521484375000000e-01,2.169189453125000000e-01,-8.698730468750000000e-01,1.592407226562500000e-01
0.000000000000000000e+00,-2.000000000000000000e+00,-3.000000000000000000e+00,-5.000000000000000000e+00,-5.000000000000000000e+00,-2.000000000000000000e+00,-2.000000000000000000e+00,-2.000000000000000000e+00,4.134521484375000000e-01,2.169189453125000000e-01,-8.698730468750000000e-01,1.592407226562500000e-01
