8.000000000000000000e+00,-7.000000000000000000e+00,2.000000000000000000e+00,-8.000000000000000000e+00,-1.000000000000000000e+01,-1.000000000000000000e+00,5.000000000000000000e+00,-4.000000000000000000e+00,3.446655273437500000e-01,1.596069335937500000e-01,-9.207763671875000000e-01,-8.923339843750000000e-02
-3.000000000000000000e+00,2.000000000000000000e+00,-3.300000000000000000e+01,1.000000000000000000e+01,5.000000000000000000e+00,-8.000000000000000000e+00,-1.300000000000000000e+01,-7.000000000000000000e+00,3.446655273437500000e-01,1.596069335937500000e-01,-9.207763671875000000e-01,-8.923339843750000000e-02
7.000000000000000000e+00,-1.100000000000000000e+01,-1.000000000000000000e+00,-2.300000000000000000e+01,-5.000000000000000000e+00,-1.000000000000000000e+00,4.000000000000000000e+00,4.000000000000000000e+00,3.446655273437500000e-01,1.596069335937500000e-01,-9.207763671875000000e-01,-8.923339843750000000e-02
-9.000000000000000000e+00,-4.000000000000000000e+00,3.000000000000000000e+00,2.600000000000000000e+01,9.000000000000000000e+00,4.000000000000000000e+00,5.000000000000000000e+00,0.000000000000000000e+00,3.446655273437500000e-01,1.596069335937500000e-01,-9.207763671875000000e-01,-8.923339843750000000e-02
1.400000000000000000e+01,2.000000000000000000e+01,8.000000000000000000e+00,3.000000000000000000e+01,-5.000000000000000000e+00,0.000000000000000000e+00,-1.400000000000000000e+01,1.000000000000000000e+00,3.456420898437500000e-01,1.584472656250000000e-01,-9.207763671875000000e-01,-8.746337890625000000e-02
-3.000000000000000000e+00,-1.000000000000000000e+00,1.200000000000000000e+01,-3.000000000000000000e+00,1.000000000000000000e+01,-2.000000000000000000e+00,2.000000000000000000e+00,-5.000000000000000000e+00,3.456420898437500000e-01,1.584472656250000000e-01,-9.207763671875000000e-01,-8.746337890625000000e-02
-9.000000000000000000e+00,-7.000000000000000000e+00,-5.000000000000000000e+00,-1.000000000000000000e+00,-4.000000000000000000e+00,-3.000000000000000000e+00,-1.000000000000000000e+00,6.000000000000000000e+00,3.456420898437500000e-01,1.584472656250000000e-01,-9.207763671875000000e-01,-8.746337890625000000e-02
9.000000000000000000e+00,3.000000000000000000e+00,-9.000000000000000000e+00,-2.100000000000000000e+01,0.000000000000000000e+00,-3.000000000000000000e+00,7.000000000000000000e+00,1.100000000000000000e+01,3.456420898437500000e-01,1.584472656250000000e-01,-9.207763671875000000e-01,-8.746337890625000000e-02
-3.000000000000000000e+00,5.000000000000000000e+00,1.000000000000000000e+00,1.300000000000000000e+01,-1.800000000000000000e+01,-1.100000000000000000e+01,-1.600000000000000000e+01,-1.200000000000000000e+01,3.467407226562500000e-01,1.577148437500000000e-01,-9.205932617187500000e-01,-8.630371093750000000e-02
3.000000000000000000e+00,-4.000000000000000000e+00,9.000000000000000000e+00,3.000000000000000000e+00,1.700000000000000000e+01,3.000000000000000000e+00,6.000000000000000000e+00,-6.000000000000000000e+00,3.467407226562500000e-01,1.577148437500000000e-01,-9.205932617187500000e-01,-8.630371093750000000e-02
1.200000000000000000e+01,-4.000000000000000000e+00,-1.400000000000000000e+01,-2.000000000000000000e+00,-4.000000000000000000e+00,-1.000000000000000000e+00,-2.000000000000000000e+00,1.000000000000000000e+00,3.467407226562500000e-01,1.577148437500000000e-01,-9.205932617187500000e-01,-8.630371093750000000e-02
-9.000000000000000000e+00,1.000000000000000000e+00,2.100000000000000000e+01,-2.900000000000000000e+01,-1.200000000000000000e+01,1.000000000000000000e+00,3.000000000000000000e+00,0.000000000000000000e+00,3.467407226562500000e-01,1.577148437500000000e-01,-9.205932617187500000e-01,-8.630371093750000000e-02
-1.300000000000000000e+01,3.000000000000000000e+00,-3.000000000000000000e+00,2.100000000000000000e+01,1.500000000000000000e+01,9.000000000000000000e+00,7.000000000000000000e+00,8.000000000000000000e+00,3.479003906250000000e-01,1.556396484375000000e-01,-9.205932617187500000e-01,-8.563232421875000000e-02
-4.000000000000000000e+00,-9.000000000000000000e+00,-2.900000000000000000e+01,2.000000000000000000e+00,-1.400000000000000000e+01,-4.000000000000000000e+00,1.000000000000000000e+00,0.000000000000000000e+00,3.479003906250000000e-01,1.556396484375000000e-01,-9.205932617187500000e-01,-8.563232421875000000e-02
1.100000000000000000e+01,6.000000000000000000e+00,5.000000000000000000e+00,1.000000000000000000e+00,-1.100000000000000000e+01,-6.000000000000000000e+00,-2.000000000000000000e+00,0.000000000000000000e+00,3.479003906250000000e-01,1.556396484375000000e-01,-9.205932617187500000e-01,-8.563232421875000000e-02
-1.100000000000000000e+01,-1.400000000000000000e+01,-2.600000000000000000e+01,-2.000000000000000000e+01,2.400000000000000000e+01,1.100000000000000000e+01,0.000000000000000000e+00,-2.000000000000000000e+00,3.479003906250000000e-01,1.556396484375000000e-01,-9.205932617187500000e-01,-8.563232421875000000e-02
-2.900000000000000000e+01,1.500000000000000000e+01,7.000000000000000000e+00,-2.500000000000000000e+01,-8.000000000000000000e+00,-4.000000000000000000e+00,6.000000000000000000e+00,-1.000000000000000000e+00,3.486938476562500000e-01,1.548461914062500000e-01,-9.204101562500000000e-01,-8.526611328125000000e-02
-1.100000000000000000e+01,-2.300000000000000000e+01,6.000000000000000000e+00,-2.000000000000000000e+01,-1.000000000000000000e+00,-7.000000000000000000e+00,-7.000000000000000000e+00,-7.000000000000000000e+00,3.486938476562500000e-01,1.548461914062500000e-01,-9.204101562500000000e-01,-8.526611328125000000e-02
-2.000000000000000000e+00,9.000000000000000000e+00,-1.000000000000000000e+01,1.300000000000000000e+01,2.000000000000000000e+00,0.000000000000000000e+00,6.000000000000000000e+00,-1.000000000000000000e+00,3.486938476562500000e-01,1.548461914062500000e-01,-9.204101562500000000e-01,-8.526611328125000000e-02
9.000000000000000000e+00,3.000000000000000000e+00,5.000000000000000000e+00,1.900000000000000000e+01,0.000000000000000000e+00,1.000000000000000000e+00,-1.000000000000000000e+00,1.000000000000000000e+00,3.486938476562500000e-01,1.548461914062500000e-01,-9.204101562500000000e-01,-8.526611328125000000e-02
1.600000000000000000e+01,1.000000000000000000e+00,-1.700000000000000000e+01,-2.100000000000000000e+01,0.000000000000000000e+00,-6.000000000000000000e+00,-1.100000000000000000e+01,-1.000000000000000000e+00,3.495483398437500000e-01,1.541137695312500000e-01,-9.202880859375000000e-01,-8.447265625000000000e-02
9.000000000000000000e+00,1.100000000000000000e+01,2.700000000000000000e+01,1.100000000000000000e+01,-4.000000000000000000e+00,-1.000000000000000000e+00,2.000000000000000000e+00,2.000000000000000000e+00,3.495483398437500000e-01,1.541137695312500000e-01,-9.202880859375000000e-01,-8.447265625000000000e-02
-1.900000000000000000e+01,-1.000000000000000000e+01,-1.100000000000000000e+01,-2.000000000000000000e+00,-8.000000000000000000e+00,-4.000000000000000000e+00,5.000000000000000000e+00,-1.000000000000000000e+00,3.495483398437500000e-01,1.541137695312500000e-01,-9.202880859375000000e-01,-8.447265625000000000e-02
-4.000000000000000000e+00,4.000000000000000000e+00,1.300000000000000000e+01,-3.100000000000000000e+01,-8.000000000000000000e+00,-4.000000000000000000e+00,-2.800000000000000000e+01,-1.300000000000000000e+01,3.495483398437500000e-01,1.541137695312500000e-01,-9.202880859375000000e-01,-8.447265625000000000e-02
1.000000000000000000e+00,1.000000000000000000e+00,-3.000000000000000000e+00,3.000000000000000000e+01,2.400000000000000000e+01,8.000000000000000000e+00,9.000000000000000000e+00,2.000000000000000000e+00,3.504028320312500000e-01,1.538696289062500000e-01,-9.201049804687500000e-01,-8.337402343750000000e-02
-1.000000000000000000e+01,-1.500000000000000000e+01,1.100000000000000000e+01,2.300000000000000000e+01,3.000000000000000000e+00,5.000000000000000000e+00,-4.000000000000000000e+00,1.000000000000000000e+00,3.504028320312500000e-01,1.538696289062500000e-01,-9.201049804687500000e-01,-8.337402343750000000e-02
4.000000000000000000e+00,-6.000000000000000000e+00,1.000000000000000000e+00,4.000000000000000000e+00,7.000000000000000000e+00,4.000000000000000000e+00,7.000000000000000000e+00,0.000000000000000000e+00,3.504028320312500000e-01,1.538696289062500000e-01,-9.201049804687500000e-01,-8.337402343750000000e-02
1.100000000000000000e+01,1.900000000000000000e+01,6.000000000000000000e+00,2.000000000000000000e+00,-9.000000000000000000e+00,-3.000000000000000000e+00,2.000000000000000000e+00,-1.000000000000000000e+00,3.504028320312500000e-01,1.538696289062500000e-01,-9.201049804687500000e-01,-8.337402343750000000e-02
-6.000000000000000000e+00,2.000000000000000000e+00,-7.000000000000000000e+00,-5.000000000000000000e+00,-1.400000000000000000e+01,-5.000000000000000000e+00,2.000000000000000000e+00,2.000000000000000000e+00,3.513793945312500000e-01,1.535034179687500000e-01,-9.199218750000000000e-01,-8.239746093750000000e-02
1.500000000000000000e+01,2.800000000000000000e+01,1.900000000000000000e+01,-2.600000000000000000e+01,-9.000000000000000000e+00,3.000000000000000000e+00,2.000000000000000000e+00,2.000000000000000000e+00,3.513793945312500000e-01,1.535034179687500000e-01,-9.199218750000000000e-01,-8.239746093750000000e-02
-1.300000000000000000e+01,-5.100000000000000000e+01,-3.100000000000000000e+01,2.000000000000000000e+01,1.400000000000000000e+01,0.000000000000000000e+00,-7.000000000000000000e+00,-5.000000000000000000e+00,3.513793945312500000e-01,1.535034179687500000e-01,-9.199218750000000000e-01,-8.239746093750000000e-02
-6.000000000000000000e+00,-1.000000000000000000e+01,-1.900000000000000000e+01,-2.800000000000000000e+01,-7.000000000000000000e+00,-4.000000000000000000e+00,-3.000000000000000000e+00,-1.000000000000000000e+00,3.513793945312500000e-01,1.535034179687500000e-01,-9.199218750000000000e-01,-8.239746093750000000e-02
1.000000000000000000e+01,0.000000000000000000e+00,6.000000000000000000e+00,-1.700000000000000000e+01,-2.000000000000000000e+00,2.000000000000000000e+00,2.000000000000000000e+00,2.000000000000000000e+00,3.521118164062500000e-01,1.533203125000000000e-01,-9.196777343750000000e-01,-8.184814453125000000e-02
-8.000000000000000000e+00,2.000000000000000000e+00,-1.900000000000000000e+01,3.000000000000000000e+01,2.400000000000000000e+01,6.000000000000000000e+00,5.000000000000000000e+00,-3.000000000000000000e+00,3.521118164062500000e-01,1.533203125000000000e-01,-9.196777343750000000e-01,-8.184814453125000000e-02
6.000000000000000000e+00,1.200000000000000000e+01,2.400000000000000000e+01,1.900000000000000000e+01,0.000000000000000000e+00,-3.000000000000000000e+00,-6.000000000000000000e+00,6.000000000000000000e+00,3.521118164062500000e-01,1.533203125000000000e-01,-9.196777343750000000e-01,-8.184814453125000000e-02
9.000000000000000000e+00,1.000000000000000000e+01,-1.000000000000000000e+00,1.600000000000000000e+01,2.000000000000000000e+00,2.000000000000000000e+00,8.000000000000000000e+00,3.000000000000000000e+00,3.521118164062500000e-01,1.533203125000000000e-01,-9.196777343750000000e-01,-8.184814453125000000e-02
0.000000000000000000e+00,-3.000000000000000000e+00,7.000000000000000000e+00,4.000000000000000000e+00,-2.000000000000000000e+00,-2.000000000000000000e+00,-5.000000000000000000e+00,-4.000000000000000000e+00,3.528442382812500000e-01,1.522216796875000000e-01,-9.196166992187500000e-01,-8.154296875000000000e-02
5.000000000000000000e+00,-2.000000000000000000e+00,-4.600000000000000000e+01,-2.800000000000000000e+01,-1.300000000000000000e+01,-5.000000000000000000e+00,-6.000000000000000000e+00,-1.000000000000000000e+00,3.528442382812500000e-01,1.522216796875000000e-01,-9.196166992187500000e-01,-8.154296875000000000e-02
-7.000000000000000000e+00,-1.500000000000000000e+01,1.700000000000000000e+01,4.000000000000000000e+00,7.000000000000000000e+00,4.000000000000000000e+00,3.000000000000000000e+00,-2.000000000000000000e+00,3.528442382812500000e-01,1.522216796875000000e-01,-9.196166992187500000e-01,-8.154296875000000000e-02
-5.000000000000000000e+00,-1.500000000000000000e+01,1.000000000000000000e+00,2.800000000000000000e+01,-5.000000000000000000e+00,-3.000000000000000000e+00,-1.000000000000000000e+00,0.000000000000000000e+00,3.528442382812500000e-01,1.522216796875000000e-01,-9.196166992187500000e-01,-8.154296875000000000e-02
1.000000000000000000e+01,4.000000000000000000e+00,-7.000000000000000000e+00,-1.700000000000000000e+01,-4.000000000000000000e+00,2.000000000000000000e+00,-5.000000000000000000e+00,-1.000000000000000000e+00,3.531494140625000000e-01,1.516113281250000000e-01,-9.196777343750000000e-01,-8.117675781250000000e-02
-1.700000000000000000e+01,-9.000000000000000000e+00,1.500000000000000000e+01,1.800000000000000000e+01,8.000000000000000000e+00,3.000000000000000000e+00,1.000000000000000000e+01,6.000000000000000000e+00,3.531494140625000000e-01,1.516113281250000000e-01,-9.196777343750000000e-01,-8.117675781250000000e-02
-2.000000000000000000e+01,1.300000000000000000e+01,-1.300000000000000000e+01,-1.400000000000000000e+01,1.000000000000000000e+00,-4.000000000000000000e+00,-1.000000000000000000e+00,-9.000000000000000000e+00,3.531494140625000000e-01,1.516113281250000000e-01,-9.196777343750000000e-01,-8.117675781250000000e-02
1.000000000000000000e+00,1.800000000000000000e+01,-9.000000000000000000e+00,-6.000000000000000000e+00,-9.000000000000000000e+00,-2.000000000000000000e+00,-2.000000000000000000e+00,-5.000000000000000000e+00,3.531494140625000000e-01,1.516113281250000000e-01,-9.196777343750000000e-01,-8.117675781250000000e-02
8.000000000000000000e+00,-2.200000000000000000e+01,3.000000000000000000e+01,-2.000000000000000000e+00,-1.000000000000000000e+00,-1.000000000000000000e+00,-4.000000000000000000e+00,-2.000000000000000000e+00,3.530273437500000000e-01,1.516113281250000000e-01,-9.197387695312500000e-01,-8.050537109375000000e-02
6.000000000000000000e+00,9.000000000000000000e+00,-3.000000000000000000e+00,8.000000000000000000e+00,-1.300000000000000000e+01,-1.000000000000000000e+01,-1.600000000000000000e+01,-6.000000000000000000e+00,3.530273437500000000e-01,1.516113281250000000e-01,-9.197387695312500000e-01,-8.050537109375000000e-02
4.000000000000000000e+00,-7.000000000000000000e+00,1.200000000000000000e+01,-2.100000000000000000e+01,0.000000000000000000e+00,2.000000000000000000e+00,3.000000000000000000e+00,-1.000000000000000000e+00,3.530273437500000000e-01,1.516113281250000000e-01,-9.197387695312500000e-01,-8.050537109375000000e-02
0.000000000000000000e+00,-6.000000000000000000e+00,-2.100000000000000000e+01,2.600000000000000000e+01,3.000000000000000000e+00,-1.000000000000000000e+01,-8.000000000000000000e+00,-6.000000000000000000e+00,3.530273437500000000e-01,1.516113281250000000e-01,-9.197387695312500000e-01,-8.050537109375000000e-02
9.000000000000000000e+00,1.100000000000000000e+01,-1.000000000000000000e+00,0.000000000000000000e+00,9.000000000000000000e+00,-2.000000000000000000e+00,-4.000000000000000000e+00,-1.000000000000000000e+00,3.528442382812500000e-01,1.519165039062500000e-01,-9.197998046875000000e-01,-7.989501953125000000e-02
3.000000000000000000e+00,6.000000000000000000e+00,-4.000000000000000000e+00,-2.400000000000000000e+01,-9.000000000000000000e+00,1.000000000000000000e+00,2.000000000000000000e+00,3.000000000000000000e+00,3.528442382812500000e-01,1.519165039062500000e-01,-9.197998046875000000e-01,-7.989501953125000000e-02
7.000000000000000000e+00,7.000000000000000000e+00,7.000000000000000000e+00,1.300000000000000000e+01,-4.000000000000000000e+00,-5.000000000000000000e+00,1.000000000000000000e+00,-1.000000000000000000e+00,3.528442382812500000e-01,1.519165039062500000e-01,-9.197998046875000000e-01,-7.989501953125000000e-02
3.000000000000000000e+00,1.000000000000000000e+01,7.000000000000000000e+00,7.000000000000000000e+00,4.000000000000000000e+00,8.000000000000000000e+00,5.000000000000000000e+00,0.000000000000000000e+00,3.528442382812500000e-01,1.519165039062500000e-01,-9.197998046875000000e-01,-7.989501953125000000e-02
-8.000000000000000000e+00,-3.800000000000000000e+01,-1.800000000000000000e+01,-4.000000000000000000e+00,-1.800000000000000000e+01,-5.000000000000000000e+00,2.000000000000000000e+00,1.000000000000000000e+00,3.528442382812500000e-01,1.520385742187500000e-01,-9.197998046875000000e-01,-7.983398437500000000e-02
-4.000000000000000000e+00,-1.300000000000000000e+01,1.000000000000000000e+01,0.000000000000000000e+00,2.000000000000000000e+00,4.000000000000000000e+00,5.000000000000000000e+00,-3.000000000000000000e+00,3.528442382812500000e-01,1.520385742187500000e-01,-9.197998046875000000e-01,-7.983398437500000000e-02
6.000000000000000000e+00,1.600000000000000000e+01,-5.000000000000000000e+00,5.000000000000000000e+00,9.000000000000000000e+00,3.000000000000000000e+00,-4.000000000000000000e+00,0.000000000000000000e+00,3.528442382812500000e-01,1.520385742187500000e-01,-9.197998046875000000e-01,-7.983398437500000000e-02
-1.700000000000000000e+01,-5.000000000000000000e+00,-2.000000000000000000e+00,9.000000000000000000e+00,2.200000000000000000e+01,1.000000000000000000e+00,2.000000000000000000e+00,-1.000000000000000000e+00,3.528442382812500000e-01,1.520385742187500000e-01,-9.197998046875000000e-01,-7.983398437500000000e-02
-6.000000000000000000e+00,-1.100000000000000000e+01,-3.800000000000000000e+01,-2.100000000000000000e+01,-6.000000000000000000e+00,-3.000000000000000000e+00,-1.000000000000000000e+00,0.000000000000000000e+00,3.532104492187500000e-01,1.510009765625000000e-01,-9.197998046875000000e-01,-8.007812500000000000e-02
-1.800000000000000000e+01,1.300000000000000000e+01,2.900000000000000000e+01,-4.000000000000000000e+00,-5.000000000000000000e+00,-2.000000000000000000e+00,-2.000000000000000000e+00,-4.000000000000000000e+00,3.532104492187500000e-01,1.510009765625000000e-01,-9.197998046875000000e-01,-8.007812500000000000e-02
2.000000000000000000e+00,-3.000000000000000000e+00,8.000000000000000000e+00,-1.400000000000000000e+01,-1.000000000000000000e+01,-2.000000000000000000e+00,3.000000000000000000e+00,-2.000000000000000000e+00,3.532104492187500000e-01,1.510009765625000000e-01,-9.197998046875000000e-01,-8.007812500000000000e-02
5.000000000000000000e+00,7.000000000000000000e+00,-4.000000000000000000e+01,-1.500000000000000000e+01,-6.000000000000000000e+00,-1.000000000000000000e+00,-1.000000000000000000e+00,3.000000000000000000e+00,3.532104492187500000e-01,1.510009765625000000e-01,-9.197998046875000000e-01,-8.007812500000000000e-02
1.500000000000000000e+01,9.000000000000000000e+00,7.000000000000000000e+00,-1.000000000000000000e+01,-6.000000000000000000e+00,0.000000000000000000e+00,-3.000000000000000000e+00,-1.000000000000000000e+00,3.534545898437500000e-01,1.505737304687500000e-01,-9.197387695312500000e-01,-8.032226562500000000e-02
-1.400000000000000000e+01,-9.000000000000000000e+00,1.900000000000000000e+01,4.500000000000000000e+01,1.800000000000000000e+01,0.000000000000000000e+00,-4.000000000000000000e+00,-2.000000000000000000e+00,3.534545898437500000e-01,1.505737304687500000e-01,-9.197387695312500000e-01,-8.032226562500000000e-02
-1.700000000000000000e+01,2.000000000000000000e+00,-1.300000000000000000e+01,-3.400000000000000000e+01,-1.200000000000000000e+01,-6.000000000000000000e+00,-3.000000000000000000e+00,3.000000000000000000e+00,3.534545898437500000e-01,1.505737304687500000e-01,-9.197387695312500000e-01,-8.032226562500000000e-02
-1.900000000000000000e+01,-1.000000000000000000e+01,1.500000000000000000e+01,-1.200000000000000000e+01,1.000000000000000000e+00,-4.000000000000000000e+00,-6.000000000000000000e+00,-4.000000000000000000e+00,3.534545898437500000e-01,1.505737304687500000e-01,-9.197387695312500000e-01,-8.032226562500000000e-02
-2.000000000000000000e+00,7.000000000000000000e+00,-1.000000000000000000e+01,-8.000000000000000000e+00,5.000000000000000000e+00,2.000000000000000000e+00,-6.000000000000000000e+00,-6.000000000000000000e+00,3.536987304687500000e-01,1.511230468750000000e-01,-9.195556640625000000e-01,-8.032226562500000000e-02
1.100000000000000000e+01,2.000000000000000000e+00,-1.000000000000000000e+00,-9.000000000000000000e+00,-4.000000000000000000e+00,1.000000000000000000e+00,6.000000000000000000e+00,5.000000000000000000e+00,3.536987304687500000e-01,1.511230468750000000e-01,-9.195556640625000000e-01,-8.032226562500000000e-02
5.000000000000000000e+00,3.000000000000000000e+00,1.400000000000000000e+01,-1.000000000000000000e+00,-3.000000000000000000e+00,-7.000000000000000000e+00,-1.000000000000000000e+01,2.000000000000000000e+00,3.536987304687500000e-01,1.511230468750000000e-01,-9.195556640625000000e-01,-8.032226562500000000e-02
2.000000000000000000e+00,-1.200000000000000000e+01,-9.000000000000000000e+00,3.400000000000000000e+01,2.000000000000000000e+00,-2.000000000000000000e+00,-6.000000000000000000e+00,-2.000000000000000000e+00,3.536987304687500000e-01,1.511230468750000000e-01,-9.195556640625000000e-01,-8.032226562500000000e-02
0.000000000000000000e+00,9.000000000000000000e+00,-7.000000000000000000e+00,-9.000000000000000000e+00,3.000000000000000000e+00,-4.000000000000000000e+00,8.000000000000000000e+00,0.000000000000000000e+00,3.536376953125000000e-01,1.516113281250000000e-01,-9.194946289062500000e-01,-8.062744140625000000e-02
1.100000000000000000e+01,5.000000000000000000e+00,3.000000000000000000e+00,8.000000000000000000e+00,1.000000000000000000e+00,0.000000000000000000e+00,-3.000000000000000000e+00,1.200000000000000000e+01,3.536376953125000000e-01,1.516113281250000000e-01,-9.194946289062500000e-01,-8.062744140625000000e-02
-3.000000000000000000e+00,-9.000000000000000000e+00,1.000000000000000000e+00,7.000000000000000000e+00,1.000000000000000000e+00,2.000000000000000000e+00,4.000000000000000000e+00,-1.200000000000000000e+01,3.536376953125000000e-01,1.516113281250000000e-01,-9.194946289062500000e-01,-8.062744140625000000e-02
-1.600000000000000000e+01,-1.600000000000000000e+01,6.000000000000000000e+00,-2.800000000000000000e+01,-1.100000000000000000e+01,3.000000000000000000e+00,-1.000000000000000000e+00,-3.000000000000000000e+00,3.536376953125000000e-01,1.516113281250000000e-01,-9.194946289062500000e-01,-8.062744140625000000e-02
-8.000000000000000000e+00,1.500000000000000000e+01,-6.000000000000000000e+00,1.100000000000000000e+01,1.000000000000000000e+00,-7.000000000000000000e+00,-2.000000000000000000e+00,-6.000000000000000000e+00,3.536376953125000000e-01,1.519775390625000000e-01,-9.194335937500000000e-01,-8.099365234375000000e-02
2.000000000000000000e+00,-2.200000000000000000e+01,-2.900000000000000000e+01,-5.000000000000000000e+00,-1.100000000000000000e+01,-7.000000000000000000e+00,-5.000000000000000000e+00,0.000000000000000000e+00,3.536376953125000000e-01,1.519775390625000000e-01,-9.194335937500000000e-01,-8.099365234375000000e-02
1.000000000000000000e+00,0.000000000000000000e+00,1.000000000000000000e+01,-2.700000000000000000e+01,-2.400000000000000000e+01,-5.000000000000000000e+00,-2.000000000000000000e+00,2.000000000000000000e+00,3.536376953125000000e-01,1.519775390625000000e-01,-9.194335937500000000e-01,-8.099365234375000000e-02
6.000000000000000000e+00,-1.200000000000000000e+01,1.700000000000000000e+01,1.900000000000000000e+01,1.000000000000000000e+01,6.000000000000000000e+00,0.000000000000000000e+00,-1.000000000000000000e+00,3.536376953125000000e-01,1.519775390625000000e-01,-9.194335937500000000e-01,-8.099365234375000000e-02
-6.000000000000000000e+00,-2.000000000000000000e+00,-4.300000000000000000e+01,1.000000000000000000e+00,4.000000000000000000e+00,2.000000000000000000e+00,-1.000000000000000000e+00,-1.000000000000000000e+00,3.538208007812500000e-01,1.517333984375000000e-01,-9.193115234375000000e-01,-8.135986328125000000e-02
1.300000000000000000e+01,2.000000000000000000e+01,8.000000000000000000e+00,-3.000000000000000000e+00,-1.000000000000000000e+00,-3.000000000000000000e+00,-3.000000000000000000e+00,-7.000000000000000000e+00,3.538208007812500000e-01,1.517333984375000000e-01,-9.193115234375000000e-01,-8.135986328125000000e-02
-6.000000000000000000e+00,-6.000000000000000000e+00,-1.000000000000000000e+01,-7.000000000000000000e+00,2.000000000000000000e+00,2.000000000000000000e+00,-1.000000000000000000e+00,-1.000000000000000000e+00,3.538208007812500000e-01,1.517333984375000000e-01,-9.193115234375000000e-01,-8.135986328125000000e-02
3.000000000000000000e+00,8.000000000000000000e+00,2.800000000000000000e+01,-6.000000000000000000e+00,-2.300000000000000000e+01,-6.000000000000000000e+00,0.000000000000000000e+00,1.000000000000000000e+00,3.538208007812500000e-01,1.517333984375000000e-01,-9.193115234375000000e-01,-8.135986328125000000e-02
-4.000000000000000000e+00,-4.000000000000000000e+00,4.000000000000000000e+00,-1.000000000000000000e+01,-2.000000000000000000e+00,0.000000000000000000e+00,2.000000000000000000e+00,3.000000000000000000e+00,3.543090820312500000e-01,1.513061523437500000e-01,-9.191894531250000000e-01,-8.154296875000000000e-02
-1.000000000000000000e+00,-1.500000000000000000e+01,-4.000000000000000000e+00,1.700000000000000000e+01,1.900000000000000000e+01,1.000000000000000000e+00,1.000000000000000000e+00,-4.000000000000000000e+00,3.543090820312500000e-01,1.513061523437500000e-01,-9.191894531250000000e-01,-8.154296875000000000e-02
8.000000000000000000e+00,9.000000000000000000e+00,-1.500000000000000000e+01,0.000000000000000000e+00,-2.000000000000000000e+00,1.000000000000000000e+00,-3.000000000000000000e+00,2.000000000000000000e+00,3.543090820312500000e-01,1.513061523437500000e-01,-9.191894531250000000e-01,-8.154296875000000000e-02
1.000000000000000000e+01,2.100000000000000000e+01,8.000000000000000000e+00,-9.000000000000000000e+00,-2.000000000000000000e+00,2.000000000000000000e+00,7.000000000000000000e+00,7.000000000000000000e+00,3.543090820312500000e-01,1.513061523437500000e-01,-9.191894531250000000e-01,-8.154296875000000000e-02
0.000000000000000000e+00,-1.300000000000000000e+01,9.000000000000000000e+00,1.400000000000000000e+01,-2.000000000000000000e+00,-5.000000000000000000e+00,-2.000000000000000000e+00,-2.000000000000000000e+00,3.546142578125000000e-01,1.510620117187500000e-01,-9.191284179687500000e-01,-8.166503906250000000e-02
-2.100000000000000000e+01,-9.000000000000000000e+00,-4.000000000000000000e+00,-1.600000000000000000e+01,-1.700000000000000000e+01,-3.000000000000000000e+00,-1.000000000000000000e+00,-4.000000000000000000e+00,3.546142578125000000e-01,1.510620117187500000e-01,-9.191284179687500000e-01,-8.166503906250000000e-02
3.000000000000000000e+00,0.000000000000000000e+00,-3.000000000000000000e+00,1.000000000000000000e+00,4.000000000000000000e+00,3.000000000000000000e+00,0.000000000000000000e+00,2.000000000000000000e+00,3.547363281250000000e-01,1.510009765625000000e-01,-9.190673828125000000e-01,-8.190917968750000000e-02
6.000000000000000000e+00,9.000000000000000000e+00,3.000000000000000000e+00,1.400000000000000000e+01,3.000000000000000000e+00,-6.000000000000000000e+00,-5.000000000000000000e+00,-4.000000000000000000e+00,3.547363281250000000e-01,1.510009765625000000e-01,-9.190673828125000000e-01,-8.190917968750000000e-02
-1.500000000000000000e+01,-1.300000000000000000e+01,4.000000000000000000e+00,-1.600000000000000000e+01,-5.000000000000000000e+00,5.000000000000000000e+00,1.700000000000000000e+01,-1.000000000000000000e+00,3.547363281250000000e-01,1.510009765625000000e-01,-9.190673828125000000e-01,-8.190917968750000000e-02
1.000000000000000000e+00,3.000000000000000000e+00,-4.000000000000000000e+00,-4.000000000000000000e+00,-2.000000000000000000e+00,-2.000000000000000000e+00,-1.200000000000000000e+01,-5.000000000000000000e+00,3.547363281250000000e-01,1.510009765625000000e-01,-9.190673828125000000e-01,-8.190917968750000000e-02
1.000000000000000000e+00,-2.000000000000000000e+00,-6.000000000000000000e+00,7.000000000000000000e+00,7.000000000000000000e+00,-1.000000000000000000e+00,2.000000000000000000e+00,2.000000000000000000e+00,3.546142578125000000e-01,1.508178710937500000e-01,-9.191284179687500000e-01,-8.239746093750000000e-02
-3.000000000000000000e+00,1.300000000000000000e+01,1.400000000000000000e+01,2.000000000000000000e+00,-6.000000000000000000e+00,-5.000000000000000000e+00,-2.000000000000000000e+00,-6.000000000000000000e+00,3.546142578125000000e-01,1.508178710937500000e-01,-9.191284179687500000e-01,-8.239746093750000000e-02
1.700000000000000000e+01,0.000000000000000000e+00,-1.700000000000000000e+01,-4.000000000000000000e+00,-2.000000000000000000e+00,-5.000000000000000000e+00,-1.000000000000000000e+00,2.000000000000000000e+00,3.546142578125000000e-01,1.508178710937500000e-01,-9.191284179687500000e-01,-8.239746093750000000e-02
-1.800000000000000000e+01,-1.800000000000000000e+01,-3.000000000000000000e+00,2.000000000000000000e+00,-4.000000000000000000e+00,2.000000000000000000e+00,-1.000000000000000000e+00,-4.000000000000000000e+00,3.546142578125000000e-01,1.508178710937500000e-01,-9.191284179687500000e-01,-8.239746093750000000e-02
-4.000000000000000000e+00,6.000000000000000000e+00,4.000000000000000000e+00,4.000000000000000000e+00,5.000000000000000000e+00,0.000000000000000000e+00,3.000000000000000000e+00,0.000000000000000000e+00,3.547363281250000000e-01,1.500854492187500000e-01,-9.191284179687500000e-01,-8.264160156250000000e-02
8.000000000000000000e+00,-1.300000000000000000e+01,-1.700000000000000000e+01,-1.700000000000000000e+01,-1.100000000000000000e+01,-3.000000000000000000e+00,-1.000000000000000000e+00,0.000000000000000000e+00,3.547363281250000000e-01,1.500854492187500000e-01,-9.191284179687500000e-01,-8.264160156250000000e-02
-6.000000000000000000e+00,-2.000000000000000000e+00,1.400000000000000000e+01,2.000000000000000000e+00,-7.000000000000000000e+00,-5.000000000000000000e+00,-9.000000000000000000e+00,-1.000000000000000000e+00,3.547363281250000000e-01,1.500854492187500000e-01,-9.191284179687500000e-01,-8.264160156250000000e-02
7.000000000000000000e+00,9.000000000000000000e+00,1.000000000000000000e+00,-2.100000000000000000e+01,-9.000000000000000000e+00,-1.000000000000000000e+00,1.000000000000000000e+01,1.000000000000000000e+01,3.547363281250000000e-01,1.500854492187500000e-01,-9.191284179687500000e-01,-8.264160156250000000e-02
0.000000000000000000e+00,-6.000000000000000000e+00,-3.000000000000000000e+00,3.300000000000000000e+01,1.500000000000000000e+01,2.000000000000000000e+00,-1.100000000000000000e+01,-6.000000000000000000e+00,3.551025390625000000e-01,1.494750976562500000e-01,-9.191284179687500000e-01,-8.251953125000000000e-02
-5.000000000000000000e+00,-6.000000000000000000e+00,-7.000000000000000000e+00,1.000000000000000000e+01,8.000000000000000000e+00,4.000000000000000000e+00,4.000000000000000000e+00,-4.000000000000000000e+00,3.551025390625000000e-01,1.494750976562500000e-01,-9.191284179687500000e-01,-8.251953125000000000e-02
-4.000000000000000000e+00,-1.100000000000000000e+01,1.500000000000000000e+01,-5.000000000000000000e+00,-4.000000000000000000e+00,-4.000000000000000000e+00,-1.000000000000000000e+01,-3.000000000000000000e+00,3.551025390625000000e-01,1.494750976562500000e-01,-9.191284179687500000e-01,-8.251953125000000000e-02
2.000000000000000000e+00,5.000000000000000000e+00,-2.600000000000000000e+01,-7.000000000000000000e+00,0.000000000000000000e+00,-1.000000000000000000e+00,-3.000000000000000000e+00,-3.000000000000000000e+00,3.551025390625000000e-01,1.494750976562500000e-01,-9.191284179687500000e-01,-8.251953125000000000e-02
-1.000000000000000000e+00,0.000000000000000000e+00,4.000000000000000000e+00,-2.100000000000000000e+01,-1.400000000000000000e+01,-2.000000000000000000e+00,1.000000000000000000e+00,2.000000000000000000e+00,3.557128906250000000e-01,1.488647460937500000e-01,-9.190063476562500000e-01,-8.221435546875000000e-02
-1.000000000000000000e+00,-6.000000000000000000e+00,2.000000000000000000e+00,7.000000000000000000e+00,1.000000000000000000e+00,-3.000000000000000000e+00,1.000000000000000000e+00,2.000000000000000000e+00,3.557128906250000000e-01,1.488647460937500000e-01,-9.190063476562500000e-01,-8.221435546875000000e-02
-4.000000000000000000e+00,5.000000000000000000e+00,-2.000000000000000000e+00,-7.000000000000000000e+00,1.700000000000000000e+01,7.000000000000000000e+00,-2.000000000000000000e+00,-4.000000000000000000e+00,3.557128906250000000e-01,1.488647460937500000e-01,-9.190063476562500000e-01,-8.221435546875000000e-02
4.000000000000000000e+00,1.000000000000000000e+00,7.000000000000000000e+00,2.000000000000000000e+00,2.000000000000000000e+00,-1.000000000000000000e+00,1.000000000000000000e+00,2.000000000000000000e+00,3.557128906250000000e-01,1.488647460937500000e-01,-9.190063476562500000e-01,-8.221435546875000000e-02
3.000000000000000000e+00,4.000000000000000000e+00,-4.000000000000000000e+00,-7.000000000000000000e+00,-4.000000000000000000e+00,-2.000000000000000000e+00,-1.000000000000000000e+00,-2.000000000000000000e+00,3.560791015625000000e-01,1.485595703125000000e-01,-9.189453125000000000e-01,-8.215332031250000000e-02
-4.000000000000000000e+00,-1.500000000000000000e+01,-1.700000000000000000e+01,1.200000000000000000e+01,6.000000000000000000e+00,3.000000000000000000e+00,-4.000000000000000000e+00,-2.000000000000000000e+00,3.560791015625000000e-01,1.485595703125000000e-01,-9.189453125000000000e-01,-8.215332031250000000e-02
1.000000000000000000e+00,8.000000000000000000e+00,6.000000000000000000e+00,-2.000000000000000000e+00,-9.000000000000000000e+00,-2.000000000000000000e+00,-7.000000000000000000e+00,-2.000000000000000000e+00,3.560791015625000000e-01,1.485595703125000000e-01,-9.189453125000000000e-01,-8.215332031250000000e-02
-2.300000000000000000e+01,-7.000000000000000000e+00,1.000000000000000000e+01,-9.000000000000000000e+00,-5.000000000000000000e+00,-6.000000000000000000e+00,6.000000000000000000e+00,-8.000000000000000000e+00,3.560791015625000000e-01,1.485595703125000000e-01,-9.189453125000000000e-01,-8.215332031250000000e-02
0.000000000000000000e+00,-8.000000000000000000e+00,-1.900000000000000000e+01,-7.000000000000000000e+00,-5.000000000000000000e+00,-3.000000000000000000e+00,-3.000000000000000000e+00,-3.000000000000000000e+00,3.563232421875000000e-01,1.482543945312500000e-01,-9.188232421875000000e-01,-8.276367187500000000e-02
1.000000000000000000e+01,4.000000000000000000e+00,-1.200000000000000000e+01,-1.600000000000000000e+01,-5.000000000000000000e+00,-2.000000000000000000e+00,-4.000000000000000000e+00,0.000000000000000000e+00,3.563232421875000000e-01,1.482543945312500000e-01,-9.188232421875000000e-01,-8.276367187500000000e-02
9.000000000000000000e+00,1.000000000000000000e+01,5.000000000000000000e+00,1.100000000000000000e+01,0.000000000000000000e+00,3.000000000000000000e+00,-3.000000000000000000e+00,2.000000000000000000e+00,3.563232421875000000e-01,1.482543945312500000e-01,-9.188232421875000000e-01,-8.276367187500000000e-02
1.100000000000000000e+01,-8.000000000000000000e+00,-2.200000000000000000e+01,1.000000000000000000e+01,-7.000000000000000000e+00,-1.000000000000000000e+00,-9.000000000000000000e+00,-2.000000000000000000e+00,3.563232421875000000e-01,1.482543945312500000e-01,-9.188232421875000000e-01,-8.276367187500000000e-02
-2.200000000000000000e+01,-1.300000000000000000e+01,-7.000000000000000000e+00,6.000000000000000000e+00,6.000000000000000000e+00,-1.000000000000000000e+00,0.000000000000000000e+00,-4.000000000000000000e+00,3.567504882812500000e-01,1.469726562500000000e-01,-9.188232421875000000e-01,-8.337402343750000000e-02
4.000000000000000000e+00,-3.000000000000000000e+00,1.100000000000000000e+01,-3.000000000000000000e+00,-4.000000000000000000e+00,-1.000000000000000000e+00,2.000000000000000000e+00,3.000000000000000000e+00,3.567504882812500000e-01,1.469726562500000000e-01,-9.188232421875000000e-01,-8.337402343750000000e-02
-6.000000000000000000e+00,7.000000000000000000e+00,-2.000000000000000000e+00,-1.000000000000000000e+00,-1.000000000000000000e+00,-2.000000000000000000e+00,-1.000000000000000000e+00,-2.000000000000000000e+00,3.567504882812500000e-01,1.469726562500000000e-01,-9.188232421875000000e-01,-8.337402343750000000e-02
0.000000000000000000e+00,-5.000000000000000000e+00,1.500000000000000000e+01,9.000000000000000000e+00,-5.000000000000000000e+00,-3.000000000000000000e+00,-2.000000000000000000e+00,-1.000000000000000000e+00,3.567504882812500000e-01,1.469726562500000000e-01,-9.188232421875000000e-01,-8.337402343750000000e-02
9.000000000000000000e+00,2.000000000000000000e+01,-8.000000000000000000e+00,-4.000000000000000000e+00,-4.000000000000000000e+00,0.000000000000000000e+00,-1.000000000000000000e+00,-4.000000000000000000e+00,3.572387695312500000e-01,1.463012695312500000e-01,-9.187011718750000000e-01,-8.331298828125000000e-02
-2.000000000000000000e+00,-5.000000000000000000e+00,3.000000000000000000e+00,-8.000000000000000000e+00,6.000000000000000000e+00,-1.000000000000000000e+00,-3.000000000000000000e+00,-2.000000000000000000e+00,3.572387695312500000e-01,1.463012695312500000e-01,-9.187011718750000000e-01,-8.331298828125000000e-02
-1.000000000000000000e+00,-3.000000000000000000e+00,1.000000000000000000e+00,-6.000000000000000000e+00,-2.000000000000000000e+00,2.000000000000000000e+00,4.000000000000000000e+00,2.000000000000000000e+00,3.572387695312500000e-01,1.463012695312500000e-01,-9.187011718750000000e-01,-8.331298828125000000e-02
3.000000000000000000e+00,6.000000000000000000e+00,2.000000000000000000e+00,1.100000000000000000e+01,1.000000000000000000e+01,0.000000000000000000e+00,-1.000000000000000000e+00,0.000000000000000000e+00,3.572387695312500000e-01,1.463012695312500000e-01,-9.187011718750000000e-01,-8.331298828125000000e-02
1.200000000000000000e+01,5.000000000000000000e+00,1.200000000000000000e+01,-4.000000000000000000e+00,8.000000000000000000e+00,1.000000000000000000e+00,-4.000000000000000000e+00,-2.000000000000000000e+00,3.576660156250000000e-01,1.464233398437500000e-01,-9.185791015625000000e-01,-8.282470703125000000e-02
-3.400000000000000000e+01,-1.300000000000000000e+01,5.000000000000000000e+00,1.500000000000000000e+01,-1.100000000000000000e+01,-8.000000000000000000e+00,-2.000000000000000000e+00,-7.000000000000000000e+00,3.576660156250000000e-01,1.464233398437500000e-01,-9.185791015625000000e-01,-8.282470703125000000e-02
5.000000000000000000e+00,-3.000000000000000000e+00,1.100000000000000000e+01,-9.000000000000000000e+00,-8.000000000000000000e+00,-3.000000000000000000e+00,3.000000000000000000e+00,0.000000000000000000e+00,3.576660156250000000e-01,1.464233398437500000e-01,-9.185791015625000000e-01,-8.282470703125000000e-02
-2.100000000000000000e+01,-7.000000000000000000e+00,-6.000000000000000000e+00,5.000000000000000000e+00,1.500000000000000000e+01,5.000000000000000000e+00,6.000000000000000000e+00,-1.000000000000000000e+00,3.576660156250000000e-01,1.464233398437500000e-01,-9.185791015625000000e-01,-8.282470703125000000e-02
4.000000000000000000e+00,5.000000000000000000e+00,2.200000000000000000e+01,8.000000000000000000e+00,-1.000000000000000000e+00,3.000000000000000000e+00,0.000000000000000000e+00,3.000000000000000000e+00,3.580932617187500000e-01,1.463623046875000000e-01,-9.184570312500000000e-01,-8.264160156250000000e-02
5.000000000000000000e+00,7.000000000000000000e+00,-1.800000000000000000e+01,-3.000000000000000000e+00,0.000000000000000000e+00,1.000000000000000000e+00,-1.000000000000000000e+00,0.000000000000000000e+00,3.580932617187500000e-01,1.463623046875000000e-01,-9.184570312500000000e-01,-8.264160156250000000e-02
-4.000000000000000000e+00,-2.000000000000000000e+00,1.400000000000000000e+01,-6.000000000000000000e+00,-4.000000000000000000e+00,-8.000000000000000000e+00,-4.000000000000000000e+00,-3.000000000000000000e+00,3.580932617187500000e-01,1.463623046875000000e-01,-9.184570312500000000e-01,-8.264160156250000000e-02
5.000000000000000000e+00,-7.000000000000000000e+00,2.000000000000000000e+00,-3.000000000000000000e+00,-5.000000000000000000e+00,0.000000000000000000e+00,-5.000000000000000000e+00,0.000000000000000000e+00,3.580932617187500000e-01,1.463623046875000000e-01,-9.184570312500000000e-01,-8.264160156250000000e-02
3.000000000000000000e+00,1.000000000000000000e+01,7.000000000000000000e+00,6.000000000000000000e+00,0.000000000000000000e+00,-4.000000000000000000e+00,-1.000000000000000000e+00,-2.000000000000000000e+00,3.583984375000000000e-01,1.458740234375000000e-01,-9.183959960937500000e-01,-8.294677734375000000e-02
9.000000000000000000e+00,8.000000000000000000e+00,7.000000000000000000e+00,-1.200000000000000000e+01,-5.000000000000000000e+00,-3.000000000000000000e+00,3.000000000000000000e+00,3.000000000000000000e+00,3.583984375000000000e-01,1.458740234375000000e-01,-9.183959960937500000e-01,-8.294677734375000000e-02
-1.000000000000000000e+01,-1.000000000000000000e+00,-1.200000000000000000e+01,1.600000000000000000e+01,9.000000000000000000e+00,3.000000000000000000e+00,-2.000000000000000000e+00,-3.000000000000000000e+00,3.583984375000000000e-01,1.458740234375000000e-01,-9.183959960937500000e-01,-8.294677734375000000e-02
8.000000000000000000e+00,-8.000000000000000000e+00,6.000000000000000000e+00,-7.000000000000000000e+00,-3.000000000000000000e+00,-4.000000000000000000e+00,-4.000000000000000000e+00,-2.000000000000000000e+00,3.583984375000000000e-01,1.458740234375000000e-01,-9.183959960937500000e-01,-8.294677734375000000e-02
-6.000000000000000000e+00,2.000000000000000000e+00,1.000000000000000000e+00,0.000000000000000000e+00,-8.000000000000000000e+00,-2.000000000000000000e+00,-6.000000000000000000e+00,-2.000000000000000000e+00,3.585205078125000000e-01,1.454467773437500000e-01,-9.183959960937500000e-01,-8.319091796875000000e-02
0.000000000000000000e+00,-2.000000000000000000e+00,-8.000000000000000000e+00,1.000000000000000000e+01,1.000000000000000000e+01,5.000000000000000000e+00,4.000000000000000000e+00,0.000000000000000000e+00,3.585205078125000000e-01,1.454467773437500000e-01,-9.183959960937500000e-01,-8.319091796875000000e-02
3.000000000000000000e+00,2.000000000000000000e+00,2.000000000000000000e+01,1.900000000000000000e+01,-8.000000000000000000e+00,-1.000000000000000000e+00,4.000000000000000000e+00,1.000000000000000000e+00,3.585205078125000000e-01,1.454467773437500000e-01,-9.183959960937500000e-01,-8.319091796875000000e-02
0.000000000000000000e+00,0.000000000000000000e+00,-2.700000000000000000e+01,-1.200000000000000000e+01,1.000000000000000000e+00,6.000000000000000000e+00,1.100000000000000000e+01,-2.000000000000000000e+00,3.585205078125000000e-01,1.454467773437500000e-01,-9.183959960937500000e-01,-8.319091796875000000e-02
-1.000000000000000000e+01,-1.300000000000000000e+01,1.000000000000000000e+00,-5.000000000000000000e+00,-2.000000000000000000e+00,-8.000000000000000000e+00,-4.000000000000000000e+00,0.000000000000000000e+00,3.584594726562500000e-01,1.457519531250000000e-01,-9.183349609375000000e-01,-8.319091796875000000e-02
1.500000000000000000e+01,2.000000000000000000e+00,2.000000000000000000e+00,-1.200000000000000000e+01,-1.200000000000000000e+01,-5.000000000000000000e+00,-7.000000000000000000e+00,1.000000000000000000e+00,3.584594726562500000e-01,1.457519531250000000e-01,-9.183349609375000000e-01,-8.319091796875000000e-02
-1.400000000000000000e+01,7.000000000000000000e+00,2.000000000000000000e+00,2.600000000000000000e+01,-7.000000000000000000e+00,-5.000000000000000000e+00,-4.000000000000000000e+00,1.000000000000000000e+00,3.584594726562500000e-01,1.457519531250000000e-01,-9.183349609375000000e-01,-8.319091796875000000e-02
1.700000000000000000e+01,2.100000000000000000e+01,1.200000000000000000e+01,4.000000000000000000e+00,1.000000000000000000e+01,8.000000000000000000e+00,1.300000000000000000e+01,2.000000000000000000e+00,3.584594726562500000e-01,1.457519531250000000e-01,-9.183349609375000000e-01,-8.319091796875000000e-02
-3.700000000000000000e+01,-3.600000000000000000e+01,-1.300000000000000000e+01,-1.700000000000000000e+01,-8.000000000000000000e+00,1.000000000000000000e+00,3.000000000000000000e+00,-4.000000000000000000e+00,3.583374023437500000e-01,1.463623046875000000e-01,-9.183349609375000000e-01,-8.288574218750000000e-02
-2.200000000000000000e+01,-1.100000000000000000e+01,1.000000000000000000e+00,-1.400000000000000000e+01,2.000000000000000000e+00,0.000000000000000000e+00,-5.000000000000000000e+00,-4.000000000000000000e+00,3.583374023437500000e-01,1.463623046875000000e-01,-9.183349609375000000e-01,-8.288574218750000000e-02
6.000000000000000000e+00,2.000000000000000000e+00,-3.000000000000000000e+00,0.000000000000000000e+00,1.000000000000000000e+00,1.000000000000000000e+00,4.000000000000000000e+00,-1.000000000000000000e+00,3.583374023437500000e-01,1.463623046875000000e-01,-9.183349609375000000e-01,-8.288574218750000000e-02
2.100000000000000000e+01,2.200000000000000000e+01,1.200000000000000000e+01,-1.700000000000000000e+01,-1.500000000000000000e+01,-8.000000000000000000e+00,-8.000000000000000000e+00,1.000000000000000000e+00,3.583374023437500000e-01,1.463623046875000000e-01,-9.183349609375000000e-01,-8.288574218750000000e-02
-1.500000000000000000e+01,-1.700000000000000000e+01,-1.500000000000000000e+01,1.800000000000000000e+01,5.000000000000000000e+00,0.000000000000000000e+00,2.000000000000000000e+00,2.000000000000000000e+00,3.580322265625000000e-01,1.470336914062500000e-01,-9.183349609375000000e-01,-8.288574218750000000e-02
2.000000000000000000e+00,0.000000000000000000e+00,-1.800000000000000000e+01,-1.000000000000000000e+01,-1.000000000000000000e+01,-4.000000000000000000e+00,-7.000000000000000000e+00,-4.000000000000000000e+00,3.580322265625000000e-01,1.470336914062500000e-01,-9.183349609375000000e-01,-8.288574218750000000e-02
-4.000000000000000000e+00,-5.000000000000000000e+00,1.000000000000000000e+01,2.000000000000000000e+00,5.000000000000000000e+00,-1.000000000000000000e+00,-4.000000000000000000e+00,-2.000000000000000000e+00,3.580322265625000000e-01,1.470336914062500000e-01,-9.183349609375000000e-01,-8.288574218750000000e-02
2.000000000000000000e+00,7.000000000000000000e+00,9.000000000000000000e+00,-3.000000000000000000e+00,3.000000000000000000e+00,0.000000000000000000e+00,-4.000000000000000000e+00,-1.000000000000000000e+00,3.580322265625000000e-01,1.470336914062500000e-01,-9.183349609375000000e-01,-8.288574218750000000e-02
9.000000000000000000e+00,-4.000000000000000000e+00,1.000000000000000000e+00,-1.000000000000000000e+01,-1.000000000000000000e+00,-1.000000000000000000e+00,0.000000000000000000e+00,-1.000000000000000000e+00,3.577880859375000000e-01,1.469116210937500000e-01,-9.184570312500000000e-01,-8.288574218750000000e-02
-5.000000000000000000e+00,3.000000000000000000e+00,1.000000000000000000e+01,0.000000000000000000e+00,0.000000000000000000e+00,-6.000000000000000000e+00,-1.000000000000000000e+00,-2.000000000000000000e+00,3.577880859375000000e-01,1.469116210937500000e-01,-9.184570312500000000e-01,-8.288574218750000000e-02
3.000000000000000000e+00,-6.000000000000000000e+00,-7.200000000000000000e+01,-9.000000000000000000e+00,0.000000000000000000e+00,3.000000000000000000e+00,0.000000000000000000e+00,-1.000000000000000000e+00,3.577880859375000000e-01,1.469116210937500000e-01,-9.184570312500000000e-01,-8.288574218750000000e-02
0.000000000000000000e+00,2.000000000000000000e+00,3.000000000000000000e+00,-1.000000000000000000e+00,0.000000000000000000e+00,-4.000000000000000000e+00,1.000000000000000000e+00,2.000000000000000000e+00,3.577880859375000000e-01,1.469116210937500000e-01,-9.184570312500000000e-01,-8.288574218750000000e-02
1.500000000000000000e+01,1.800000000000000000e+01,1.700000000000000000e+01,2.400000000000000000e+01,-5.000000000000000000e+00,-2.000000000000000000e+00,-1.000000000000000000e+00,1.000000000000000000e+00,3.576660156250000000e-01,1.469116210937500000e-01,-9.185180664062500000e-01,-8.264160156250000000e-02
-1.200000000000000000e+01,-1.600000000000000000e+01,9.000000000000000000e+00,-3.000000000000000000e+00,-2.000000000000000000e+00,1.000000000000000000e+00,-2.000000000000000000e+00,1.000000000000000000e+00,3.576660156250000000e-01,1.469116210937500000e-01,-9.185180664062500000e-01,-8.264160156250000000e-02
-1.000000000000000000e+00,-9.000000000000000000e+00,-1.200000000000000000e+01,-1.000000000000000000e+01,1.000000000000000000e+00,-4.000000000000000000e+00,-5.000000000000000000e+00,-3.000000000000000000e+00,3.576660156250000000e-01,1.469116210937500000e-01,-9.185180664062500000e-01,-8.264160156250000000e-02
1.000000000000000000e+00,-4.000000000000000000e+00,-3.000000000000000000e+00,-4.000000000000000000e+00,-7.000000000000000000e+00,0.000000000000000000e+00,-1.000000000000000000e+00,-2.000000000000000000e+00,3.576660156250000000e-01,1.469116210937500000e-01,-9.185180664062500000e-01,-8.264160156250000000e-02
-8.000000000000000000e+00,-3.000000000000000000e+00,-1.600000000000000000e+01,-4.000000000000000000e+00,-6.000000000000000000e+00,1.000000000000000000e+00,3.000000000000000000e+00,-1.000000000000000000e+00,3.575439453125000000e-01,1.469726562500000000e-01,-9.185791015625000000e-01,-8.221435546875000000e-02
5.000000000000000000e+00,2.000000000000000000e+00,-1.000000000000000000e+00,-4.000000000000000000e+00,3.000000000000000000e+00,2.000000000000000000e+00,2.000000000000000000e+00,1.000000000000000000e+00,3.575439453125000000e-01,1.469726562500000000e-01,-9.185791015625000000e-01,-8.221435546875000000e-02
-4.000000000000000000e+00,4.000000000000000000e+00,3.100000000000000000e+01,1.000000000000000000e+01,6.000000000000000000e+00,0.000000000000000000e+00,4.000000000000000000e+00,2.000000000000000000e+00,3.575439453125000000e-01,1.469726562500000000e-01,-9.185791015625000000e-01,-8.221435546875000000e-02
-9.000000000000000000e+00,-1.100000000000000000e+01,-2.500000000000000000e+01,-1.800000000000000000e+01,1.000000000000000000e+00,-4.000000000000000000e+00,-4.000000000000000000e+00,-1.000000000000000000e+00,3.575439453125000000e-01,1.469726562500000000e-01,-9.185791015625000000e-01,-8.221435546875000000e-02
4.000000000000000000e+00,-1.000000000000000000e+00,1.200000000000000000e+01,-7.000000000000000000e+00,-1.100000000000000000e+01,-5.000000000000000000e+00,-2.000000000000000000e+00,0.000000000000000000e+00,3.574829101562500000e-01,1.470336914062500000e-01,-9.186401367187500000e-01,-8.184814453125000000e-02
1.000000000000000000e+01,2.000000000000000000e+00,7.000000000000000000e+00,1.800000000000000000e+01,-1.000000000000000000e+01,-1.000000000000000000e+00,-3.000000000000000000e+00,-3.000000000000000000e+00,3.574829101562500000e-01,1.470336914062500000e-01,-9.186401367187500000e-01,-8.184814453125000000e-02
-1.000000000000000000e+00,-1.000000000000000000e+00,-8.000000000000000000e+00,-2.500000000000000000e+01,2.700000000000000000e+01,3.000000000000000000e+00,-8.000000000000000000e+00,-4.000000000000000000e+00,3.574829101562500000e-01,1.470336914062500000e-01,-9.186401367187500000e-01,-8.184814453125000000e-02
1.300000000000000000e+01,4.000000000000000000e+00,5.000000000000000000e+00,1.600000000000000000e+01,0.000000000000000000e+00,0.000000000000000000e+00,0.000000000000000000e+00,2.000000000000000000e+00,3.574829101562500000e-01,1.470336914062500000e-01,-9.186401367187500000e-01,-8.184814453125000000e-02
-2.100000000000000000e+01,0.000000000000000000e+00,-4.000000000000000000e+00,-1.200000000000000000e+01,-5.000000000000000000e+00,-3.000000000000000000e+00,-1.000000000000000000e+00,-4.000000000000000000e+00,3.574829101562500000e-01,1.473388671875000000e-01,-9.186401367187500000e-01,-8.160400390625000000e-02
-6.000000000000000000e+00,-1.100000000000000000e+01,-4.400000000000000000e+01,-9.000000000000000000e+00,-1.000000000000000000e+00,-2.000000000000000000e+00,0.000000000000000000e+00,-1.000000000000000000e+00,3.574829101562500000e-01,1.473388671875000000e-01,-9.186401367187500000e-01,-8.160400390625000000e-02
0.000000000000000000e+00,-3.000000000000000000e+00,6.000000000000000000e+00,5.000000000000000000e+00,-1.200000000000000000e+01,-2.000000000000000000e+00,-2.000000000000000000e+00,-2.000000000000000000e+00,3.574829101562500000e-01,1.473388671875000000e-01,-9.186401367187500000e-01,-8.160400390625000000e-02
-6.000000000000000000e+00,-4.000000000000000000e+00,1.300000000000000000e+01,0.000000000000000000e+00,-7.000000000000000000e+00,-6.000000000000000000e+00,-4.000000000000000000e+00,-1.000000000000000000e+00,3.574829101562500000e-01,1.473388671875000000e-01,-9.186401367187500000e-01,-8.160400390625000000e-02
7.000000000000000000e+00,9.000000000000000000e+00,-2.000000000000000000e+00,-1.600000000000000000e+01,2.000000000000000000e+00,-1.000000000000000000e+00,-2.000000000000000000e+00,3.000000000000000000e+00,3.573608398437500000e-01,1.477050781250000000e-01,-9.185791015625000000e-01,-8.184814453125000000e-02
1.000000000000000000e+01,2.000000000000000000e+00,8.000000000000000000e+00,1.100000000000000000e+01,-1.100000000000000000e+01,-2.000000000000000000e+00,-4.000000000000000000e+00,-4.000000000000000000e+00,3.573608398437500000e-01,1.477050781250000000e-01,-9.185791015625000000e-01,-8.184814453125000000e-02
-1.000000000000000000e+00,0.000000000000000000e+00,2.800000000000000000e+01,2.000000000000000000e+01,9.000000000000000000e+00,4.000000000000000000e+00,1.100000000000000000e+01,1.000000000000000000e+00,3.573608398437500000e-01,1.477050781250000000e-01,-9.185791015625000000e-01,-8.184814453125000000e-02
0.000000000000000000e+00,-5.000000000000000000e+00,-9.000000000000000000e+00,-9.000000000000000000e+00,1.000000000000000000e+00,-2.000000000000000000e+00,-6.000000000000000000e+00,-5.000000000000000000e+00,3.573608398437500000e-01,1.477050781250000000e-01,-9.185791015625000000e-01,-8.184814453125000000e-02
-5.000000000000000000e+00,-6.000000000000000000e+00,-2.000000000000000000e+00,8.000000000000000000e+00,3.000000000000000000e+00,3.000000000000000000e+00,7.000000000000000000e+00,1.000000000000000000e+00,3.570556640625000000e-01,1.480102539062500000e-01,-9.186401367187500000e-01,-8.233642578125000000e-02
6.000000000000000000e+00,1.400000000000000000e+01,3.000000000000000000e+00,-2.000000000000000000e+00,-1.000000000000000000e+01,-2.000000000000000000e+00,1.000000000000000000e+00,2.000000000000000000e+00,3.570556640625000000e-01,1.480102539062500000e-01,-9.186401367187500000e-01,-8.233642578125000000e-02
6.000000000000000000e+00,7.000000000000000000e+00,6.000000000000000000e+00,2.000000000000000000e+00,-6.000000000000000000e+00,-2.000000000000000000e+00,-7.000000000000000000e+00,-1.000000000000000000e+00,3.570556640625000000e-01,1.480102539062500000e-01,-9.186401367187500000e-01,-8.233642578125000000e-02
-5.000000000000000000e+00,-6.000000000000000000e+00,1.000000000000000000e+01,2.000000000000000000e+00,-2.000000000000000000e+00,1.000000000000000000e+00,1.000000000000000000e+00,-1.000000000000000000e+00,3.570556640625000000e-01,1.480102539062500000e-01,-9.186401367187500000e-01,-8.233642578125000000e-02
9.000000000000000000e+00,-5.000000000000000000e+00,-1.300000000000000000e+01,-6.000000000000000000e+00,4.000000000000000000e+00,-4.000000000000000000e+00,-5.000000000000000000e+00,-4.000000000000000000e+00,3.568115234375000000e-01,1.485595703125000000e-01,-9.185791015625000000e-01,-8.282470703125000000e-02
1.000000000000000000e+00,9.000000000000000000e+00,1.000000000000000000e+00,1.800000000000000000e+01,1.100000000000000000e+01,2.000000000000000000e+00,1.000000000000000000e+00,-1.000000000000000000e+00,3.568115234375000000e-01,1.485595703125000000e-01,-9.185791015625000000e-01,-8.282470703125000000e-02
1.300000000000000000e+01,-8.000000000000000000e+00,-1.400000000000000000e+01,-1.500000000000000000e+01,-1.000000000000000000e+00,3.000000000000000000e+00,2.000000000000000000e+00,1.000000000000000000e+00,3.568115234375000000e-01,1.485595703125000000e-01,-9.185791015625000000e-01,-8.282470703125000000e-02
-2.300000000000000000e+01,-9.000000000000000000e+00,6.000000000000000000e+00,1.000000000000000000e+01,-4.000000000000000000e+00,-8.000000000000000000e+00,-5.000000000000000000e+00,-6.000000000000000000e+00,3.568115234375000000e-01,1.485595703125000000e-01,-9.185791015625000000e-01,-8.282470703125000000e-02
1.300000000000000000e+01,6.000000000000000000e+00,-1.200000000000000000e+01,4.000000000000000000e+00,8.000000000000000000e+00,6.000000000000000000e+00,-8.000000000000000000e+00,-3.000000000000000000e+00,3.565673828125000000e-01,1.492919921875000000e-01,-9.185180664062500000e-01,-8.325195312500000000e-02
1.000000000000000000e+00,1.000000000000000000e+01,2.200000000000000000e+01,-1.800000000000000000e+01,3.000000000000000000e+00,0.000000000000000000e+00,3.000000000000000000e+00,0.000000000000000000e+00,3.565673828125000000e-01,1.492919921875000000e-01,-9.185180664062500000e-01,-8.325195312500000000e-02
-7.000000000000000000e+00,-2.000000000000000000e+01,-2.900000000000000000e+01,2.000000000000000000e+00,-5.000000000000000000e+00,-4.000000000000000000e+00,1.000000000000000000e+00,-3.000000000000000000e+00,3.565673828125000000e-01,1.492919921875000000e-01,-9.185180664062500000e-01,-8.325195312500000000e-02
1.000000000000000000e+00,5.000000000000000000e+00,-3.000000000000000000e+00,-7.000000000000000000e+00,-1.000000000000000000e+00,1.000000000000000000e+00,-3.000000000000000000e+00,0.000000000000000000e+00,3.565673828125000000e-01,1.492919921875000000e-01,-9.185180664062500000e-01,-8.325195312500000000e-02
5.000000000000000000e+00,7.000000000000000000e+00,1.000000000000000000e+00,2.100000000000000000e+01,3.000000000000000000e+00,2.000000000000000000e+00,0.000000000000000000e+00,-1.000000000000000000e+00,3.563842773437500000e-01,1.500244140625000000e-01,-9.183959960937500000e-01,-8.367919921875000000e-02
2.000000000000000000e+00,-6.000000000000000000e+00,5.000000000000000000e+00,7.000000000000000000e+00,-7.000000000000000000e+00,-5.000000000000000000e+00,-2.000000000000000000e+00,-4.000000000000000000e+00,3.563842773437500000e-01,1.500244140625000000e-01,-9.183959960937500000e-01,-8.367919921875000000e-02
-2.000000000000000000e+00,-1.000000000000000000e+00,-7.000000000000000000e+00,-2.300000000000000000e+01,-4.000000000000000000e+00,1.000000000000000000e+00,-1.000000000000000000e+00,3.000000000000000000e+00,3.563842773437500000e-01,1.500244140625000000e-01,-9.183959960937500000e-01,-8.367919921875000000e-02
0.000000000000000000e+00,-6.000000000000000000e+00,2.700000000000000000e+01,1.500000000000000000e+01,8.000000000000000000e+00,-2.000000000000000000e+00,-6.000000000000000000e+00,-3.000000000000000000e+00,3.563842773437500000e-01,1.500244140625000000e-01,-9.183959960937500000e-01,-8.367919921875000000e-02
2.000000000000000000e+00,-1.300000000000000000e+01,-1.700000000000000000e+01,-4.000000000000000000e+00,-8.000000000000000000e+00,-6.000000000000000000e+00,4.000000000000000000e+00,0.000000000000000000e+00,3.560791015625000000e-01,1.509399414062500000e-01,-9.183349609375000000e-01,-8.422851562500000000e-02
3.000000000000000000e+00,1.600000000000000000e+01,4.300000000000000000e+01,1.100000000000000000e+01,7.000000000000000000e+00,4.000000000000000000e+00,2.000000000000000000e+00,1.000000000000000000e+00,3.560791015625000000e-01,1.509399414062500000e-01,-9.183349609375000000e-01,-8.422851562500000000e-02
-1.000000000000000000e+00,-3.000000000000000000e+00,-3.900000000000000000e+01,1.000000000000000000e+00,-8.000000000000000000e+00,-2.000000000000000000e+00,1.000000000000000000e+00,-3.000000000000000000e+00,3.560791015625000000e-01,1.509399414062500000e-01,-9.183349609375000000e-01,-8.422851562500000000e-02
-1.000000000000000000e+01,-6.000000000000000000e+00,1.800000000000000000e+01,-2.000000000000000000e+01,-1.300000000000000000e+01,-3.000000000000000000e+00,-1.000000000000000000e+01,-1.000000000000000000e+00,3.560791015625000000e-01,1.509399414062500000e-01,-9.183349609375000000e-01,-8.422851562500000000e-02
2.000000000000000000e+00,1.000000000000000000e+00,1.800000000000000000e+01,1.000000000000000000e+00,-2.000000000000000000e+00,1.000000000000000000e+00,3.000000000000000000e+00,-1.000000000000000000e+00,3.558959960937500000e-01,1.516723632812500000e-01,-9.182128906250000000e-01,-8.496093750000000000e-02
9.000000000000000000e+00,-3.000000000000000000e+00,7.000000000000000000e+00,9.000000000000000000e+00,1.800000000000000000e+01,3.000000000000000000e+00,-2.000000000000000000e+00,0.000000000000000000e+00,3.558959960937500000e-01,1.516723632812500000e-01,-9.182128906250000000e-01,-8.496093750000000000e-02
-1.000000000000000000e+00,7.000000000000000000e+00,-1.000000000000000000e+01,-7.000000000000000000e+00,-7.000000000000000000e+00,-3.000000000000000000e+00,-1.000000000000000000e+00,-1.000000000000000000e+00,3.558959960937500000e-01,1.516723632812500000e-01,-9.182128906250000000e-01,-8.496093750000000000e-02
-5.000000000000000000e+00,-1.500000000000000000e+01,-2.900000000000000000e+01,-4.000000000000000000e+00,-1.000000000000000000e+00,4.000000000000000000e+00,-1.000000000000000000e+00,-3.000000000000000000e+00,3.558959960937500000e-01,1.516723632812500000e-01,-9.182128906250000000e-01,-8.496093750000000000e-02
1.000000000000000000e+01,5.000000000000000000e+00,5.000000000000000000e+00,-4.000000000000000000e+00,-8.000000000000000000e+00,-5.000000000000000000e+00,-2.000000000000000000e+00,0.000000000000000000e+00,3.557128906250000000e-01,1.519775390625000000e-01,-9.181518554687500000e-01,-8.587646484375000000e-02
-4.000000000000000000e+00,9.000000000000000000e+00,-1.400000000000000000e+01,-2.900000000000000000e+01,-3.000000000000000000e+00,-2.000000000000000000e+00,1.000000000000000000e+00,-1.000000000000000000e+00,3.557128906250000000e-01,1.519775390625000000e-01,-9.181518554687500000e-01,-8.587646484375000000e-02
5.000000000000000000e+00,2.100000000000000000e+01,0.000000000000000000e+00,2.200000000000000000e+01,5.000000000000000000e+00,0.000000000000000000e+00,-2.000000000000000000e+00,-2.000000000000000000e+00,3.557128906250000000e-01,1.519775390625000000e-01,-9.181518554687500000e-01,-8.587646484375000000e-02
-1.500000000000000000e+01,-4.900000000000000000e+01,-3.000000000000000000e+00,6.000000000000000000e+00,-7.000000000000000000e+00,-2.000000000000000000e+00,1.000000000000000000e+00,-3.000000000000000000e+00,3.557128906250000000e-01,1.519775390625000000e-01,-9.181518554687500000e-01,-8.587646484375000000e-02
0.000000000000000000e+00,1.000000000000000000e+00,-5.000000000000000000e+00,-3.000000000000000000e+00,8.000000000000000000e+00,-1.000000000000000000e+00,-4.000000000000000000e+00,-3.000000000000000000e+00,3.556518554687500000e-01,1.520385742187500000e-01,-9.180908203125000000e-01,-8.648681640625000000e-02
-2.000000000000000000e+00,-1.400000000000000000e+01,-1.400000000000000000e+01,-6.000000000000000000e+00,2.000000000000000000e+00,0.000000000000000000e+00,-1.000000000000000000e+00,0.000000000000000000e+00,3.556518554687500000e-01,1.520385742187500000e-01,-9.180908203125000000e-01,-8.648681640625000000e-02
-6.000000000000000000e+00,1.300000000000000000e+01,1.800000000000000000e+01,1.300000000000000000e+01,3.000000000000000000e+00,-1.000000000000000000e+00,0.000000000000000000e+00,1.000000000000000000e+00,3.556518554687500000e-01,1.520385742187500000e-01,-9.180908203125000000e-01,-8.648681640625000000e-02
1.200000000000000000e+01,1.300000000000000000e+01,-8.000000000000000000e+00,-2.600000000000000000e+01,-7.000000000000000000e+00,-2.000000000000000000e+00,4.000000000000000000e+00,-1.000000000000000000e+00,3.556518554687500000e-01,1.520385742187500000e-01,-9.180908203125000000e-01,-8.648681640625000000e-02
0.000000000000000000e+00,4.000000000000000000e+00,2.000000000000000000e+01,4.400000000000000000e+01,-8.000000000000000000e+00,-4.000000000000000000e+00,0.000000000000000000e+00,-1.000000000000000000e+00,3.553466796875000000e-01,1.524658203125000000e-01,-9.181518554687500000e-01,-8.679199218750000000e-02
-1.400000000000000000e+01,-2.000000000000000000e+01,-1.600000000000000000e+01,-1.800000000000000000e+01,1.400000000000000000e+01,6.000000000000000000e+00,-3.000000000000000000e+00,-3.000000000000000000e+00,3.553466796875000000e-01,1.524658203125000000e-01,-9.181518554687500000e-01,-8.679199218750000000e-02
-1.200000000000000000e+01,-3.000000000000000000e+00,7.000000000000000000e+00,-1.300000000000000000e+01,-2.000000000000000000e+00,-1.000000000000000000e+00,-2.000000000000000000e+00,-1.000000000000000000e+00,3.553466796875000000e-01,1.524658203125000000e-01,-9.181518554687500000e-01,-8.679199218750000000e-02
1.900000000000000000e+01,1.500000000000000000e+01,-2.500000000000000000e+01,-1.000000000000000000e+00,3.000000000000000000e+00,3.000000000000000000e+00,8.000000000000000000e+00,1.000000000000000000e+00,3.553466796875000000e-01,1.524658203125000000e-01,-9.181518554687500000e-01,-8.679199218750000000e-02
-2.800000000000000000e+01,-6.000000000000000000e+00,-4.000000000000000000e+00,-4.000000000000000000e+00,-9.000000000000000000e+00,1.000000000000000000e+00,1.000000000000000000e+00,1.000000000000000000e+00,3.547973632812500000e-01,1.533813476562500000e-01,-9.181518554687500000e-01,-8.709716796875000000e-02
3.000000000000000000e+00,-1.000000000000000000e+00,2.300000000000000000e+01,2.000000000000000000e+00,-5.000000000000000000e+00,-8.000000000000000000e+00,-1.000000000000000000e+00,0.000000000000000000e+00,3.547973632812500000e-01,1.533813476562500000e-01,-9.181518554687500000e-01,-8.709716796875000000e-02
-2.000000000000000000e+00,-3.000000000000000000e+00,1.000000000000000000e+00,0.000000000000000000e+00,-3.000000000000000000e+00,-4.000000000000000000e+00,-4.000000000000000000e+00,0.000000000000000000e+00,3.547973632812500000e-01,1.533813476562500000e-01,-9.181518554687500000e-01,-8.709716796875000000e-02
1.200000000000000000e+01,6.000000000000000000e+00,-1.000000000000000000e+01,-2.400000000000000000e+01,3.000000000000000000e+00,1.000000000000000000e+00,-4.000000000000000000e+00,-1.000000000000000000e+00,3.547973632812500000e-01,1.533813476562500000e-01,-9.181518554687500000e-01,-8.709716796875000000e-02
-4.000000000000000000e+00,-3.000000000000000000e+00,-6.000000000000000000e+00,3.600000000000000000e+01,1.400000000000000000e+01,2.000000000000000000e+00,1.000000000000000000e+00,2.000000000000000000e+00,3.541259765625000000e-01,1.542358398437500000e-01,-9.182128906250000000e-01,-8.770751953125000000e-02
-1.700000000000000000e+01,-1.100000000000000000e+01,-3.000000000000000000e+00,1.000000000000000000e+00,-9.000000000000000000e+00,-5.000000000000000000e+00,-3.000000000000000000e+00,-3.000000000000000000e+00,3.541259765625000000e-01,1.542358398437500000e-01,-9.182128906250000000e-01,-8.770751953125000000e-02
0.000000000000000000e+00,-1.200000000000000000e+01,0.000000000000000000e+00,-1.200000000000000000e+01,-2.000000000000000000e+00,-2.000000000000000000e+00,-2.000000000000000000e+00,-5.000000000000000000e+00,3.541259765625000000e-01,1.542358398437500000e-01,-9.182128906250000000e-01,-8.770751953125000000e-02
-8.000000000000000000e+00,1.200000000000000000e+01,1.300000000000000000e+01,-4.000000000000000000e+00,-6.000000000000000000e+00,2.000000000000000000e+00,1.100000000000000000e+01,1.000000000000000000e+00,3.541259765625000000e-01,1.542358398437500000e-01,-9.182128906250000000e-01,-8.770751953125000000e-02
1.300000000000000000e+01,-8.000000000000000000e+00,1.000000000000000000e+00,-4.000000000000000000e+00,1.000000000000000000e+01,-3.000000000000000000e+00,-1.300000000000000000e+01,1.000000000000000000e+00,3.535766601562500000e-01,1.544189453125000000e-01,-9.183349609375000000e-01,-8.837890625000000000e-02
-2.000000000000000000e+00,-2.000000000000000000e+00,-2.600000000000000000e+01,-4.000000000000000000e+00,-8.000000000000000000e+00,-3.000000000000000000e+00,1.000000000000000000e+00,1.000000000000000000e+00,3.535766601562500000e-01,1.544189453125000000e-01,-9.183349609375000000e-01,-8.837890625000000000e-02
5.000000000000000000e+00,1.000000000000000000e+00,8.000000000000000000e+00,5.000000000000000000e+00,1.000000000000000000e+00,0.000000000000000000e+00,1.000000000000000000e+00,1.000000000000000000e+00,3.535766601562500000e-01,1.544189453125000000e-01,-9.183349609375000000e-01,-8.837890625000000000e-02
1.900000000000000000e+01,1.200000000000000000e+01,-5.000000000000000000e+00,1.000000000000000000e+01,0.000000000000000000e+00,1.000000000000000000e+00,0.000000000000000000e+00,1.000000000000000000e+00,3.535766601562500000e-01,1.544189453125000000e-01,-9.183349609375000000e-01,-8.837890625000000000e-02
-2.100000000000000000e+01,-1.400000000000000000e+01,1.100000000000000000e+01,-2.300000000000000000e+01,-1.000000000000000000e+01,-2.000000000000000000e+00,6.000000000000000000e+00,-6.000000000000000000e+00,3.530273437500000000e-01,1.545410156250000000e-01,-9.184570312500000000e-01,-8.880615234375000000e-02
-3.000000000000000000e+00,-1.000000000000000000e+00,-2.700000000000000000e+01,-1.000000000000000000e+00,-1.000000000000000000e+00,-1.000000000000000000e+00,-3.000000000000000000e+00,-2.000000000000000000e+00,3.530273437500000000e-01,1.545410156250000000e-01,-9.184570312500000000e-01,-8.880615234375000000e-02
5.000000000000000000e+00,-1.300000000000000000e+01,0.000000000000000000e+00,-2.100000000000000000e+01,2.000000000000000000e+00,1.000000000000000000e+00,-1.000000000000000000e+00,-1.000000000000000000e+00,3.530273437500000000e-01,1.545410156250000000e-01,-9.184570312500000000e-01,-8.880615234375000000e-02
-6.000000000000000000e+00,1.000000000000000000e+00,8.000000000000000000e+00,1.800000000000000000e+01,5.000000000000000000e+00,-1.000000000000000000e+00,-4.000000000000000000e+00,-2.000000000000000000e+00,3.530273437500000000e-01,1.545410156250000000e-01,-9.184570312500000000e-01,-8.880615234375000000e-02
1.300000000000000000e+01,2.400000000000000000e+01,1.000000000000000000e+00,-6.000000000000000000e+00,1.000000000000000000e+00,2.000000000000000000e+00,0.000000000000000000e+00,2.000000000000000000e+00,3.526000976562500000e-01,1.547851562500000000e-01,-9.185791015625000000e-01,-8.898925781250000000e-02
-7.000000000000000000e+00,-1.100000000000000000e+01,0.000000000000000000e+00,-3.000000000000000000e+00,-1.000000000000000000e+01,-5.000000000000000000e+00,-7.000000000000000000e+00,0.000000000000000000e+00,3.526000976562500000e-01,1.547851562500000000e-01,-9.185791015625000000e-01,-8.898925781250000000e-02
-6.000000000000000000e+00,-6.000000000000000000e+00,-7.000000000000000000e+00,-1.100000000000000000e+01,8.000000000000000000e+00,2.000000000000000000e+00,1.000000000000000000e+01,0.000000000000000000e+00,3.526000976562500000e-01,1.547851562500000000e-01,-9.185791015625000000e-01,-8.898925781250000000e-02
-9.000000000000000000e+00,-9.000000000000000000e+00,4.000000000000000000e+00,1.000000000000000000e+01,-3.000000000000000000e+00,-2.000000000000000000e+00,-2.000000000000000000e+00,0.000000000000000000e+00,3.526000976562500000e-01,1.547851562500000000e-01,-9.185791015625000000e-01,-8.898925781250000000e-02
3.000000000000000000e+00,1.000000000000000000e+01,1.400000000000000000e+01,-3.000000000000000000e+00,4.000000000000000000e+00,1.000000000000000000e+00,-3.000000000000000000e+00,0.000000000000000000e+00,3.522338867187500000e-01,1.552124023437500000e-01,-9.187011718750000000e-01,-8.898925781250000000e-02
8.000000000000000000e+00,4.000000000000000000e+00,-3.900000000000000000e+01,-2.000000000000000000e+00,-2.000000000000000000e+00,0.000000000000000000e+00,3.000000000000000000e+00,1.000000000000000000e+00,3.522338867187500000e-01,1.552124023437500000e-01,-9.187011718750000000e-01,-8.898925781250000000e-02
1.600000000000000000e+01,5.000000000000000000e+00,9.000000000000000000e+00,8.000000000000000000e+00,-4.000000000000000000e+00,1.000000000000000000e+00,-4.000000000000000000e+00,0.000000000000000000e+00,3.522338867187500000e-01,1.552124023437500000e-01,-9.187011718750000000e-01,-8.898925781250000000e-02
-3.700000000000000000e+01,-6.000000000000000000e+00,1.000000000000000000e+01,-5.000000000000000000e+00,-6.000000000000000000e+00,-3.000000000000000000e+00,3.000000000000000000e+00,-3.000000000000000000e+00,3.522338867187500000e-01,1.552124023437500000e-01,-9.187011718750000000e-01,-8.898925781250000000e-02
1.000000000000000000e+00,-8.000000000000000000e+00,-1.900000000000000000e+01,-1.600000000000000000e+01,-1.000000000000000000e+00,-1.000000000000000000e+00,1.000000000000000000e+00,-2.000000000000000000e+00,3.519287109375000000e-01,1.555175781250000000e-01,-9.187011718750000000e-01,-8.905029296875000000e-02
-1.100000000000000000e+01,1.000000000000000000e+00,8.000000000000000000e+00,3.000000000000000000e+00,0.000000000000000000e+00,0.000000000000000000e+00,-1.000000000000000000e+00,-1.000000000000000000e+00,3.519287109375000000e-01,1.555175781250000000e-01,-9.187011718750000000e-01,-8.905029296875000000e-02
-2.000000000000000000e+00,-5.000000000000000000e+00,9.000000000000000000e+00,7.000000000000000000e+00,-4.000000000000000000e+00,3.000000000000000000e+00,-2.000000000000000000e+00,-3.000000000000000000e+00,3.519287109375000000e-01,1.555175781250000000e-01,-9.187011718750000000e-01,-8.905029296875000000e-02
1.000000000000000000e+00,-1.400000000000000000e+01,-1.400000000000000000e+01,3.000000000000000000e+00,4.000000000000000000e+00,-4.000000000000000000e+00,-5.000000000000000000e+00,-3.000000000000000000e+00,3.519287109375000000e-01,1.555175781250000000e-01,-9.187011718750000000e-01,-8.905029296875000000e-02
6.000000000000000000e+00,1.200000000000000000e+01,3.300000000000000000e+01,-4.000000000000000000e+00,-1.000000000000000000e+00,1.000000000000000000e+00,0.000000000000000000e+00,1.000000000000000000e+00,3.516235351562500000e-01,1.556396484375000000e-01,-9.188232421875000000e-01,-8.929443359375000000e-02
-1.000000000000000000e+01,-4.000000000000000000e+00,-4.400000000000000000e+01,-1.100000000000000000e+01,-8.000000000000000000e+00,-4.000000000000000000e+00,-1.000000000000000000e+00,-1.000000000000000000e+00,3.516235351562500000e-01,1.556396484375000000e-01,-9.188232421875000000e-01,-8.929443359375000000e-02
-5.000000000000000000e+00,1.300000000000000000e+01,4.000000000000000000e+01,-1.500000000000000000e+01,-5.000000000000000000e+00,-5.000000000000000000e+00,-6.000000000000000000e+00,-4.000000000000000000e+00,3.516235351562500000e-01,1.556396484375000000e-01,-9.188232421875000000e-01,-8.929443359375000000e-02
-3.000000000000000000e+00,-1.500000000000000000e+01,3.000000000000000000e+00,2.100000000000000000e+01,8.000000000000000000e+00,-2.000000000000000000e+00,1.000000000000000000e+00,-2.000000000000000000e+00,3.516235351562500000e-01,1.556396484375000000e-01,-9.188232421875000000e-01,-8.929443359375000000e-02
1.000000000000000000e+00,8.000000000000000000e+00,-2.300000000000000000e+01,-5.000000000000000000e+00,0.000000000000000000e+00,-5.000000000000000000e+00,-1.000000000000000000e+00,-1.000000000000000000e+00,3.516235351562500000e-01,1.556396484375000000e-01,-9.188232421875000000e-01,-8.929443359375000000e-02
1.100000000000000000e+01,-1.200000000000000000e+01,1.200000000000000000e+01,-4.000000000000000000e+00,-2.000000000000000000e+00,2.000000000000000000e+00,-3.000000000000000000e+00,-1.000000000000000000e+00,3.516235351562500000e-01,1.556396484375000000e-01,-9.188232421875000000e-01,-8.929443359375000000e-02
-6.000000000000000000e+00,5.000000000000000000e+00,-6.000000000000000000e+00,1.700000000000000000e+01,0.000000000000000000e+00,4.000000000000000000e+00,5.000000000000000000e+00,2.000000000000000000e+00,3.516235351562500000e-01,1.556396484375000000e-01,-9.188232421875000000e-01,-8.929443359375000000e-02
1.100000000000000000e+01,1.300000000000000000e+01,-2.000000000000000000e+00,-1.000000000000000000e+01,2.000000000000000000e+00,-4.000000000000000000e+00,-2.000000000000000000e+00,1.000000000000000000e+00,3.516235351562500000e-01,1.556396484375000000e-01,-9.188232421875000000e-01,-8.929443359375000000e-02
2.000000000000000000e+00,2.000000000000000000e+00,2.000000000000000000e+00,-7.000000000000000000e+00,-4.000000000000000000e+00,-1.000000000000000000e+00,-4.000000000000000000e+00,0.000000000000000000e+00,3.516235351562500000e-01,1.556396484375000000e-01,-9.188232421875000000e-01,-8.929443359375000000e-02
-1.200000000000000000e+01,4.000000000000000000e+00,1.100000000000000000e+01,9.000000000000000000e+00,3.000000000000000000e+00,3.000000000000000000e+00,1.000000000000000000e+00,-1.000000000000000000e+00,3.516235351562500000e-01,1.556396484375000000e-01,-9.188232421875000000e-01,-8.929443359375000000e-02
-1.100000000000000000e+01,-2.800000000000000000e+01,-9.000000000000000000e+00,-2.000000000000000000e+00,-1.100000000000000000e+01,-5.000000000000000000e+00,-6.000000000000000000e+00,-4.000000000000000000e+00,3.516235351562500000e-01,1.556396484375000000e-01,-9.188232421875000000e-01,-8.929443359375000000e-02
5.000000000000000000e+00,4.000000000000000000e+00,-1.000000000000000000e+00,-1.200000000000000000e+01,-2.000000000000000000e+00,-2.000000000000000000e+00,-6.000000000000000000e+00,-3.000000000000000000e+00,3.516235351562500000e-01,1.556396484375000000e-01,-9.188232421875000000e-01,-8.929443359375000000e-02
