0.000000000000000000e+00,-6.000000000000000000e+00,-2.000000000000000000e+00,-1.900000000000000000e+01,-9.000000000000000000e+00,-3.000000000000000000e+00,0.000000000000000000e+00,1.000000000000000000e+00,-3.580322265625000000e-01,1.970825195312500000e-01,8.398437500000000000e-01,3.571777343750000000e-01
-3.000000000000000000e+00,-3.000000000000000000e+00,-1.100000000000000000e+01,-6.000000000000000000e+00,-6.000000000000000000e+00,-4.000000000000000000e+00,-1.000000000000000000e+00,-1.000000000000000000e+00,-3.580322265625000000e-01,1.970825195312500000e-01,8.398437500000000000e-01,3.571777343750000000e-01
0.000000000000000000e+00,5.000000000000000000e+00,1.300000000000000000e+01,8.000000000000000000e+00,1.000000000000000000e+01,5.000000000000000000e+00,-1.000000000000000000e+00,0.000000000000000000e+00,-3.580322265625000000e-01,1.970825195312500000e-01,8.398437500000000000e-01,3.571777343750000000e-01
1.000000000000000000e+00,2.000000000000000000e+00,-3.000000000000000000e+00,6.000000000000000000e+00,-9.000000000000000000e+00,-3.000000000000000000e+00,3.000000000000000000e+00,2.000000000000000000e+00,-3.580322265625000000e-01,1.970825195312500000e-01,8.398437500000000000e-01,3.571777343750000000e-01
-2.000000000000000000e+00,0.000000000000000000e+00,-5.000000000000000000e+00,1.900000000000000000e+01,2.300000000000000000e+01,6.000000000000000000e+00,4.000000000000000000e+00,-1.000000000000000000e+00,-3.603515625000000000e-01,1.931762695312500000e-01,8.386840820312500000e-01,3.596801757812500000e-01
-1.000000000000000000e+00,-8.000000000000000000e+00,-6.000000000000000000e+00,-1.300000000000000000e+01,-1.000000000000000000e+01,-1.000000000000000000e+00,-1.000000000000000000e+00,0.000000000000000000e+00,-3.603515625000000000e-01,1.931762695312500000e-01,8.386840820312500000e-01,3.596801757812500000e-01
2.000000000000000000e+00,9.000000000000000000e+00,4.000000000000000000e+00,-5.000000000000000000e+00,-5.000000000000000000e+00,0.000000000000000000e+00,-4.000000000000000000e+00,-2.000000000000000000e+00,-3.603515625000000000e-01,1.931762695312500000e-01,8.386840820312500000e-01,3.596801757812500000e-01
-5.000000000000000000e+00,-7.000000000000000000e+00,-9.000000000000000000e+00,-3.000000000000000000e+00,2.000000000000000000e+00,1.000000000000000000e+00,-3.000000000000000000e+00,-1.000000000000000000e+00,-3.603515625000000000e-01,1.931762695312500000e-01,8.386840820312500000e-01,3.596801757812500000e-01
5.000000000000000000e+00,1.000000000000000000e+00,-1.000000000000000000e+00,-3.000000000000000000e+00,-8.000000000000000000e+00,-2.000000000000000000e+00,2.000000000000000000e+00,3.000000000000000000e+00,-3.633422851562500000e-01,1.888427734375000000e-01,8.369750976562500000e-01,3.629760742187500000e-01
0.000000000000000000e+00,-2.000000000000000000e+00,3.000000000000000000e+00,4.000000000000000000e+00,4.000000000000000000e+00,0.000000000000000000e+00,-1.000000000000000000e+00,-2.000000000000000000e+00,-3.633422851562500000e-01,1.888427734375000000e-01,8.369750976562500000e-01,3.629760742187500000e-01
-3.000000000000000000e+00,-1.000000000000000000e+00,1.000000000000000000e+00,6.000000000000000000e+00,9.000000000000000000e+00,4.000000000000000000e+00,-2.000000000000000000e+00,-2.000000000000000000e+00,-3.633422851562500000e-01,1.888427734375000000e-01,8.369750976562500000e-01,3.629760742187500000e-01
-6.000000000000000000e+00,-4.000000000000000000e+00,0.000000000000000000e+00,-1.000000000000000000e+00,-9.000000000000000000e+00,-5.000000000000000000e+00,-3.000000000000000000e+00,-5.000000000000000000e+00,-3.633422851562500000e-01,1.888427734375000000e-01,8.369750976562500000e-01,3.629760742187500000e-01
0.000000000000000000e+00,2.000000000000000000e+00,1.000000000000000000e+01,-2.500000000000000000e+01,-1.000000000000000000e+01,-4.000000000000000000e+00,-2.000000000000000000e+00,-1.000000000000000000e+00,-3.659667968750000000e-01,1.845092773437500000e-01,8.351440429687500000e-01,3.667602539062500000e-01
3.000000000000000000e+00,-1.000000000000000000e+00,-1.200000000000000000e+01,1.300000000000000000e+01,4.000000000000000000e+00,1.000000000000000000e+00,8.000000000000000000e+00,1.000000000000000000e+00,-3.659667968750000000e-01,1.845092773437500000e-01,8.351440429687500000e-01,3.667602539062500000e-01
-4.000000000000000000e+00,-2.000000000000000000e+00,-6.000000000000000000e+00,2.000000000000000000e+00,0.000000000000000000e+00,-4.000000000000000000e+00,-2.000000000000000000e+01,-4.000000000000000000e+00,-3.659667968750000000e-01,1.845092773437500000e-01,8.351440429687500000e-01,3.667602539062500000e-01
-2.000000000000000000e+00,-5.000000000000000000e+00,-7.000000000000000000e+00,3.000000000000000000e+00,-1.000000000000000000e+00,3.000000000000000000e+00,2.000000000000000000e+01,2.000000000000000000e+00,-3.659667968750000000e-01,1.845092773437500000e-01,8.351440429687500000e-01,3.667602539062500000e-01
-1.000000000000000000e+00,2.000000000000000000e+00,1.600000000000000000e+01,3.000000000000000000e+00,-3.000000000000000000e+00,-2.000000000000000000e+00,-2.000000000000000000e+00,-2.000000000000000000e+00,-3.682861328125000000e-01,1.813354492187500000e-01,8.332519531250000000e-01,3.703613281250000000e-01
0.000000000000000000e+00,2.000000000000000000e+00,3.000000000000000000e+00,-3.000000000000000000e+00,-2.000000000000000000e+00,-1.000000000000000000e+00,-7.000000000000000000e+00,-2.000000000000000000e+00,-3.682861328125000000e-01,1.813354492187500000e-01,8.332519531250000000e-01,3.703613281250000000e-01
1.000000000000000000e+00,2.000000000000000000e+00,-1.000000000000000000e+00,1.000000000000000000e+00,2.000000000000000000e+00,0.000000000000000000e+00,-1.000000000000000000e+00,0.000000000000000000e+00,-3.682861328125000000e-01,1.813354492187500000e-01,8.332519531250000000e-01,3.703613281250000000e-01
-2.000000000000000000e+00,-6.000000000000000000e+00,-8.000000000000000000e+00,-1.300000000000000000e+01,1.000000000000000000e+00,-1.000000000000000000e+00,-6.000000000000000000e+00,0.000000000000000000e+00,-3.682861328125000000e-01,1.813354492187500000e-01,8.332519531250000000e-01,3.703613281250000000e-01
-1.000000000000000000e+00,-1.000000000000000000e+00,6.000000000000000000e+00,2.000000000000000000e+01,2.000000000000000000e+00,-2.000000000000000000e+00,0.000000000000000000e+00,2.000000000000000000e+00,-3.700561523437500000e-01,1.784667968750000000e-01,8.316040039062500000e-01,3.735961914062500000e-01
0.000000000000000000e+00,3.000000000000000000e+00,2.000000000000000000e+00,-1.400000000000000000e+01,-3.000000000000000000e+00,0.000000000000000000e+00,2.000000000000000000e+00,-1.000000000000000000e+00,-3.700561523437500000e-01,1.784667968750000000e-01,8.316040039062500000e-01,3.735961914062500000e-01
-2.000000000000000000e+00,-9.000000000000000000e+00,-2.000000000000000000e+01,5.000000000000000000e+00,-3.000000000000000000e+00,-2.000000000000000000e+00,0.000000000000000000e+00,-3.000000000000000000e+00,-3.700561523437500000e-01,1.784667968750000000e-01,8.316040039062500000e-01,3.735961914062500000e-01
0.000000000000000000e+00,3.000000000000000000e+00,1.600000000000000000e+01,1.900000000000000000e+01,0.000000000000000000e+00,-4.000000000000000000e+00,-4.000000000000000000e+00,-3.000000000000000000e+00,-3.700561523437500000e-01,1.784667968750000000e-01,8.316040039062500000e-01,3.735961914062500000e-01
1.000000000000000000e+00,3.000000000000000000e+00,-7.000000000000000000e+00,-3.000000000000000000e+00,1.000000000000000000e+00,2.000000000000000000e+00,1.000000000000000000e+00,-2.000000000000000000e+00,-3.720092773437500000e-01,1.746826171875000000e-01,8.304443359375000000e-01,3.760375976562500000e-01
2.000000000000000000e+00,-2.000000000000000000e+00,-1.000000000000000000e+00,-4.000000000000000000e+00,-1.000000000000000000e+00,-2.000000000000000000e+00,-2.000000000000000000e+00,3.000000000000000000e+00,-3.720092773437500000e-01,1.746826171875000000e-01,8.304443359375000000e-01,3.760375976562500000e-01
-1.000000000000000000e+00,-1.000000000000000000e+00,9.000000000000000000e+00,-1.100000000000000000e+01,-1.000000000000000000e+01,-4.000000000000000000e+00,0.000000000000000000e+00,-1.000000000000000000e+00,-3.720092773437500000e-01,1.746826171875000000e-01,8.304443359375000000e-01,3.760375976562500000e-01
0.000000000000000000e+00,-2.000000000000000000e+00,-1.000000000000000000e+00,8.000000000000000000e+00,1.100000000000000000e+01,2.000000000000000000e+00,-4.000000000000000000e+00,-3.000000000000000000e+00,-3.720092773437500000e-01,1.746826171875000000e-01,8.304443359375000000e-01,3.760375976562500000e-01
-4.000000000000000000e+00,-9.000000000000000000e+00,-8.000000000000000000e+00,1.700000000000000000e+01,9.000000000000000000e+00,3.000000000000000000e+00,-1.000000000000000000e+00,-2.000000000000000000e+00,-3.745727539062500000e-01,1.699218750000000000e-01,8.296508789062500000e-01,3.773803710937500000e-01
1.000000000000000000e+00,5.000000000000000000e+00,2.000000000000000000e+00,-4.000000000000000000e+00,-6.000000000000000000e+00,0.000000000000000000e+00,0.000000000000000000e+00,2.000000000000000000e+00,-3.745727539062500000e-01,1.699218750000000000e-01,8.296508789062500000e-01,3.773803710937500000e-01
0.000000000000000000e+00,3.000000000000000000e+00,1.100000000000000000e+01,-1.000000000000000000e+00,-1.000000000000000000e+00,-2.000000000000000000e+00,-5.000000000000000000e+00,0.000000000000000000e+00,-3.745727539062500000e-01,1.699218750000000000e-01,8.296508789062500000e-01,3.773803710937500000e-01
3.000000000000000000e+00,1.000000000000000000e+01,9.000000000000000000e+00,0.000000000000000000e+00,-7.000000000000000000e+00,-1.000000000000000000e+00,7.000000000000000000e+00,0.000000000000000000e+00,-3.745727539062500000e-01,1.699218750000000000e-01,8.296508789062500000e-01,3.773803710937500000e-01
0.000000000000000000e+00,1.000000000000000000e+00,-7.000000000000000000e+00,-5.000000000000000000e+00,1.000000000000000000e+00,0.000000000000000000e+00,8.000000000000000000e+00,2.000000000000000000e+00,-3.775634765625000000e-01,1.655273437500000000e-01,8.287353515625000000e-01,3.784179687500000000e-01
-6.000000000000000000e+00,-1.400000000000000000e+01,-9.000000000000000000e+00,-5.000000000000000000e+00,1.000000000000000000e+00,-2.000000000000000000e+00,-4.000000000000000000e+00,-4.000000000000000000e+00,-3.775634765625000000e-01,1.655273437500000000e-01,8.287353515625000000e-01,3.784179687500000000e-01
-7.000000000000000000e+00,-5.000000000000000000e+00,-1.000000000000000000e+00,-6.000000000000000000e+00,-1.000000000000000000e+00,0.000000000000000000e+00,0.000000000000000000e+00,-5.000000000000000000e+00,-3.775634765625000000e-01,1.655273437500000000e-01,8.287353515625000000e-01,3.784179687500000000e-01
2.000000000000000000e+00,-2.000000000000000000e+00,-1.000000000000000000e+00,1.000000000000000000e+00,-5.000000000000000000e+00,-4.000000000000000000e+00,-1.000000000000000000e+01,-3.000000000000000000e+00,-3.775634765625000000e-01,1.655273437500000000e-01,8.287353515625000000e-01,3.784179687500000000e-01
9.000000000000000000e+00,5.000000000000000000e+00,8.000000000000000000e+00,9.000000000000000000e+00,6.000000000000000000e+00,6.000000000000000000e+00,4.000000000000000000e+00,8.000000000000000000e+00,-3.807983398437500000e-01,1.624755859375000000e-01,8.272094726562500000e-01,3.798828125000000000e-01
-5.000000000000000000e+00,-3.000000000000000000e+00,-1.100000000000000000e+01,-1.100000000000000000e+01,-6.000000000000000000e+00,-3.000000000000000000e+00,1.000000000000000000e+00,-1.000000000000000000e+00,-3.807983398437500000e-01,1.624755859375000000e-01,8.272094726562500000e-01,3.798828125000000000e-01
-1.000000000000000000e+00,-3.000000000000000000e+00,-1.000000000000000000e+00,-5.000000000000000000e+00,-5.000000000000000000e+00,-3.000000000000000000e+00,2.000000000000000000e+00,-1.000000000000000000e+00,-3.807983398437500000e-01,1.624755859375000000e-01,8.272094726562500000e-01,3.798828125000000000e-01
-1.000000000000000000e+00,-1.000000000000000000e+00,2.000000000000000000e+00,-9.000000000000000000e+00,1.200000000000000000e+01,3.000000000000000000e+00,-2.000000000000000000e+00,0.000000000000000000e+00,-3.807983398437500000e-01,1.624755859375000000e-01,8.272094726562500000e-01,3.798828125000000000e-01
-7.000000000000000000e+00,-6.000000000000000000e+00,-7.000000000000000000e+00,-8.000000000000000000e+00,-1.700000000000000000e+01,-9.000000000000000000e+00,-7.000000000000000000e+00,-7.000000000000000000e+00,-3.837890625000000000e-01,1.608886718750000000e-01,8.249511718750000000e-01,3.823852539062500000e-01
-1.000000000000000000e+00,1.000000000000000000e+00,1.000000000000000000e+01,1.000000000000000000e+01,-3.000000000000000000e+00,-3.000000000000000000e+00,-1.000000000000000000e+00,0.000000000000000000e+00,-3.837890625000000000e-01,1.608886718750000000e-01,8.249511718750000000e-01,3.823852539062500000e-01
0.000000000000000000e+00,0.000000000000000000e+00,-1.000000000000000000e+00,-1.200000000000000000e+01,3.000000000000000000e+00,3.000000000000000000e+00,-1.000000000000000000e+00,0.000000000000000000e+00,-3.837890625000000000e-01,1.608886718750000000e-01,8.249511718750000000e-01,3.823852539062500000e-01
-1.000000000000000000e+00,0.000000000000000000e+00,-2.000000000000000000e+00,-4.000000000000000000e+00,-6.000000000000000000e+00,-2.000000000000000000e+00,-1.000000000000000000e+00,0.000000000000000000e+00,-3.837890625000000000e-01,1.608886718750000000e-01,8.249511718750000000e-01,3.823852539062500000e-01
-1.000000000000000000e+00,-1.000000000000000000e+00,-3.000000000000000000e+00,0.000000000000000000e+00,-7.000000000000000000e+00,-4.000000000000000000e+00,-2.000000000000000000e+00,-2.000000000000000000e+00,-3.858032226562500000e-01,1.617431640625000000e-01,8.222045898437500000e-01,3.858642578125000000e-01
1.000000000000000000e+00,6.000000000000000000e+00,8.000000000000000000e+00,0.000000000000000000e+00,3.000000000000000000e+00,3.000000000000000000e+00,0.000000000000000000e+00,0.000000000000000000e+00,-3.858032226562500000e-01,1.617431640625000000e-01,8.222045898437500000e-01,3.858642578125000000e-01
-1.000000000000000000e+00,-4.000000000000000000e+00,-9.000000000000000000e+00,-5.000000000000000000e+00,-3.000000000000000000e+00,-5.000000000000000000e+00,-2.000000000000000000e+00,-2.000000000000000000e+00,-3.858032226562500000e-01,1.617431640625000000e-01,8.222045898437500000e-01,3.858642578125000000e-01
1.000000000000000000e+00,0.000000000000000000e+00,-5.000000000000000000e+00,4.000000000000000000e+00,1.000000000000000000e+00,-2.000000000000000000e+00,-2.000000000000000000e+00,0.000000000000000000e+00,-3.858032226562500000e-01,1.617431640625000000e-01,8.222045898437500000e-01,3.858642578125000000e-01
-3.000000000000000000e+00,0.000000000000000000e+00,6.000000000000000000e+00,-1.500000000000000000e+01,-9.000000000000000000e+00,-4.000000000000000000e+00,-1.000000000000000000e+00,-3.000000000000000000e+00,-3.870239257812500000e-01,1.635131835937500000e-01,8.198852539062500000e-01,3.888549804687500000e-01
-1.000000000000000000e+00,1.000000000000000000e+00,2.000000000000000000e+00,1.100000000000000000e+01,2.000000000000000000e+00,1.000000000000000000e+00,-2.000000000000000000e+00,-4.000000000000000000e+00,-3.870239257812500000e-01,1.635131835937500000e-01,8.198852539062500000e-01,3.888549804687500000e-01
3.000000000000000000e+00,1.000000000000000000e+00,-1.000000000000000000e+01,4.000000000000000000e+00,1.000000000000000000e+00,3.000000000000000000e+00,4.000000000000000000e+00,2.000000000000000000e+00,-3.870239257812500000e-01,1.635131835937500000e-01,8.198852539062500000e-01,3.888549804687500000e-01
-6.000000000000000000e+00,-6.000000000000000000e+00,-4.000000000000000000e+00,-4.000000000000000000e+00,-5.000000000000000000e+00,-3.000000000000000000e+00,-5.000000000000000000e+00,-1.000000000000000000e+00,-3.870239257812500000e-01,1.635131835937500000e-01,8.198852539062500000e-01,3.888549804687500000e-01
-1.000000000000000000e+00,1.000000000000000000e+00,3.000000000000000000e+00,-5.000000000000000000e+00,-5.000000000000000000e+00,-1.000000000000000000e+00,-1.000000000000000000e+00,0.000000000000000000e+00,-3.883666992187500000e-01,1.633911132812500000e-01,8.185424804687500000e-01,3.904418945312500000e-01
-3.000000000000000000e+00,-5.000000000000000000e+00,-3.000000000000000000e+00,0.000000000000000000e+00,2.000000000000000000e+00,-4.000000000000000000e+00,-1.000000000000000000e+01,-4.000000000000000000e+00,-3.883666992187500000e-01,1.633911132812500000e-01,8.185424804687500000e-01,3.904418945312500000e-01
-2.000000000000000000e+00,1.000000000000000000e+00,5.000000000000000000e+00,-6.000000000000000000e+00,-3.000000000000000000e+00,1.000000000000000000e+00,2.000000000000000000e+00,1.000000000000000000e+00,-3.883666992187500000e-01,1.633911132812500000e-01,8.185424804687500000e-01,3.904418945312500000e-01
1.000000000000000000e+00,-1.000000000000000000e+00,-6.000000000000000000e+00,2.000000000000000000e+00,0.000000000000000000e+00,2.000000000000000000e+00,1.000000000000000000e+01,1.000000000000000000e+00,-3.883666992187500000e-01,1.633911132812500000e-01,8.185424804687500000e-01,3.904418945312500000e-01
-4.000000000000000000e+00,-1.000000000000000000e+00,3.000000000000000000e+00,-9.000000000000000000e+00,-1.100000000000000000e+01,-5.000000000000000000e+00,-6.000000000000000000e+00,-3.000000000000000000e+00,-3.905029296875000000e-01,1.602783203125000000e-01,8.181152343750000000e-01,3.905029296875000000e-01
-1.000000000000000000e+00,-4.000000000000000000e+00,-4.000000000000000000e+00,8.000000000000000000e+00,9.000000000000000000e+00,2.000000000000000000e+00,5.000000000000000000e+00,1.000000000000000000e+00,-3.905029296875000000e-01,1.602783203125000000e-01,8.181152343750000000e-01,3.905029296875000000e-01
-3.000000000000000000e+00,-6.000000000000000000e+00,-4.000000000000000000e+00,-5.000000000000000000e+00,-5.000000000000000000e+00,-5.000000000000000000e+00,-3.000000000000000000e+00,-2.000000000000000000e+00,-3.905029296875000000e-01,1.602783203125000000e-01,8.181152343750000000e-01,3.905029296875000000e-01
4.000000000000000000e+00,5.000000000000000000e+00,1.600000000000000000e+01,7.000000000000000000e+00,-1.000000000000000000e+00,-1.000000000000000000e+00,-6.000000000000000000e+00,-2.000000000000000000e+00,-3.905029296875000000e-01,1.602783203125000000e-01,8.181152343750000000e-01,3.905029296875000000e-01
-2.000000000000000000e+00,-8.000000000000000000e+00,-2.200000000000000000e+01,-2.400000000000000000e+01,-6.000000000000000000e+00,-1.000000000000000000e+00,-2.000000000000000000e+00,-3.000000000000000000e+00,-3.935546875000000000e-01,1.552734375000000000e-01,8.179321289062500000e-01,3.897705078125000000e-01
-5.000000000000000000e+00,0.000000000000000000e+00,9.000000000000000000e+00,2.400000000000000000e+01,7.000000000000000000e+00,-1.000000000000000000e+00,0.000000000000000000e+00,-3.000000000000000000e+00,-3.935546875000000000e-01,1.552734375000000000e-01,8.179321289062500000e-01,3.897705078125000000e-01
-1.000000000000000000e+00,-1.000000000000000000e+00,-1.100000000000000000e+01,-3.000000000000000000e+00,-7.000000000000000000e+00,-4.000000000000000000e+00,-3.000000000000000000e+00,-2.000000000000000000e+00,-3.935546875000000000e-01,1.552734375000000000e-01,8.179321289062500000e-01,3.897705078125000000e-01
-5.000000000000000000e+00,-7.000000000000000000e+00,7.000000000000000000e+00,4.000000000000000000e+00,5.000000000000000000e+00,2.000000000000000000e+00,-2.000000000000000000e+00,0.000000000000000000e+00,-3.935546875000000000e-01,1.552734375000000000e-01,8.179321289062500000e-01,3.897705078125000000e-01
3.000000000000000000e+00,3.000000000000000000e+00,1.400000000000000000e+01,5.000000000000000000e+00,4.000000000000000000e+00,-1.000000000000000000e+00,1.000000000000000000e+00,1.000000000000000000e+00,-3.964233398437500000e-01,1.511230468750000000e-01,8.176269531250000000e-01,3.892211914062500000e-01
0.000000000000000000e+00,1.000000000000000000e+00,-1.800000000000000000e+01,-1.800000000000000000e+01,-5.000000000000000000e+00,-3.000000000000000000e+00,-1.000000000000000000e+00,1.000000000000000000e+00,-3.964233398437500000e-01,1.511230468750000000e-01,8.176269531250000000e-01,3.892211914062500000e-01
-5.000000000000000000e+00,-6.000000000000000000e+00,-2.000000000000000000e+00,1.000000000000000000e+00,-2.000000000000000000e+00,-1.000000000000000000e+00,-4.000000000000000000e+00,-4.000000000000000000e+00,-3.964233398437500000e-01,1.511230468750000000e-01,8.176269531250000000e-01,3.892211914062500000e-01
1.000000000000000000e+00,8.000000000000000000e+00,9.000000000000000000e+00,2.000000000000000000e+00,-1.000000000000000000e+00,-1.000000000000000000e+00,-1.000000000000000000e+00,0.000000000000000000e+00,-3.964233398437500000e-01,1.511230468750000000e-01,8.176269531250000000e-01,3.892211914062500000e-01
-3.000000000000000000e+00,-7.000000000000000000e+00,-1.100000000000000000e+01,4.000000000000000000e+00,3.000000000000000000e+00,-2.000000000000000000e+00,-1.000000000000000000e+00,-2.000000000000000000e+00,-3.984985351562500000e-01,1.487426757812500000e-01,8.168334960937500000e-01,3.895874023437500000e-01
1.000000000000000000e+00,3.000000000000000000e+00,8.000000000000000000e+00,-1.800000000000000000e+01,-1.100000000000000000e+01,-4.000000000000000000e+00,0.000000000000000000e+00,0.000000000000000000e+00,-3.984985351562500000e-01,1.487426757812500000e-01,8.168334960937500000e-01,3.895874023437500000e-01
-2.000000000000000000e+00,-7.000000000000000000e+00,-2.000000000000000000e+00,2.700000000000000000e+01,1.600000000000000000e+01,4.000000000000000000e+00,2.000000000000000000e+00,1.000000000000000000e+00,-3.984985351562500000e-01,1.487426757812500000e-01,8.168334960937500000e-01,3.895874023437500000e-01
0.000000000000000000e+00,-2.000000000000000000e+00,-7.000000000000000000e+00,-1.100000000000000000e+01,-9.000000000000000000e+00,-1.000000000000000000e+00,-2.000000000000000000e+00,0.000000000000000000e+00,-3.984985351562500000e-01,1.487426757812500000e-01,8.168334960937500000e-01,3.895874023437500000e-01
-2.000000000000000000e+00,-6.000000000000000000e+00,-8.000000000000000000e+00,-8.000000000000000000e+00,0.000000000000000000e+00,-1.000000000000000000e+00,-1.000000000000000000e+00,-3.000000000000000000e+00,-3.997802734375000000e-01,1.484375000000000000e-01,8.155517578125000000e-01,3.910522460937500000e-01
3.000000000000000000e+00,7.000000000000000000e+00,1.800000000000000000e+01,9.000000000000000000e+00,0.000000000000000000e+00,-2.000000000000000000e+00,-1.000000000000000000e+00,0.000000000000000000e+00,-3.997802734375000000e-01,1.484375000000000000e-01,8.155517578125000000e-01,3.910522460937500000e-01
1.000000000000000000e+00,3.000000000000000000e+00,-4.000000000000000000e+00,-1.000000000000000000e+00,4.000000000000000000e+00,2.000000000000000000e+00,4.000000000000000000e+00,-1.000000000000000000e+00,-3.997802734375000000e-01,1.484375000000000000e-01,8.155517578125000000e-01,3.910522460937500000e-01
1.000000000000000000e+00,3.000000000000000000e+00,-4.000000000000000000e+00,-1.800000000000000000e+01,-7.000000000000000000e+00,-2.000000000000000000e+00,-3.000000000000000000e+00,-1.000000000000000000e+00,-3.997802734375000000e-01,1.484375000000000000e-01,8.155517578125000000e-01,3.910522460937500000e-01
-3.000000000000000000e+00,-6.000000000000000000e+00,-1.100000000000000000e+01,-3.000000000000000000e+00,-1.000000000000000000e+00,-3.000000000000000000e+00,-7.000000000000000000e+00,-1.000000000000000000e+00,-4.003295898437500000e-01,1.502075195312500000e-01,8.139038085937500000e-01,3.931884765625000000e-01
3.000000000000000000e+00,-1.000000000000000000e+00,-1.000000000000000000e+01,-1.000000000000000000e+00,-3.000000000000000000e+00,2.000000000000000000e+00,1.000000000000000000e+01,3.000000000000000000e+00,-4.003295898437500000e-01,1.502075195312500000e-01,8.139038085937500000e-01,3.931884765625000000e-01
-3.000000000000000000e+00,0.000000000000000000e+00,9.000000000000000000e+00,-1.300000000000000000e+01,-3.000000000000000000e+00,-5.000000000000000000e+00,-7.000000000000000000e+00,-2.000000000000000000e+00,-4.003295898437500000e-01,1.502075195312500000e-01,8.139038085937500000e-01,3.931884765625000000e-01
-6.000000000000000000e+00,-3.000000000000000000e+00,0.000000000000000000e+00,2.200000000000000000e+01,9.000000000000000000e+00,2.000000000000000000e+00,0.000000000000000000e+00,-4.000000000000000000e+00,-4.003295898437500000e-01,1.502075195312500000e-01,8.139038085937500000e-01,3.931884765625000000e-01
2.000000000000000000e+00,5.000000000000000000e+00,5.000000000000000000e+00,-4.000000000000000000e+00,-7.000000000000000000e+00,0.000000000000000000e+00,-6.000000000000000000e+00,-2.000000000000000000e+00,-4.009399414062500000e-01,1.527099609375000000e-01,8.123779296875000000e-01,3.948974609375000000e-01
2.000000000000000000e+00,3.000000000000000000e+00,0.000000000000000000e+00,4.000000000000000000e+00,5.000000000000000000e+00,3.000000000000000000e+00,7.000000000000000000e+00,0.000000000000000000e+00,-4.009399414062500000e-01,1.527099609375000000e-01,8.123779296875000000e-01,3.948974609375000000e-01
-2.000000000000000000e+00,-6.000000000000000000e+00,-4.000000000000000000e+00,-1.200000000000000000e+01,1.000000000000000000e+00,-1.000000000000000000e+00,-3.000000000000000000e+00,-1.000000000000000000e+00,-4.009399414062500000e-01,1.527099609375000000e-01,8.123779296875000000e-01,3.948974609375000000e-01
3.000000000000000000e+00,3.000000000000000000e+00,-1.000000000000000000e+00,-6.000000000000000000e+00,-9.000000000000000000e+00,-1.000000000000000000e+00,0.000000000000000000e+00,3.000000000000000000e+00,-4.009399414062500000e-01,1.527099609375000000e-01,8.123779296875000000e-01,3.948974609375000000e-01
0.000000000000000000e+00,-1.000000000000000000e+00,4.000000000000000000e+00,1.300000000000000000e+01,8.000000000000000000e+00,1.000000000000000000e+00,-2.000000000000000000e+00,-2.000000000000000000e+00,-4.020385742187500000e-01,1.530761718750000000e-01,8.114624023437500000e-01,3.954467773437500000e-01
-4.000000000000000000e+00,-7.000000000000000000e+00,-5.000000000000000000e+00,-1.500000000000000000e+01,-5.000000000000000000e+00,-3.000000000000000000e+00,-2.000000000000000000e+00,6.000000000000000000e+00,-4.020385742187500000e-01,1.530761718750000000e-01,8.114624023437500000e-01,3.954467773437500000e-01
3.000000000000000000e+00,7.000000000000000000e+00,6.000000000000000000e+00,1.000000000000000000e+00,-2.000000000000000000e+00,-1.000000000000000000e+00,-1.000000000000000000e+00,-5.000000000000000000e+00,-4.020385742187500000e-01,1.530761718750000000e-01,8.114624023437500000e-01,3.954467773437500000e-01
-4.000000000000000000e+00,-9.000000000000000000e+00,-5.000000000000000000e+00,4.000000000000000000e+00,-2.000000000000000000e+00,-5.000000000000000000e+00,-4.000000000000000000e+00,-3.000000000000000000e+00,-4.020385742187500000e-01,1.530761718750000000e-01,8.114624023437500000e-01,3.954467773437500000e-01
0.000000000000000000e+00,4.000000000000000000e+00,-1.000000000000000000e+00,-8.000000000000000000e+00,-5.000000000000000000e+00,2.000000000000000000e+00,3.000000000000000000e+00,-1.000000000000000000e+00,-4.041748046875000000e-01,1.505737304687500000e-01,8.114013671875000000e-01,3.943481445312500000e-01
-1.000000000000000000e+00,0.000000000000000000e+00,9.000000000000000000e+00,1.900000000000000000e+01,1.200000000000000000e+01,1.000000000000000000e+00,-2.000000000000000000e+00,1.000000000000000000e+00,-4.041748046875000000e-01,1.505737304687500000e-01,8.114013671875000000e-01,3.943481445312500000e-01
3.000000000000000000e+00,5.000000000000000000e+00,-8.000000000000000000e+00,-1.300000000000000000e+01,0.000000000000000000e+00,1.000000000000000000e+00,3.000000000000000000e+00,4.000000000000000000e+00,-4.041748046875000000e-01,1.505737304687500000e-01,8.114013671875000000e-01,3.943481445312500000e-01
0.000000000000000000e+00,-1.000000000000000000e+01,-1.300000000000000000e+01,-4.000000000000000000e+00,-5.000000000000000000e+00,-2.000000000000000000e+00,-3.000000000000000000e+00,-2.000000000000000000e+00,-4.041748046875000000e-01,1.505737304687500000e-01,8.114013671875000000e-01,3.943481445312500000e-01
-3.000000000000000000e+00,-1.000000000000000000e+00,3.000000000000000000e+00,-1.000000000000000000e+00,-5.000000000000000000e+00,-3.000000000000000000e+00,0.000000000000000000e+00,0.000000000000000000e+00,-4.060668945312500000e-01,1.483154296875000000e-01,8.111572265625000000e-01,3.937377929687500000e-01
-3.000000000000000000e+00,-7.000000000000000000e+00,-1.000000000000000000e+00,-1.400000000000000000e+01,-4.000000000000000000e+00,-5.000000000000000000e+00,-2.000000000000000000e+00,-3.000000000000000000e+00,-4.060668945312500000e-01,1.483154296875000000e-01,8.111572265625000000e-01,3.937377929687500000e-01
0.000000000000000000e+00,2.000000000000000000e+00,-2.000000000000000000e+00,4.000000000000000000e+00,-3.000000000000000000e+00,-2.000000000000000000e+00,-5.000000000000000000e+00,1.000000000000000000e+00,-4.060668945312500000e-01,1.483154296875000000e-01,8.111572265625000000e-01,3.937377929687500000e-01
1.000000000000000000e+00,0.000000000000000000e+00,2.000000000000000000e+00,1.700000000000000000e+01,9.000000000000000000e+00,3.000000000000000000e+00,1.300000000000000000e+01,0.000000000000000000e+00,-4.060668945312500000e-01,1.483154296875000000e-01,8.111572265625000000e-01,3.937377929687500000e-01
-3.000000000000000000e+00,-2.000000000000000000e+00,1.000000000000000000e+00,-8.000000000000000000e+00,-3.000000000000000000e+00,-1.000000000000000000e+00,-1.000000000000000000e+00,-1.000000000000000000e+00,-4.074096679687500000e-01,1.477661132812500000e-01,8.104858398437500000e-01,3.939208984375000000e-01
1.000000000000000000e+00,5.000000000000000000e+00,-3.000000000000000000e+00,-8.000000000000000000e+00,-7.000000000000000000e+00,-2.000000000000000000e+00,-8.000000000000000000e+00,-4.000000000000000000e+00,-4.074096679687500000e-01,1.477661132812500000e-01,8.104858398437500000e-01,3.939208984375000000e-01
0.000000000000000000e+00,-1.000000000000000000e+00,1.000000000000000000e+00,8.000000000000000000e+00,1.000000000000000000e+00,1.000000000000000000e+00,5.000000000000000000e+00,-2.000000000000000000e+00,-4.074096679687500000e-01,1.477661132812500000e-01,8.104858398437500000e-01,3.939208984375000000e-01
-5.000000000000000000e+00,-6.000000000000000000e+00,-1.400000000000000000e+01,-1.100000000000000000e+01,-2.000000000000000000e+00,0.000000000000000000e+00,-5.000000000000000000e+00,1.000000000000000000e+00,-4.074096679687500000e-01,1.477661132812500000e-01,8.104858398437500000e-01,3.939208984375000000e-01
-3.000000000000000000e+00,-8.000000000000000000e+00,1.000000000000000000e+00,3.000000000000000000e+00,-1.000000000000000000e+00,-1.000000000000000000e+00,0.000000000000000000e+00,-2.000000000000000000e+00,-4.085083007812500000e-01,1.475830078125000000e-01,8.098754882812500000e-01,3.941040039062500000e-01
0.000000000000000000e+00,5.000000000000000000e+00,1.500000000000000000e+01,9.000000000000000000e+00,5.000000000000000000e+00,-2.000000000000000000e+00,-1.000000000000000000e+01,-5.000000000000000000e+00,-4.085083007812500000e-01,1.475830078125000000e-01,8.098754882812500000e-01,3.941040039062500000e-01
-1.000000000000000000e+00,-1.000000000000000000e+01,-2.400000000000000000e+01,-1.600000000000000000e+01,-7.000000000000000000e+00,1.000000000000000000e+00,-1.000000000000000000e+00,1.000000000000000000e+00,-4.085083007812500000e-01,1.475830078125000000e-01,8.098754882812500000e-01,3.941040039062500000e-01
-2.000000000000000000e+00,3.000000000000000000e+00,6.000000000000000000e+00,-8.000000000000000000e+00,-2.000000000000000000e+00,-2.000000000000000000e+00,-6.000000000000000000e+00,-3.000000000000000000e+00,-4.085083007812500000e-01,1.475830078125000000e-01,8.098754882812500000e-01,3.941040039062500000e-01
0.000000000000000000e+00,4.000000000000000000e+00,0.000000000000000000e+00,3.000000000000000000e+00,1.000000000000000000e+00,3.000000000000000000e+00,0.000000000000000000e+00,3.000000000000000000e+00,-4.094848632812500000e-01,1.476440429687500000e-01,8.093261718750000000e-01,3.942871093750000000e-01
-1.000000000000000000e+00,0.000000000000000000e+00,-2.000000000000000000e+00,6.000000000000000000e+00,-2.000000000000000000e+00,-2.000000000000000000e+00,-1.000000000000000000e+00,-2.000000000000000000e+00,-4.094848632812500000e-01,1.476440429687500000e-01,8.093261718750000000e-01,3.942871093750000000e-01
-4.000000000000000000e+00,-7.000000000000000000e+00,2.000000000000000000e+00,-1.000000000000000000e+00,3.000000000000000000e+00,-1.000000000000000000e+00,-5.000000000000000000e+00,-3.000000000000000000e+00,-4.094848632812500000e-01,1.476440429687500000e-01,8.093261718750000000e-01,3.942871093750000000e-01
3.000000000000000000e+00,5.000000000000000000e+00,6.000000000000000000e+00,-7.000000000000000000e+00,-3.000000000000000000e+00,0.000000000000000000e+00,5.000000000000000000e+00,5.000000000000000000e+00,-4.094848632812500000e-01,1.476440429687500000e-01,8.093261718750000000e-01,3.942871093750000000e-01
-1.000000000000000000e+00,-3.000000000000000000e+00,-7.000000000000000000e+00,1.000000000000000000e+01,2.000000000000000000e+00,0.000000000000000000e+00,0.000000000000000000e+00,0.000000000000000000e+00,-4.104003906250000000e-01,1.487426757812500000e-01,8.082885742187500000e-01,3.949584960937500000e-01
0.000000000000000000e+00,2.000000000000000000e+00,5.000000000000000000e+00,-4.000000000000000000e+00,-3.000000000000000000e+00,-1.000000000000000000e+00,-5.000000000000000000e+00,-2.000000000000000000e+00,-4.104003906250000000e-01,1.487426757812500000e-01,8.082885742187500000e-01,3.949584960937500000e-01
-4.000000000000000000e+00,-6.000000000000000000e+00,-9.000000000000000000e+00,-3.000000000000000000e+00,-1.000000000000000000e+00,-1.000000000000000000e+00,0.000000000000000000e+00,1.000000000000000000e+00,-4.104003906250000000e-01,1.487426757812500000e-01,8.082885742187500000e-01,3.949584960937500000e-01
-2.000000000000000000e+00,0.000000000000000000e+00,6.000000000000000000e+00,-1.000000000000000000e+00,-3.000000000000000000e+00,-2.000000000000000000e+00,-4.000000000000000000e+00,-2.000000000000000000e+00,-4.104003906250000000e-01,1.487426757812500000e-01,8.082885742187500000e-01,3.949584960937500000e-01
0.000000000000000000e+00,2.000000000000000000e+00,1.500000000000000000e+01,6.000000000000000000e+00,5.000000000000000000e+00,2.000000000000000000e+00,-5.000000000000000000e+00,-3.000000000000000000e+00,-4.115600585937500000e-01,1.499023437500000000e-01,8.073120117187500000e-01,3.953857421875000000e-01
1.000000000000000000e+00,8.000000000000000000e+00,-7.000000000000000000e+00,-2.200000000000000000e+01,-4.000000000000000000e+00,2.000000000000000000e+00,8.000000000000000000e+00,1.000000000000000000e+00,-4.115600585937500000e-01,1.499023437500000000e-01,8.073120117187500000e-01,3.953857421875000000e-01
-4.000000000000000000e+00,-2.100000000000000000e+01,-2.200000000000000000e+01,-2.400000000000000000e+01,-1.200000000000000000e+01,-4.000000000000000000e+00,0.000000000000000000e+00,0.000000000000000000e+00,-4.115600585937500000e-01,1.499023437500000000e-01,8.073120117187500000e-01,3.953857421875000000e-01
-1.000000000000000000e+00,1.000000000000000000e+00,3.000000000000000000e+00,1.000000000000000000e+00,-5.000000000000000000e+00,-4.000000000000000000e+00,-5.000000000000000000e+00,-4.000000000000000000e+00,-4.115600585937500000e-01,1.499023437500000000e-01,8.073120117187500000e-01,3.953857421875000000e-01
-1.000000000000000000e+00,-4.000000000000000000e+00,8.000000000000000000e+00,1.200000000000000000e+01,7.000000000000000000e+00,0.000000000000000000e+00,-6.000000000000000000e+00,-3.000000000000000000e+00,-4.131469726562500000e-01,1.502075195312500000e-01,8.065795898437500000e-01,3.950805664062500000e-01
0.000000000000000000e+00,-1.000000000000000000e+00,1.000000000000000000e+01,-4.000000000000000000e+00,-1.400000000000000000e+01,-1.000000000000000000e+00,-1.000000000000000000e+00,0.000000000000000000e+00,-4.131469726562500000e-01,1.502075195312500000e-01,8.065795898437500000e-01,3.950805664062500000e-01
5.000000000000000000e+00,2.000000000000000000e+00,-5.000000000000000000e+00,2.400000000000000000e+01,2.900000000000000000e+01,6.000000000000000000e+00,5.000000000000000000e+00,0.000000000000000000e+00,-4.131469726562500000e-01,1.502075195312500000e-01,8.065795898437500000e-01,3.950805664062500000e-01
-1.000000000000000000e+00,0.000000000000000000e+00,2.000000000000000000e+00,-2.100000000000000000e+01,-1.000000000000000000e+01,-3.000000000000000000e+00,-9.000000000000000000e+00,-2.000000000000000000e+00,-4.131469726562500000e-01,1.502075195312500000e-01,8.065795898437500000e-01,3.950805664062500000e-01
-2.000000000000000000e+00,-2.000000000000000000e+00,-1.300000000000000000e+01,7.000000000000000000e+00,2.000000000000000000e+00,-2.000000000000000000e+00,8.000000000000000000e+00,2.000000000000000000e+00,-4.139404296875000000e-01,1.508178710937500000e-01,8.059692382812500000e-01,3.953857421875000000e-01
-3.000000000000000000e+00,-8.000000000000000000e+00,-7.000000000000000000e+00,-4.000000000000000000e+00,-7.000000000000000000e+00,-3.000000000000000000e+00,-2.000000000000000000e+00,-3.000000000000000000e+00,-4.139404296875000000e-01,1.508178710937500000e-01,8.059692382812500000e-01,3.953857421875000000e-01
-3.000000000000000000e+00,4.000000000000000000e+00,1.000000000000000000e+01,5.000000000000000000e+00,-1.000000000000000000e+01,-3.000000000000000000e+00,-4.000000000000000000e+00,-5.000000000000000000e+00,-4.139404296875000000e-01,1.508178710937500000e-01,8.059692382812500000e-01,3.953857421875000000e-01
2.000000000000000000e+00,1.000000000000000000e+00,7.000000000000000000e+00,1.100000000000000000e+01,4.000000000000000000e+00,1.000000000000000000e+00,1.000000000000000000e+00,-3.000000000000000000e+00,-4.139404296875000000e-01,1.508178710937500000e-01,8.059692382812500000e-01,3.953857421875000000e-01
6.000000000000000000e+00,0.000000000000000000e+00,-9.000000000000000000e+00,-1.400000000000000000e+01,-2.000000000000000000e+00,-1.000000000000000000e+00,5.000000000000000000e+00,1.100000000000000000e+01,-4.140625000000000000e-01,1.523437500000000000e-01,8.048706054687500000e-01,3.967895507812500000e-01
-2.000000000000000000e+00,-8.000000000000000000e+00,-1.300000000000000000e+01,-8.000000000000000000e+00,-1.000000000000000000e+00,0.000000000000000000e+00,-2.000000000000000000e+00,-4.000000000000000000e+00,-4.140625000000000000e-01,1.523437500000000000e-01,8.048706054687500000e-01,3.967895507812500000e-01
1.000000000000000000e+00,7.000000000000000000e+00,4.000000000000000000e+00,7.000000000000000000e+00,0.000000000000000000e+00,1.000000000000000000e+00,-1.000000000000000000e+00,-3.000000000000000000e+00,-4.140625000000000000e-01,1.523437500000000000e-01,8.048706054687500000e-01,3.967895507812500000e-01
-2.000000000000000000e+00,0.000000000000000000e+00,4.000000000000000000e+00,6.000000000000000000e+00,4.000000000000000000e+00,-1.000000000000000000e+00,-1.000000000000000000e+00,-1.000000000000000000e+00,-4.140625000000000000e-01,1.523437500000000000e-01,8.048706054687500000e-01,3.967895507812500000e-01
-1.000000000000000000e+00,2.000000000000000000e+00,1.000000000000000000e+00,-7.000000000000000000e+00,-6.000000000000000000e+00,-3.000000000000000000e+00,-2.000000000000000000e+00,-5.000000000000000000e+00,-4.140625000000000000e-01,1.543579101562500000e-01,8.038330078125000000e-01,3.981933593750000000e-01
2.000000000000000000e+00,1.000000000000000000e+00,2.000000000000000000e+00,1.100000000000000000e+01,8.000000000000000000e+00,3.000000000000000000e+00,0.000000000000000000e+00,1.000000000000000000e+00,-4.140625000000000000e-01,1.543579101562500000e-01,8.038330078125000000e-01,3.981933593750000000e-01
-1.000000000000000000e+00,-4.000000000000000000e+00,-5.000000000000000000e+00,-3.000000000000000000e+00,-6.000000000000000000e+00,-5.000000000000000000e+00,-6.000000000000000000e+00,0.000000000000000000e+00,-4.140625000000000000e-01,1.543579101562500000e-01,8.038330078125000000e-01,3.981933593750000000e-01
-3.000000000000000000e+00,-4.000000000000000000e+00,-1.600000000000000000e+01,-9.000000000000000000e+00,-3.000000000000000000e+00,0.000000000000000000e+00,0.000000000000000000e+00,1.000000000000000000e+00,-4.140625000000000000e-01,1.543579101562500000e-01,8.038330078125000000e-01,3.981933593750000000e-01
0.000000000000000000e+00,-1.000000000000000000e+00,0.000000000000000000e+00,1.000000000000000000e+00,-1.000000000000000000e+00,-1.000000000000000000e+00,-7.000000000000000000e+00,-3.000000000000000000e+00,-4.143676757812500000e-01,1.552124023437500000e-01,8.029785156250000000e-01,3.992309570312500000e-01
-1.000000000000000000e+00,1.000000000000000000e+00,-2.000000000000000000e+00,2.000000000000000000e+00,-3.000000000000000000e+00,0.000000000000000000e+00,8.000000000000000000e+00,4.000000000000000000e+00,-4.143676757812500000e-01,1.552124023437500000e-01,8.029785156250000000e-01,3.992309570312500000e-01
0.000000000000000000e+00,-1.000000000000000000e+00,1.300000000000000000e+01,-9.000000000000000000e+00,-1.000000000000000000e+00,-2.000000000000000000e+00,-1.000000000000000000e+00,-6.000000000000000000e+00,-4.143676757812500000e-01,1.552124023437500000e-01,8.029785156250000000e-01,3.992309570312500000e-01
1.000000000000000000e+00,2.000000000000000000e+00,4.000000000000000000e+00,2.500000000000000000e+01,1.700000000000000000e+01,2.000000000000000000e+00,2.000000000000000000e+00,-1.000000000000000000e+00,-4.143676757812500000e-01,1.552124023437500000e-01,8.029785156250000000e-01,3.992309570312500000e-01
0.000000000000000000e+00,-5.000000000000000000e+00,-4.000000000000000000e+00,1.800000000000000000e+01,1.400000000000000000e+01,5.000000000000000000e+00,-4.000000000000000000e+00,0.000000000000000000e+00,-4.148559570312500000e-01,1.553955078125000000e-01,8.022460937500000000e-01,4.000854492187500000e-01
-3.000000000000000000e+00,0.000000000000000000e+00,-2.000000000000000000e+00,-1.600000000000000000e+01,-6.000000000000000000e+00,-3.000000000000000000e+00,-3.000000000000000000e+00,-5.000000000000000000e+00,-4.148559570312500000e-01,1.553955078125000000e-01,8.022460937500000000e-01,4.000854492187500000e-01
3.000000000000000000e+00,6.000000000000000000e+00,6.000000000000000000e+00,-1.000000000000000000e+00,-6.000000000000000000e+00,-1.000000000000000000e+00,4.000000000000000000e+00,4.000000000000000000e+00,-4.148559570312500000e-01,1.553955078125000000e-01,8.022460937500000000e-01,4.000854492187500000e-01
-7.000000000000000000e+00,-1.500000000000000000e+01,-2.400000000000000000e+01,-1.100000000000000000e+01,-1.300000000000000000e+01,-6.000000000000000000e+00,-5.000000000000000000e+00,-3.000000000000000000e+00,-4.148559570312500000e-01,1.553955078125000000e-01,8.022460937500000000e-01,4.000854492187500000e-01
-1.000000000000000000e+00,2.000000000000000000e+00,0.000000000000000000e+00,-3.000000000000000000e+00,-2.000000000000000000e+00,1.000000000000000000e+00,-1.000000000000000000e+00,-1.000000000000000000e+00,-4.156494140625000000e-01,1.543579101562500000e-01,8.018188476562500000e-01,4.005737304687500000e-01
-4.000000000000000000e+00,-6.000000000000000000e+00,0.000000000000000000e+00,8.000000000000000000e+00,6.000000000000000000e+00,0.000000000000000000e+00,3.000000000000000000e+00,1.000000000000000000e+00,-4.156494140625000000e-01,1.543579101562500000e-01,8.018188476562500000e-01,4.005737304687500000e-01
-3.000000000000000000e+00,-2.000000000000000000e+00,1.200000000000000000e+01,-5.000000000000000000e+00,-5.000000000000000000e+00,-3.000000000000000000e+00,0.000000000000000000e+00,-1.000000000000000000e+00,-4.156494140625000000e-01,1.543579101562500000e-01,8.018188476562500000e-01,4.005737304687500000e-01
4.000000000000000000e+00,4.000000000000000000e+00,0.000000000000000000e+00,1.400000000000000000e+01,-4.000000000000000000e+00,0.000000000000000000e+00,-2.000000000000000000e+00,0.000000000000000000e+00,-4.156494140625000000e-01,1.543579101562500000e-01,8.018188476562500000e-01,4.005737304687500000e-01
1.000000000000000000e+00,-1.000000000000000000e+00,1.000000000000000000e+00,-6.000000000000000000e+00,5.000000000000000000e+00,1.000000000000000000e+00,2.000000000000000000e+00,-2.000000000000000000e+00,-4.164428710937500000e-01,1.515502929687500000e-01,8.020629882812500000e-01,4.003295898437500000e-01
0.000000000000000000e+00,0.000000000000000000e+00,-8.000000000000000000e+00,-1.400000000000000000e+01,-1.100000000000000000e+01,-2.000000000000000000e+00,0.000000000000000000e+00,-1.000000000000000000e+00,-4.164428710937500000e-01,1.515502929687500000e-01,8.020629882812500000e-01,4.003295898437500000e-01
-3.000000000000000000e+00,-5.000000000000000000e+00,-8.000000000000000000e+00,0.000000000000000000e+00,2.000000000000000000e+00,2.000000000000000000e+00,-5.000000000000000000e+00,-3.000000000000000000e+00,-4.164428710937500000e-01,1.515502929687500000e-01,8.020629882812500000e-01,4.003295898437500000e-01
-1.000000000000000000e+00,0.000000000000000000e+00,1.000000000000000000e+01,2.000000000000000000e+00,-6.000000000000000000e+00,-1.000000000000000000e+00,0.000000000000000000e+00,-1.000000000000000000e+00,-4.164428710937500000e-01,1.515502929687500000e-01,8.020629882812500000e-01,4.003295898437500000e-01
-4.000000000000000000e+00,0.000000000000000000e+00,-4.000000000000000000e+00,-5.000000000000000000e+00,-8.000000000000000000e+00,-6.000000000000000000e+00,3.000000000000000000e+00,-1.000000000000000000e+00,-4.170532226562500000e-01,1.481933593750000000e-01,8.024902343750000000e-01,4.001464843750000000e-01
-1.000000000000000000e+00,-6.000000000000000000e+00,-1.200000000000000000e+01,2.500000000000000000e+01,1.100000000000000000e+01,1.000000000000000000e+00,-5.000000000000000000e+00,0.000000000000000000e+00,-4.170532226562500000e-01,1.481933593750000000e-01,8.024902343750000000e-01,4.001464843750000000e-01
0.000000000000000000e+00,7.000000000000000000e+00,6.000000000000000000e+00,5.000000000000000000e+00,-4.000000000000000000e+00,1.000000000000000000e+00,1.000000000000000000e+00,-1.000000000000000000e+00,-4.170532226562500000e-01,1.481933593750000000e-01,8.024902343750000000e-01,4.001464843750000000e-01
1.000000000000000000e+00,3.000000000000000000e+00,9.000000000000000000e+00,-4.000000000000000000e+00,1.000000000000000000e+00,-1.000000000000000000e+00,-1.000000000000000000e+00,1.000000000000000000e+00,-4.170532226562500000e-01,1.481933593750000000e-01,8.024902343750000000e-01,4.001464843750000000e-01
-1.000000000000000000e+00,1.000000000000000000e+00,-6.000000000000000000e+00,-1.100000000000000000e+01,-3.000000000000000000e+00,-1.000000000000000000e+00,3.000000000000000000e+00,0.000000000000000000e+00,-4.172973632812500000e-01,1.456909179687500000e-01,8.027343750000000000e-01,4.002685546875000000e-01
0.000000000000000000e+00,2.000000000000000000e+00,-5.000000000000000000e+00,0.000000000000000000e+00,4.000000000000000000e+00,-1.000000000000000000e+00,-1.000000000000000000e+00,0.000000000000000000e+00,-4.172973632812500000e-01,1.456909179687500000e-01,8.027343750000000000e-01,4.002685546875000000e-01
-2.000000000000000000e+00,-4.000000000000000000e+00,5.000000000000000000e+00,7.000000000000000000e+00,-1.000000000000000000e+00,-3.000000000000000000e+00,0.000000000000000000e+00,-1.000000000000000000e+00,-4.172973632812500000e-01,1.456909179687500000e-01,8.027343750000000000e-01,4.002685546875000000e-01
0.000000000000000000e+00,4.000000000000000000e+00,2.000000000000000000e+00,-3.200000000000000000e+01,-1.000000000000000000e+00,-1.000000000000000000e+00,-1.000000000000000000e+00,-2.000000000000000000e+00,-4.172973632812500000e-01,1.456909179687500000e-01,8.027343750000000000e-01,4.002685546875000000e-01
1.000000000000000000e+00,1.000000000000000000e+00,1.200000000000000000e+01,9.000000000000000000e+00,-7.000000000000000000e+00,-2.000000000000000000e+00,-1.000000000000000000e+00,-2.000000000000000000e+00,-4.173583984375000000e-01,1.438598632812500000e-01,8.026733398437500000e-01,4.009399414062500000e-01
0.000000000000000000e+00,-3.000000000000000000e+00,-1.000000000000000000e+00,0.000000000000000000e+00,-4.000000000000000000e+00,-2.000000000000000000e+00,-9.000000000000000000e+00,-2.000000000000000000e+00,-4.173583984375000000e-01,1.438598632812500000e-01,8.026733398437500000e-01,4.009399414062500000e-01
1.000000000000000000e+00,5.000000000000000000e+00,0.000000000000000000e+00,-8.000000000000000000e+00,0.000000000000000000e+00,1.000000000000000000e+00,1.700000000000000000e+01,3.000000000000000000e+00,-4.173583984375000000e-01,1.438598632812500000e-01,8.026733398437500000e-01,4.009399414062500000e-01
-7.000000000000000000e+00,-1.300000000000000000e+01,-5.000000000000000000e+00,1.300000000000000000e+01,-3.000000000000000000e+00,-2.000000000000000000e+00,-4.000000000000000000e+00,-2.000000000000000000e+00,-4.173583984375000000e-01,1.438598632812500000e-01,8.026733398437500000e-01,4.009399414062500000e-01
0.000000000000000000e+00,1.000000000000000000e+00,-1.000000000000000000e+00,-8.000000000000000000e+00,-6.000000000000000000e+00,0.000000000000000000e+00,0.000000000000000000e+00,-2.000000000000000000e+00,-4.172973632812500000e-01,1.420288085937500000e-01,8.027954101562500000e-01,4.015502929687500000e-01
-1.000000000000000000e+00,-6.000000000000000000e+00,-7.000000000000000000e+00,-1.200000000000000000e+01,4.000000000000000000e+00,0.000000000000000000e+00,-2.000000000000000000e+00,2.000000000000000000e+00,-4.172973632812500000e-01,1.420288085937500000e-01,8.027954101562500000e-01,4.015502929687500000e-01
0.000000000000000000e+00,-1.000000000000000000e+00,6.000000000000000000e+00,-4.000000000000000000e+00,-1.600000000000000000e+01,-7.000000000000000000e+00,-6.000000000000000000e+00,-2.000000000000000000e+00,-4.172973632812500000e-01,1.420288085937500000e-01,8.027954101562500000e-01,4.015502929687500000e-01
0.000000000000000000e+00,0.000000000000000000e+00,0.000000000000000000e+00,3.800000000000000000e+01,3.100000000000000000e+01,5.000000000000000000e+00,1.000000000000000000e+00,-2.000000000000000000e+00,-4.172973632812500000e-01,1.420288085937500000e-01,8.027954101562500000e-01,4.015502929687500000e-01
-5.000000000000000000e+00,-5.000000000000000000e+00,-6.000000000000000000e+00,-4.000000000000000000e+00,-1.000000000000000000e+01,-6.000000000000000000e+00,-1.000000000000000000e+00,-1.000000000000000000e+00,-4.171752929687500000e-01,1.403808593750000000e-01,8.026123046875000000e-01,4.024658203125000000e-01
-2.000000000000000000e+00,2.000000000000000000e+00,5.000000000000000000e+00,2.200000000000000000e+01,0.000000000000000000e+00,1.000000000000000000e+00,0.000000000000000000e+00,-3.000000000000000000e+00,-4.171752929687500000e-01,1.403808593750000000e-01,8.026123046875000000e-01,4.024658203125000000e-01
-1.000000000000000000e+00,2.000000000000000000e+00,-1.000000000000000000e+00,-2.500000000000000000e+01,-1.500000000000000000e+01,-5.000000000000000000e+00,-6.000000000000000000e+00,-3.000000000000000000e+00,-4.171752929687500000e-01,1.403808593750000000e-01,8.026123046875000000e-01,4.024658203125000000e-01
0.000000000000000000e+00,0.000000000000000000e+00,-1.000000000000000000e+01,-1.000000000000000000e+01,3.000000000000000000e+00,1.000000000000000000e+00,3.000000000000000000e+00,0.000000000000000000e+00,-4.171752929687500000e-01,1.403808593750000000e-01,8.026123046875000000e-01,4.024658203125000000e-01
2.000000000000000000e+00,0.000000000000000000e+00,3.000000000000000000e+00,1.000000000000000000e+00,-2.000000000000000000e+00,-1.000000000000000000e+00,-3.000000000000000000e+00,3.000000000000000000e+00,-4.176635742187500000e-01,1.386108398437500000e-01,8.025512695312500000e-01,4.026489257812500000e-01
-1.000000000000000000e+00,0.000000000000000000e+00,8.000000000000000000e+00,-1.600000000000000000e+01,-7.000000000000000000e+00,-2.000000000000000000e+00,1.000000000000000000e+00,-2.000000000000000000e+00,-4.176635742187500000e-01,1.386108398437500000e-01,8.025512695312500000e-01,4.026489257812500000e-01
-3.000000000000000000e+00,2.000000000000000000e+00,-9.000000000000000000e+00,2.100000000000000000e+01,4.000000000000000000e+00,-1.000000000000000000e+00,-1.000000000000000000e+00,0.000000000000000000e+00,-4.176635742187500000e-01,1.386108398437500000e-01,8.025512695312500000e-01,4.026489257812500000e-01
-1.000000000000000000e+00,1.000000000000000000e+00,1.000000000000000000e+00,-1.100000000000000000e+01,-6.000000000000000000e+00,-1.000000000000000000e+00,-2.000000000000000000e+00,-2.000000000000000000e+00,-4.176635742187500000e-01,1.386108398437500000e-01,8.025512695312500000e-01,4.026489257812500000e-01
-1.000000000000000000e+00,1.000000000000000000e+00,1.000000000000000000e+01,3.000000000000000000e+00,1.000000000000000000e+00,-2.000000000000000000e+00,1.000000000000000000e+00,-3.000000000000000000e+00,-4.180908203125000000e-01,1.365966796875000000e-01,8.029174804687500000e-01,4.022827148437500000e-01
2.000000000000000000e+00,-3.000000000000000000e+00,-5.000000000000000000e+00,-4.000000000000000000e+00,-8.000000000000000000e+00,-2.000000000000000000e+00,-1.000000000000000000e+00,2.000000000000000000e+00,-4.180908203125000000e-01,1.365966796875000000e-01,8.029174804687500000e-01,4.022827148437500000e-01
-3.000000000000000000e+00,-9.000000000000000000e+00,-9.000000000000000000e+00,-1.800000000000000000e+01,-5.000000000000000000e+00,-2.000000000000000000e+00,-2.000000000000000000e+00,-1.000000000000000000e+00,-4.180908203125000000e-01,1.365966796875000000e-01,8.029174804687500000e-01,4.022827148437500000e-01
0.000000000000000000e+00,2.000000000000000000e+00,1.200000000000000000e+01,8.000000000000000000e+00,2.000000000000000000e+00,1.000000000000000000e+00,-1.000000000000000000e+00,0.000000000000000000e+00,-4.180908203125000000e-01,1.365966796875000000e-01,8.029174804687500000e-01,4.022827148437500000e-01
-3.000000000000000000e+00,-3.000000000000000000e+00,-1.200000000000000000e+01,-1.100000000000000000e+01,-1.100000000000000000e+01,-1.000000000000000000e+00,-1.000000000000000000e+00,-3.000000000000000000e+00,-4.189453125000000000e-01,1.329345703125000000e-01,8.033447265625000000e-01,4.017333984375000000e-01
0.000000000000000000e+00,4.000000000000000000e+00,0.000000000000000000e+00,-8.000000000000000000e+00,7.000000000000000000e+00,-1.000000000000000000e+00,-1.000000000000000000e+00,-2.000000000000000000e+00,-4.189453125000000000e-01,1.329345703125000000e-01,8.033447265625000000e-01,4.017333984375000000e-01
1.000000000000000000e+00,-4.000000000000000000e+00,1.000000000000000000e+00,4.000000000000000000e+00,1.000000000000000000e+01,1.000000000000000000e+00,-1.000000000000000000e+00,5.000000000000000000e+00,-4.189453125000000000e-01,1.329345703125000000e-01,8.033447265625000000e-01,4.017333984375000000e-01
1.000000000000000000e+00,0.000000000000000000e+00,3.000000000000000000e+00,-3.000000000000000000e+00,-3.000000000000000000e+00,3.000000000000000000e+00,-1.000000000000000000e+00,1.000000000000000000e+00,-4.189453125000000000e-01,1.329345703125000000e-01,8.033447265625000000e-01,4.017333984375000000e-01
1.000000000000000000e+00,3.000000000000000000e+00,4.000000000000000000e+00,1.000000000000000000e+00,-1.000000000000000000e+00,-1.000000000000000000e+00,-2.000000000000000000e+00,-2.000000000000000000e+00,-4.195556640625000000e-01,1.303100585937500000e-01,8.032226562500000000e-01,4.022827148437500000e-01
-1.000000000000000000e+00,1.000000000000000000e+00,7.000000000000000000e+00,3.000000000000000000e+00,-1.000000000000000000e+00,-2.000000000000000000e+00,-3.000000000000000000e+00,-4.000000000000000000e+00,-4.195556640625000000e-01,1.303100585937500000e-01,8.032226562500000000e-01,4.022827148437500000e-01
-1.000000000000000000e+00,2.000000000000000000e+00,-5.000000000000000000e+00,1.000000000000000000e+00,1.000000000000000000e+00,-1.000000000000000000e+00,-4.000000000000000000e+00,-3.000000000000000000e+00,-4.195556640625000000e-01,1.303100585937500000e-01,8.032226562500000000e-01,4.022827148437500000e-01
-5.000000000000000000e+00,-4.000000000000000000e+00,-9.000000000000000000e+00,-1.200000000000000000e+01,-3.000000000000000000e+00,-3.000000000000000000e+00,1.000000000000000000e+00,-1.000000000000000000e+00,-4.195556640625000000e-01,1.303100585937500000e-01,8.032226562500000000e-01,4.022827148437500000e-01
1.000000000000000000e+00,3.000000000000000000e+00,4.000000000000000000e+00,-1.000000000000000000e+00,1.000000000000000000e+00,-1.000000000000000000e+00,1.000000000000000000e+00,2.000000000000000000e+00,-4.193725585937500000e-01,1.306152343750000000e-01,8.024902343750000000e-01,4.038085937500000000e-01
-2.000000000000000000e+00,-6.000000000000000000e+00,-9.000000000000000000e+00,-3.000000000000000000e+00,-2.000000000000000000e+00,-1.000000000000000000e+00,-3.000000000000000000e+00,-4.000000000000000000e+00,-4.193725585937500000e-01,1.306152343750000000e-01,8.024902343750000000e-01,4.038085937500000000e-01
-1.000000000000000000e+00,6.000000000000000000e+00,9.000000000000000000e+00,1.500000000000000000e+01,0.000000000000000000e+00,-1.000000000000000000e+00,0.000000000000000000e+00,1.000000000000000000e+00,-4.193725585937500000e-01,1.306152343750000000e-01,8.024902343750000000e-01,4.038085937500000000e-01
-2.000000000000000000e+00,-1.000000000000000000e+00,2.000000000000000000e+00,-6.000000000000000000e+00,-3.000000000000000000e+00,1.000000000000000000e+00,1.000000000000000000e+00,0.000000000000000000e+00,-4.193725585937500000e-01,1.306152343750000000e-01,8.024902343750000000e-01,4.038085937500000000e-01
0.000000000000000000e+00,0.000000000000000000e+00,-1.000000000000000000e+00,6.000000000000000000e+00,6.000000000000000000e+00,3.000000000000000000e+00,1.000000000000000000e+00,-2.000000000000000000e+00,-4.191894531250000000e-01,1.316528320312500000e-01,8.017578125000000000e-01,4.050292968750000000e-01
-2.000000000000000000e+00,-3.000000000000000000e+00,-2.000000000000000000e+00,-7.000000000000000000e+00,-3.000000000000000000e+00,-3.000000000000000000e+00,0.000000000000000000e+00,0.000000000000000000e+00,-4.191894531250000000e-01,1.316528320312500000e-01,8.017578125000000000e-01,4.050292968750000000e-01
-1.000000000000000000e+00,-3.000000000000000000e+00,0.000000000000000000e+00,-2.000000000000000000e+00,-3.000000000000000000e+00,-3.000000000000000000e+00,-2.000000000000000000e+00,-1.000000000000000000e+00,-4.191894531250000000e-01,1.316528320312500000e-01,8.017578125000000000e-01,4.050292968750000000e-01
1.000000000000000000e+00,0.000000000000000000e+00,-2.000000000000000000e+00,-3.000000000000000000e+00,-4.000000000000000000e+00,0.000000000000000000e+00,1.000000000000000000e+00,1.000000000000000000e+00,-4.191894531250000000e-01,1.316528320312500000e-01,8.017578125000000000e-01,4.050292968750000000e-01
-1.000000000000000000e+00,-3.000000000000000000e+00,-1.200000000000000000e+01,-2.000000000000000000e+01,-7.000000000000000000e+00,-2.000000000000000000e+00,-1.000000000000000000e+00,-1.000000000000000000e+00,-4.196777343750000000e-01,1.316528320312500000e-01,8.013305664062500000e-01,4.054565429687500000e-01
-2.000000000000000000e+00,-4.000000000000000000e+00,8.000000000000000000e+00,1.800000000000000000e+01,-2.000000000000000000e+00,0.000000000000000000e+00,0.000000000000000000e+00,0.000000000000000000e+00,-4.196777343750000000e-01,1.316528320312500000e-01,8.013305664062500000e-01,4.054565429687500000e-01
2.000000000000000000e+00,-1.000000000000000000e+00,-6.000000000000000000e+00,-9.000000000000000000e+00,-2.000000000000000000e+00,1.000000000000000000e+00,0.000000000000000000e+00,2.000000000000000000e+00,-4.196777343750000000e-01,1.316528320312500000e-01,8.013305664062500000e-01,4.054565429687500000e-01
-3.000000000000000000e+00,-2.000000000000000000e+00,-3.000000000000000000e+00,-1.100000000000000000e+01,-8.000000000000000000e+00,-5.000000000000000000e+00,-2.000000000000000000e+00,-2.000000000000000000e+00,-4.196777343750000000e-01,1.316528320312500000e-01,8.013305664062500000e-01,4.054565429687500000e-01
-3.000000000000000000e+00,1.000000000000000000e+00,2.000000000000000000e+00,-1.100000000000000000e+01,-1.000000000000000000e+00,-3.000000000000000000e+00,-2.000000000000000000e+00,-1.000000000000000000e+00,-4.208984375000000000e-01,1.309814453125000000e-01,8.009033203125000000e-01,4.051513671875000000e-01
0.000000000000000000e+00,1.000000000000000000e+00,-3.000000000000000000e+00,1.000000000000000000e+00,-9.000000000000000000e+00,-4.000000000000000000e+00,0.000000000000000000e+00,-2.000000000000000000e+00,-4.208984375000000000e-01,1.309814453125000000e-01,8.009033203125000000e-01,4.051513671875000000e-01
-1.000000000000000000e+00,-1.000000000000000000e+00,-1.000000000000000000e+00,-4.000000000000000000e+00,1.600000000000000000e+01,2.000000000000000000e+00,-2.000000000000000000e+00,-1.000000000000000000e+00,-4.208984375000000000e-01,1.309814453125000000e-01,8.009033203125000000e-01,4.051513671875000000e-01
-3.000000000000000000e+00,-2.000000000000000000e+00,3.000000000000000000e+00,2.400000000000000000e+01,-2.000000000000000000e+00,-2.000000000000000000e+00,-3.000000000000000000e+00,-4.000000000000000000e+00,-4.208984375000000000e-01,1.309814453125000000e-01,8.009033203125000000e-01,4.051513671875000000e-01
-3.000000000000000000e+00,-3.000000000000000000e+00,-6.000000000000000000e+00,-3.000000000000000000e+00,1.000000000000000000e+00,-2.000000000000000000e+00,-1.000000000000000000e+00,1.000000000000000000e+00,-4.220581054687500000e-01,1.295166015625000000e-01,8.007202148437500000e-01,4.047851562500000000e-01
-2.000000000000000000e+00,-2.000000000000000000e+00,-6.000000000000000000e+00,-4.000000000000000000e+00,0.000000000000000000e+00,-1.000000000000000000e+00,1.000000000000000000e+00,2.000000000000000000e+00,-4.220581054687500000e-01,1.295166015625000000e-01,8.007202148437500000e-01,4.047851562500000000e-01
0.000000000000000000e+00,4.000000000000000000e+00,1.100000000000000000e+01,7.000000000000000000e+00,-3.000000000000000000e+00,0.000000000000000000e+00,1.000000000000000000e+00,-2.000000000000000000e+00,-4.220581054687500000e-01,1.295166015625000000e-01,8.007202148437500000e-01,4.047851562500000000e-01
0.000000000000000000e+00,-3.000000000000000000e+00,-1.300000000000000000e+01,-1.100000000000000000e+01,-3.000000000000000000e+00,-2.000000000000000000e+00,-1.000000000000000000e+00,1.000000000000000000e+00,-4.220581054687500000e-01,1.295166015625000000e-01,8.007202148437500000e-01,4.047851562500000000e-01
-5.000000000000000000e+00,-3.000000000000000000e+00,4.000000000000000000e+00,-2.000000000000000000e+00,-4.000000000000000000e+00,-5.000000000000000000e+00,-4.000000000000000000e+00,-5.000000000000000000e+00,-4.227294921875000000e-01,1.277465820312500000e-01,8.006591796875000000e-01,4.047851562500000000e-01
-2.000000000000000000e+00,0.000000000000000000e+00,0.000000000000000000e+00,4.000000000000000000e+00,5.000000000000000000e+00,2.000000000000000000e+00,0.000000000000000000e+00,-3.000000000000000000e+00,-4.227294921875000000e-01,1.277465820312500000e-01,8.006591796875000000e-01,4.047851562500000000e-01
-3.000000000000000000e+00,-3.000000000000000000e+00,-5.000000000000000000e+00,-1.400000000000000000e+01,-7.000000000000000000e+00,-1.000000000000000000e+00,-2.000000000000000000e+00,0.000000000000000000e+00,-4.227294921875000000e-01,1.277465820312500000e-01,8.006591796875000000e-01,4.047851562500000000e-01
1.000000000000000000e+00,0.000000000000000000e+00,0.000000000000000000e+00,-4.000000000000000000e+00,3.000000000000000000e+00,0.000000000000000000e+00,1.000000000000000000e+00,1.000000000000000000e+00,-4.227294921875000000e-01,1.277465820312500000e-01,8.006591796875000000e-01,4.047851562500000000e-01
0.000000000000000000e+00,-3.000000000000000000e+00,-5.000000000000000000e+00,5.000000000000000000e+00,2.000000000000000000e+00,1.000000000000000000e+00,0.000000000000000000e+00,-2.000000000000000000e+00,-4.226074218750000000e-01,1.272583007812500000e-01,8.005981445312500000e-01,4.052124023437500000e-01
-2.000000000000000000e+00,0.000000000000000000e+00,1.000000000000000000e+00,6.000000000000000000e+00,-2.000000000000000000e+00,-2.000000000000000000e+00,1.000000000000000000e+00,2.000000000000000000e+00,-4.226074218750000000e-01,1.272583007812500000e-01,8.005981445312500000e-01,4.052124023437500000e-01
0.000000000000000000e+00,2.000000000000000000e+00,-2.000000000000000000e+00,-6.000000000000000000e+00,2.000000000000000000e+00,1.000000000000000000e+00,0.000000000000000000e+00,-1.000000000000000000e+00,-4.226074218750000000e-01,1.272583007812500000e-01,8.005981445312500000e-01,4.052124023437500000e-01
-5.000000000000000000e+00,-5.000000000000000000e+00,-1.000000000000000000e+01,-2.900000000000000000e+01,-1.100000000000000000e+01,-4.000000000000000000e+00,-3.000000000000000000e+00,-4.000000000000000000e+00,-4.226074218750000000e-01,1.272583007812500000e-01,8.005981445312500000e-01,4.052124023437500000e-01
2.000000000000000000e+00,0.000000000000000000e+00,-2.000000000000000000e+00,4.400000000000000000e+01,2.700000000000000000e+01,9.000000000000000000e+00,3.000000000000000000e+00,3.000000000000000000e+00,-4.222412109375000000e-01,1.279907226562500000e-01,8.003540039062500000e-01,4.058227539062500000e-01
-1.000000000000000000e+00,-1.000000000000000000e+00,0.000000000000000000e+00,-7.000000000000000000e+00,-4.000000000000000000e+00,-2.000000000000000000e+00,-1.000000000000000000e+00,0.000000000000000000e+00,-4.222412109375000000e-01,1.279907226562500000e-01,8.003540039062500000e-01,4.058227539062500000e-01
1.000000000000000000e+00,1.000000000000000000e+00,-2.000000000000000000e+00,-3.000000000000000000e+00,-3.000000000000000000e+00,-2.000000000000000000e+00,-1.000000000000000000e+00,-1.000000000000000000e+00,-4.222412109375000000e-01,1.279907226562500000e-01,8.003540039062500000e-01,4.058227539062500000e-01
-2.000000000000000000e+00,-4.000000000000000000e+00,6.000000000000000000e+00,-5.000000000000000000e+00,-8.000000000000000000e+00,-5.000000000000000000e+00,-1.000000000000000000e+00,-2.000000000000000000e+00,-4.222412109375000000e-01,1.279907226562500000e-01,8.003540039062500000e-01,4.058227539062500000e-01
-3.000000000000000000e+00,-7.000000000000000000e+00,-7.000000000000000000e+00,-1.100000000000000000e+01,-5.000000000000000000e+00,-1.000000000000000000e+00,-1.000000000000000000e+00,-4.000000000000000000e+00,-4.223022460937500000e-01,1.284790039062500000e-01,7.999267578125000000e-01,4.064331054687500000e-01
-1.000000000000000000e+00,-3.000000000000000000e+00,-5.000000000000000000e+00,-1.500000000000000000e+01,-5.000000000000000000e+00,-1.000000000000000000e+00,-1.000000000000000000e+00,0.000000000000000000e+00,-4.223022460937500000e-01,1.284790039062500000e-01,7.999267578125000000e-01,4.064331054687500000e-01
-2.000000000000000000e+00,-3.000000000000000000e+00,-6.000000000000000000e+00,4.000000000000000000e+01,3.000000000000000000e+01,6.000000000000000000e+00,1.000000000000000000e+00,-2.000000000000000000e+00,-4.223022460937500000e-01,1.284790039062500000e-01,7.999267578125000000e-01,4.064331054687500000e-01
1.000000000000000000e+00,4.000000000000000000e+00,3.000000000000000000e+00,0.000000000000000000e+00,-4.000000000000000000e+00,-1.000000000000000000e+00,-3.000000000000000000e+00,-1.000000000000000000e+00,-4.223022460937500000e-01,1.284790039062500000e-01,7.999267578125000000e-01,4.064331054687500000e-01
-1.000000000000000000e+00,3.000000000000000000e+00,1.400000000000000000e+01,6.000000000000000000e+00,-1.100000000000000000e+01,-2.000000000000000000e+00,-2.000000000000000000e+00,0.000000000000000000e+00,-4.229125976562500000e-01,1.279907226562500000e-01,7.996215820312500000e-01,4.065551757812500000e-01
0.000000000000000000e+00,-3.000000000000000000e+00,-1.300000000000000000e+01,-3.000000000000000000e+00,6.000000000000000000e+00,2.000000000000000000e+00,1.000000000000000000e+00,-1.000000000000000000e+00,-4.229125976562500000e-01,1.279907226562500000e-01,7.996215820312500000e-01,4.065551757812500000e-01
0.000000000000000000e+00,-1.000000000000000000e+00,-2.000000000000000000e+00,1.400000000000000000e+01,-5.000000000000000000e+00,-3.000000000000000000e+00,-1.000000000000000000e+00,-2.000000000000000000e+00,-4.229125976562500000e-01,1.279907226562500000e-01,7.996215820312500000e-01,4.065551757812500000e-01
-1.000000000000000000e+00,-2.000000000000000000e+00,6.000000000000000000e+00,-2.000000000000000000e+01,-3.000000000000000000e+00,-3.000000000000000000e+00,0.000000000000000000e+00,0.000000000000000000e+00,-4.229125976562500000e-01,1.279907226562500000e-01,7.996215820312500000e-01,4.065551757812500000e-01
-2.000000000000000000e+00,0.000000000000000000e+00,-2.000000000000000000e+00,9.000000000000000000e+00,-2.000000000000000000e+00,-2.000000000000000000e+00,-1.000000000000000000e+00,-1.000000000000000000e+00,-4.229736328125000000e-01,1.279296875000000000e-01,7.996215820312500000e-01,4.065551757812500000e-01
-2.000000000000000000e+00,-3.000000000000000000e+00,-2.000000000000000000e+00,-1.100000000000000000e+01,-7.000000000000000000e+00,-3.000000000000000000e+00,-4.000000000000000000e+00,-2.000000000000000000e+00,-4.229736328125000000e-01,1.279296875000000000e-01,7.996215820312500000e-01,4.065551757812500000e-01
-1.000000000000000000e+00,-1.000000000000000000e+00,1.000000000000000000e+00,-6.000000000000000000e+00,-4.000000000000000000e+00,1.000000000000000000e+00,0.000000000000000000e+00,-3.000000000000000000e+00,-4.229736328125000000e-01,1.279296875000000000e-01,7.996215820312500000e-01,4.065551757812500000e-01
-1.000000000000000000e+00,2.000000000000000000e+00,-1.000000000000000000e+00,2.100000000000000000e+01,1.100000000000000000e+01,1.000000000000000000e+00,1.000000000000000000e+00,-2.000000000000000000e+00,-4.229736328125000000e-01,1.279296875000000000e-01,7.996215820312500000e-01,4.065551757812500000e-01
2.000000000000000000e+00,3.000000000000000000e+00,1.000000000000000000e+00,-9.000000000000000000e+00,-8.000000000000000000e+00,-1.000000000000000000e+00,-1.000000000000000000e+00,1.000000000000000000e+00,-4.230346679687500000e-01,1.278686523437500000e-01,7.995605468750000000e-01,4.065551757812500000e-01
-4.000000000000000000e+00,-6.000000000000000000e+00,-1.000000000000000000e+00,-1.500000000000000000e+01,0.000000000000000000e+00,-2.000000000000000000e+00,-2.000000000000000000e+00,-4.000000000000000000e+00,-4.230346679687500000e-01,1.278686523437500000e-01,7.995605468750000000e-01,4.065551757812500000e-01
0.000000000000000000e+00,-1.000000000000000000e+00,-4.000000000000000000e+00,3.000000000000000000e+00,-1.000000000000000000e+00,-3.000000000000000000e+00,-2.000000000000000000e+00,-2.000000000000000000e+00,-4.230346679687500000e-01,1.278686523437500000e-01,7.995605468750000000e-01,4.065551757812500000e-01
3.000000000000000000e+00,2.000000000000000000e+00,-5.000000000000000000e+00,-4.000000000000000000e+00,-6.000000000000000000e+00,-1.000000000000000000e+00,-1.000000000000000000e+00,1.000000000000000000e+00,-4.230346679687500000e-01,1.278686523437500000e-01,7.995605468750000000e-01,4.065551757812500000e-01
-2.000000000000000000e+00,-1.000000000000000000e+00,1.000000000000000000e+00,-9.000000000000000000e+00,0.000000000000000000e+00,0.000000000000000000e+00,-1.000000000000000000e+00,-1.000000000000000000e+00,-4.229125976562500000e-01,1.273193359375000000e-01,7.996215820312500000e-01,4.067993164062500000e-01
1.000000000000000000e+00,2.000000000000000000e+00,4.000000000000000000e+00,3.000000000000000000e+00,3.000000000000000000e+00,0.000000000000000000e+00,2.000000000000000000e+00,2.000000000000000000e+00,-4.229125976562500000e-01,1.273193359375000000e-01,7.996215820312500000e-01,4.067993164062500000e-01
-5.000000000000000000e+00,-5.000000000000000000e+00,0.000000000000000000e+00,-6.000000000000000000e+00,-6.000000000000000000e+00,-2.000000000000000000e+00,-4.000000000000000000e+00,-1.000000000000000000e+00,-4.229125976562500000e-01,1.273193359375000000e-01,7.996215820312500000e-01,4.067993164062500000e-01
1.000000000000000000e+00,3.000000000000000000e+00,0.000000000000000000e+00,1.200000000000000000e+01,5.000000000000000000e+00,2.000000000000000000e+00,-1.000000000000000000e+00,0.000000000000000000e+00,-4.229125976562500000e-01,1.273193359375000000e-01,7.996215820312500000e-01,4.067993164062500000e-01
-4.000000000000000000e+00,-6.000000000000000000e+00,-1.200000000000000000e+01,-6.000000000000000000e+00,-2.000000000000000000e+00,-1.000000000000000000e+00,-1.000000000000000000e+00,-2.000000000000000000e+00,-4.225463867187500000e-01,1.271972656250000000e-01,7.998657226562500000e-01,4.067993164062500000e-01
0.000000000000000000e+00,3.000000000000000000e+00,3.000000000000000000e+00,-2.700000000000000000e+01,-4.000000000000000000e+00,0.000000000000000000e+00,-2.000000000000000000e+00,0.000000000000000000e+00,-4.225463867187500000e-01,1.271972656250000000e-01,7.998657226562500000e-01,4.067993164062500000e-01
-1.000000000000000000e+00,2.000000000000000000e+00,4.000000000000000000e+00,3.700000000000000000e+01,6.000000000000000000e+00,3.000000000000000000e+00,1.000000000000000000e+00,1.000000000000000000e+00,-4.225463867187500000e-01,1.271972656250000000e-01,7.998657226562500000e-01,4.067993164062500000e-01
2.000000000000000000e+00,0.000000000000000000e+00,1.000000000000000000e+00,-1.000000000000000000e+00,6.000000000000000000e+00,1.000000000000000000e+00,0.000000000000000000e+00,0.000000000000000000e+00,-4.225463867187500000e-01,1.271972656250000000e-01,7.998657226562500000e-01,4.067993164062500000e-01
0.000000000000000000e+00,-2.000000000000000000e+00,4.000000000000000000e+00,-4.000000000000000000e+00,0.000000000000000000e+00,-1.000000000000000000e+00,0.000000000000000000e+00,-3.000000000000000000e+00,-4.224853515625000000e-01,1.268920898437500000e-01,8.001098632812500000e-01,4.063720703125000000e-01
-1.000000000000000000e+00,-1.000000000000000000e+00,-6.000000000000000000e+00,1.000000000000000000e+00,-4.000000000000000000e+00,-2.000000000000000000e+00,-2.000000000000000000e+00,-1.000000000000000000e+00,-4.224853515625000000e-01,1.268920898437500000e-01,8.001098632812500000e-01,4.063720703125000000e-01
1.000000000000000000e+00,-2.000000000000000000e+00,2.000000000000000000e+00,-9.000000000000000000e+00,-8.000000000000000000e+00,-4.000000000000000000e+00,-1.000000000000000000e+00,-1.000000000000000000e+00,-4.224853515625000000e-01,1.268920898437500000e-01,8.001098632812500000e-01,4.063720703125000000e-01
-4.000000000000000000e+00,-3.000000000000000000e+00,-1.000000000000000000e+01,4.000000000000000000e+00,1.000000000000000000e+00,2.000000000000000000e+00,-2.000000000000000000e+00,-2.000000000000000000e+00,-4.224853515625000000e-01,1.268920898437500000e-01,8.001098632812500000e-01,4.063720703125000000e-01
1.000000000000000000e+00,3.000000000000000000e+00,1.000000000000000000e+00,-1.000000000000000000e+01,2.000000000000000000e+00,0.000000000000000000e+00,1.000000000000000000e+00,0.000000000000000000e+00,-4.225463867187500000e-01,1.264038085937500000e-01,8.003540039062500000e-01,4.060058593750000000e-01
-4.000000000000000000e+00,-5.000000000000000000e+00,1.000000000000000000e+00,1.100000000000000000e+01,-7.000000000000000000e+00,-4.000000000000000000e+00,-3.000000000000000000e+00,-3.000000000000000000e+00,-4.225463867187500000e-01,1.264038085937500000e-01,8.003540039062500000e-01,4.060058593750000000e-01
0.000000000000000000e+00,-2.000000000000000000e+00,-8.000000000000000000e+00,4.000000000000000000e+00,1.200000000000000000e+01,-2.000000000000000000e+00,1.000000000000000000e+00,-2.000000000000000000e+00,-4.225463867187500000e-01,1.264038085937500000e-01,8.003540039062500000e-01,4.060058593750000000e-01
2.000000000000000000e+00,3.000000000000000000e+00,7.000000000000000000e+00,1.000000000000000000e+00,-6.000000000000000000e+00,-2.000000000000000000e+00,-1.000000000000000000e+00,-1.000000000000000000e+00,-4.225463867187500000e-01,1.264038085937500000e-01,8.003540039062500000e-01,4.060058593750000000e-01
-3.000000000000000000e+00,-4.000000000000000000e+00,-4.000000000000000000e+00,-1.400000000000000000e+01,-1.100000000000000000e+01,-3.000000000000000000e+00,-5.000000000000000000e+00,-2.000000000000000000e+00,-4.224853515625000000e-01,1.261596679687500000e-01,8.004760742187500000e-01,4.058837890625000000e-01
1.000000000000000000e+00,3.000000000000000000e+00,4.000000000000000000e+00,1.300000000000000000e+01,5.000000000000000000e+00,1.000000000000000000e+00,-1.000000000000000000e+00,0.000000000000000000e+00,-4.224853515625000000e-01,1.261596679687500000e-01,8.004760742187500000e-01,4.058837890625000000e-01
