-1.000000000000000000e+00,-1.000000000000000000e+00,1.300000000000000000e+01,-2.000000000000000000e+00,-5.000000000000000000e+00,-1.000000000000000000e+00,-3.000000000000000000e+00,0.000000000000000000e+00,-3.659667968750000000e-01,3.144531250000000000e-01,5.293579101562500000e-01,6.977539062500000000e-01
1.000000000000000000e+00,4.000000000000000000e+00,1.700000000000000000e+01,3.000000000000000000e+00,4.000000000000000000e+00,0.000000000000000000e+00,1.000000000000000000e+00,1.000000000000000000e+00,-3.659667968750000000e-01,3.144531250000000000e-01,5.293579101562500000e-01,6.977539062500000000e-01
2.000000000000000000e+00,2.000000000000000000e+00,-1.100000000000000000e+01,6.000000000000000000e+00,-6.000000000000000000e+00,-4.000000000000000000e+00,-4.000000000000000000e+00,-3.000000000000000000e+00,-3.659667968750000000e-01,3.144531250000000000e-01,5.293579101562500000e-01,6.977539062500000000e-01
-2.000000000000000000e+00,-5.000000000000000000e+00,-2.400000000000000000e+01,-6.000000000000000000e+00,1.000000000000000000e+00,2.000000000000000000e+00,1.000000000000000000e+00,0.000000000000000000e+00,-3.659667968750000000e-01,3.144531250000000000e-01,5.293579101562500000e-01,6.977539062500000000e-01
-4.000000000000000000e+00,-8.000000000000000000e+00,7.000000000000000000e+00,-4.000000000000000000e+00,-2.000000000000000000e+00,-1.000000000000000000e+00,-1.000000000000000000e+00,-3.000000000000000000e+00,-3.657226562500000000e-01,3.130493164062500000e-01,5.288085937500000000e-01,6.989135742187500000e-01
1.000000000000000000e+00,5.000000000000000000e+00,6.000000000000000000e+00,-8.000000000000000000e+00,-1.100000000000000000e+01,-4.000000000000000000e+00,-2.000000000000000000e+00,0.000000000000000000e+00,-3.657226562500000000e-01,3.130493164062500000e-01,5.288085937500000000e-01,6.989135742187500000e-01
-3.000000000000000000e+00,-2.000000000000000000e+00,-9.000000000000000000e+00,2.000000000000000000e+00,0.000000000000000000e+00,-1.000000000000000000e+00,1.000000000000000000e+00,-2.000000000000000000e+00,-3.657226562500000000e-01,3.130493164062500000e-01,5.288085937500000000e-01,6.989135742187500000e-01
0.000000000000000000e+00,3.000000000000000000e+00,1.200000000000000000e+01,6.000000000000000000e+00,-2.000000000000000000e+00,-1.000000000000000000e+00,0.000000000000000000e+00,0.000000000000000000e+00,-3.657226562500000000e-01,3.130493164062500000e-01,5.288085937500000000e-01,6.989135742187500000e-01
-1.000000000000000000e+00,2.000000000000000000e+00,-2.000000000000000000e+00,6.000000000000000000e+00,6.000000000000000000e+00,1.000000000000000000e+00,0.000000000000000000e+00,0.000000000000000000e+00,-3.653564453125000000e-01,3.119506835937500000e-01,5.280761718750000000e-01,7.001953125000000000e-01
-1.000000000000000000e+00,-1.000000000000000000e+00,-2.000000000000000000e+00,-1.000000000000000000e+01,-7.000000000000000000e+00,0.000000000000000000e+00,0.000000000000000000e+00,-2.000000000000000000e+00,-3.653564453125000000e-01,3.119506835937500000e-01,5.280761718750000000e-01,7.001953125000000000e-01
1.000000000000000000e+00,2.000000000000000000e+00,1.900000000000000000e+01,1.000000000000000000e+00,-2.000000000000000000e+00,-4.000000000000000000e+00,-1.000000000000000000e+00,-2.000000000000000000e+00,-3.653564453125000000e-01,3.119506835937500000e-01,5.280761718750000000e-01,7.001953125000000000e-01
0.000000000000000000e+00,-2.000000000000000000e+00,-1.000000000000000000e+01,-4.000000000000000000e+00,-2.000000000000000000e+00,1.000000000000000000e+00,0.000000000000000000e+00,-1.000000000000000000e+00,-3.653564453125000000e-01,3.119506835937500000e-01,5.280761718750000000e-01,7.001953125000000000e-01
0.000000000000000000e+00,-2.000000000000000000e+00,-3.000000000000000000e+00,-6.000000000000000000e+00,-3.000000000000000000e+00,-3.000000000000000000e+00,-1.000000000000000000e+00,0.000000000000000000e+00,-3.636474609375000000e-01,3.121948242187500000e-01,5.272827148437500000e-01,7.015380859375000000e-01
0.000000000000000000e+00,-1.000000000000000000e+00,5.000000000000000000e+00,9.000000000000000000e+00,-1.000000000000000000e+00,-2.000000000000000000e+00,-1.000000000000000000e+00,-2.000000000000000000e+00,-3.636474609375000000e-01,3.121948242187500000e-01,5.272827148437500000e-01,7.015380859375000000e-01
-2.000000000000000000e+00,-1.000000000000000000e+00,-1.300000000000000000e+01,-7.000000000000000000e+00,-4.000000000000000000e+00,0.000000000000000000e+00,2.000000000000000000e+00,0.000000000000000000e+00,-3.636474609375000000e-01,3.121948242187500000e-01,5.272827148437500000e-01,7.015380859375000000e-01
-2.000000000000000000e+00,-1.000000000000000000e+00,1.200000000000000000e+01,7.000000000000000000e+00,2.000000000000000000e+00,-1.000000000000000000e+00,0.000000000000000000e+00,0.000000000000000000e+00,-3.636474609375000000e-01,3.121948242187500000e-01,5.272827148437500000e-01,7.015380859375000000e-01
-1.000000000000000000e+00,-3.000000000000000000e+00,-5.000000000000000000e+00,-8.000000000000000000e+00,-3.000000000000000000e+00,-1.000000000000000000e+00,0.000000000000000000e+00,-4.000000000000000000e+00,-3.621826171875000000e-01,3.126220703125000000e-01,5.267944335937500000e-01,7.024536132812500000e-01
1.000000000000000000e+00,2.000000000000000000e+00,-2.000000000000000000e+00,7.000000000000000000e+00,5.000000000000000000e+00,0.000000000000000000e+00,-1.000000000000000000e+00,-2.000000000000000000e+00,-3.621826171875000000e-01,3.126220703125000000e-01,5.267944335937500000e-01,7.024536132812500000e-01
-1.000000000000000000e+00,-1.000000000000000000e+00,-2.000000000000000000e+00,-5.000000000000000000e+00,-3.000000000000000000e+00,-1.000000000000000000e+00,-2.000000000000000000e+00,0.000000000000000000e+00,-3.621826171875000000e-01,3.126220703125000000e-01,5.267944335937500000e-01,7.024536132812500000e-01
-1.000000000000000000e+00,-3.000000000000000000e+00,1.000000000000000000e+00,-3.000000000000000000e+00,-2.000000000000000000e+00,-1.000000000000000000e+00,-3.000000000000000000e+00,1.000000000000000000e+00,-3.621826171875000000e-01,3.126220703125000000e-01,5.267944335937500000e-01,7.024536132812500000e-01
0.000000000000000000e+00,4.000000000000000000e+00,5.000000000000000000e+00,5.000000000000000000e+00,4.000000000000000000e+00,2.000000000000000000e+00,1.000000000000000000e+00,0.000000000000000000e+00,-3.616943359375000000e-01,3.126220703125000000e-01,5.270385742187500000e-01,7.025146484375000000e-01
-1.000000000000000000e+00,-3.000000000000000000e+00,-1.700000000000000000e+01,-1.300000000000000000e+01,1.000000000000000000e+00,1.000000000000000000e+00,0.000000000000000000e+00,-1.000000000000000000e+00,-3.616943359375000000e-01,3.126220703125000000e-01,5.270385742187500000e-01,7.025146484375000000e-01
1.000000000000000000e+00,1.000000000000000000e+00,1.500000000000000000e+01,-4.000000000000000000e+00,-6.000000000000000000e+00,-3.000000000000000000e+00,-1.000000000000000000e+00,0.000000000000000000e+00,-3.616943359375000000e-01,3.126220703125000000e-01,5.270385742187500000e-01,7.025146484375000000e-01
-1.000000000000000000e+00,-3.000000000000000000e+00,-3.700000000000000000e+01,-6.000000000000000000e+00,-2.000000000000000000e+00,0.000000000000000000e+00,-2.000000000000000000e+00,-1.000000000000000000e+00,-3.616943359375000000e-01,3.126220703125000000e-01,5.270385742187500000e-01,7.025146484375000000e-01
0.000000000000000000e+00,1.000000000000000000e+00,-5.000000000000000000e+00,6.000000000000000000e+00,1.000000000000000000e+00,-2.000000000000000000e+00,-3.000000000000000000e+00,0.000000000000000000e+00,-3.616943359375000000e-01,3.125000000000000000e-01,5.275268554687500000e-01,7.022705078125000000e-01
-2.000000000000000000e+00,0.000000000000000000e+00,0.000000000000000000e+00,2.000000000000000000e+00,-9.000000000000000000e+00,-2.000000000000000000e+00,0.000000000000000000e+00,0.000000000000000000e+00,-3.616943359375000000e-01,3.125000000000000000e-01,5.275268554687500000e-01,7.022705078125000000e-01
1.000000000000000000e+00,4.000000000000000000e+00,1.100000000000000000e+01,1.000000000000000000e+00,8.000000000000000000e+00,2.000000000000000000e+00,-1.000000000000000000e+00,0.000000000000000000e+00,-3.616943359375000000e-01,3.125000000000000000e-01,5.275268554687500000e-01,7.022705078125000000e-01
-2.000000000000000000e+00,-5.000000000000000000e+00,9.000000000000000000e+00,1.500000000000000000e+01,3.000000000000000000e+00,2.000000000000000000e+00,0.000000000000000000e+00,-1.000000000000000000e+00,-3.616943359375000000e-01,3.125000000000000000e-01,5.275268554687500000e-01,7.022705078125000000e-01
1.000000000000000000e+00,-2.000000000000000000e+00,-9.000000000000000000e+00,-1.700000000000000000e+01,-2.000000000000000000e+00,-3.000000000000000000e+00,3.000000000000000000e+00,0.000000000000000000e+00,-3.619995117187500000e-01,3.126220703125000000e-01,5.277099609375000000e-01,7.019042968750000000e-01
0.000000000000000000e+00,3.000000000000000000e+00,0.000000000000000000e+00,9.000000000000000000e+00,0.000000000000000000e+00,0.000000000000000000e+00,-2.000000000000000000e+00,-1.000000000000000000e+00,-3.619995117187500000e-01,3.126220703125000000e-01,5.277099609375000000e-01,7.019042968750000000e-01
-3.000000000000000000e+00,-6.000000000000000000e+00,2.000000000000000000e+00,-1.100000000000000000e+01,-8.000000000000000000e+00,-3.000000000000000000e+00,-3.000000000000000000e+00,0.000000000000000000e+00,-3.619995117187500000e-01,3.126220703125000000e-01,5.277099609375000000e-01,7.019042968750000000e-01
-1.000000000000000000e+00,1.000000000000000000e+00,6.000000000000000000e+00,-4.000000000000000000e+00,-2.000000000000000000e+00,-2.000000000000000000e+00,-1.000000000000000000e+00,-1.000000000000000000e+00,-3.619995117187500000e-01,3.126220703125000000e-01,5.277099609375000000e-01,7.019042968750000000e-01
-3.000000000000000000e+00,-2.000000000000000000e+00,0.000000000000000000e+00,-1.000000000000000000e+00,-3.000000000000000000e+00,-2.000000000000000000e+00,-1.000000000000000000e+00,-2.000000000000000000e+00,-3.625488281250000000e-01,3.129272460937500000e-01,5.275878906250000000e-01,7.015991210937500000e-01
1.000000000000000000e+00,2.000000000000000000e+00,1.700000000000000000e+01,5.000000000000000000e+00,0.000000000000000000e+00,-2.000000000000000000e+00,0.000000000000000000e+00,-1.000000000000000000e+00,-3.625488281250000000e-01,3.129272460937500000e-01,5.275878906250000000e-01,7.015991210937500000e-01
-3.000000000000000000e+00,-3.000000000000000000e+00,-8.000000000000000000e+00,7.000000000000000000e+00,-2.000000000000000000e+00,-2.000000000000000000e+00,0.000000000000000000e+00,-1.000000000000000000e+00,-3.625488281250000000e-01,3.129272460937500000e-01,5.275878906250000000e-01,7.015991210937500000e-01
1.000000000000000000e+00,1.000000000000000000e+00,-6.000000000000000000e+00,-6.000000000000000000e+00,7.000000000000000000e+00,2.000000000000000000e+00,-1.000000000000000000e+00,-1.000000000000000000e+00,-3.625488281250000000e-01,3.129272460937500000e-01,5.275878906250000000e-01,7.015991210937500000e-01
-3.000000000000000000e+00,-4.000000000000000000e+00,-1.100000000000000000e+01,-7.000000000000000000e+00,-2.000000000000000000e+00,0.000000000000000000e+00,-3.000000000000000000e+00,-2.000000000000000000e+00,-3.629150390625000000e-01,3.132934570312500000e-01,5.274658203125000000e-01,7.012939453125000000e-01
-3.000000000000000000e+00,0.000000000000000000e+00,9.000000000000000000e+00,4.000000000000000000e+00,-2.000000000000000000e+00,-2.000000000000000000e+00,-4.000000000000000000e+00,0.000000000000000000e+00,-3.629150390625000000e-01,3.132934570312500000e-01,5.274658203125000000e-01,7.012939453125000000e-01
-1.000000000000000000e+00,-1.000000000000000000e+00,4.000000000000000000e+00,4.000000000000000000e+00,1.000000000000000000e+00,1.000000000000000000e+00,0.000000000000000000e+00,-1.000000000000000000e+00,-3.629150390625000000e-01,3.132934570312500000e-01,5.274658203125000000e-01,7.012939453125000000e-01
-1.000000000000000000e+00,1.000000000000000000e+00,7.000000000000000000e+00,-1.000000000000000000e+00,-1.000000000000000000e+00,-3.000000000000000000e+00,1.000000000000000000e+00,-2.000000000000000000e+00,-3.629150390625000000e-01,3.132934570312500000e-01,5.274658203125000000e-01,7.012939453125000000e-01
2.000000000000000000e+00,0.000000000000000000e+00,-6.000000000000000000e+00,-1.000000000000000000e+01,-8.000000000000000000e+00,-3.000000000000000000e+00,0.000000000000000000e+00,0.000000000000000000e+00,-3.631591796875000000e-01,3.135986328125000000e-01,5.272827148437500000e-01,7.011718750000000000e-01
-2.000000000000000000e+00,-4.000000000000000000e+00,9.000000000000000000e+00,7.000000000000000000e+00,2.000000000000000000e+00,0.000000000000000000e+00,0.000000000000000000e+00,-1.000000000000000000e+00,-3.631591796875000000e-01,3.135986328125000000e-01,5.272827148437500000e-01,7.011718750000000000e-01
0.000000000000000000e+00,-1.000000000000000000e+00,8.000000000000000000e+00,4.000000000000000000e+00,8.000000000000000000e+00,0.000000000000000000e+00,-1.000000000000000000e+00,0.000000000000000000e+00,-3.631591796875000000e-01,3.135986328125000000e-01,5.272827148437500000e-01,7.011718750000000000e-01
-1.000000000000000000e+00,-2.000000000000000000e+00,2.000000000000000000e+00,4.000000000000000000e+00,2.000000000000000000e+00,-1.000000000000000000e+00,0.000000000000000000e+00,-2.000000000000000000e+00,-3.631591796875000000e-01,3.135986328125000000e-01,5.272827148437500000e-01,7.011718750000000000e-01
0.000000000000000000e+00,-2.000000000000000000e+00,-1.000000000000000000e+00,-7.000000000000000000e+00,-5.000000000000000000e+00,-3.000000000000000000e+00,0.000000000000000000e+00,-2.000000000000000000e+00,-3.635864257812500000e-01,3.137817382812500000e-01,5.271606445312500000e-01,7.009887695312500000e-01
-1.000000000000000000e+00,1.000000000000000000e+00,1.000000000000000000e+00,3.000000000000000000e+00,-3.000000000000000000e+00,0.000000000000000000e+00,-1.000000000000000000e+00,-1.000000000000000000e+00,-3.635864257812500000e-01,3.137817382812500000e-01,5.271606445312500000e-01,7.009887695312500000e-01
-3.000000000000000000e+00,-1.200000000000000000e+01,-3.300000000000000000e+01,-1.700000000000000000e+01,-5.000000000000000000e+00,0.000000000000000000e+00,1.000000000000000000e+00,-3.000000000000000000e+00,-3.635864257812500000e-01,3.137817382812500000e-01,5.271606445312500000e-01,7.009887695312500000e-01
0.000000000000000000e+00,1.000000000000000000e+00,4.000000000000000000e+00,1.000000000000000000e+00,-1.000000000000000000e+00,-1.000000000000000000e+00,-1.000000000000000000e+00,-1.000000000000000000e+00,-3.635864257812500000e-01,3.137817382812500000e-01,5.271606445312500000e-01,7.009887695312500000e-01
0.000000000000000000e+00,1.000000000000000000e+00,1.500000000000000000e+01,6.000000000000000000e+00,1.000000000000000000e+00,1.000000000000000000e+00,0.000000000000000000e+00,1.000000000000000000e+00,-3.641967773437500000e-01,3.137817382812500000e-01,5.270996093750000000e-01,7.007446289062500000e-01
-2.000000000000000000e+00,-3.000000000000000000e+00,-1.900000000000000000e+01,-3.000000000000000000e+00,-5.000000000000000000e+00,-3.000000000000000000e+00,-2.000000000000000000e+00,0.000000000000000000e+00,-3.641967773437500000e-01,3.137817382812500000e-01,5.270996093750000000e-01,7.007446289062500000e-01
1.000000000000000000e+00,2.000000000000000000e+00,-1.300000000000000000e+01,-6.000000000000000000e+00,-3.000000000000000000e+00,-1.000000000000000000e+00,-2.000000000000000000e+00,-1.000000000000000000e+00,-3.641967773437500000e-01,3.137817382812500000e-01,5.270996093750000000e-01,7.007446289062500000e-01
-1.000000000000000000e+00,-2.000000000000000000e+00,5.000000000000000000e+00,-8.000000000000000000e+00,-5.000000000000000000e+00,-1.000000000000000000e+00,-2.000000000000000000e+00,0.000000000000000000e+00,-3.641967773437500000e-01,3.137817382812500000e-01,5.270996093750000000e-01,7.007446289062500000e-01
-1.000000000000000000e+00,-2.000000000000000000e+00,8.000000000000000000e+00,5.000000000000000000e+00,0.000000000000000000e+00,0.000000000000000000e+00,-2.000000000000000000e+00,0.000000000000000000e+00,-3.648071289062500000e-01,3.135986328125000000e-01,5.269165039062500000e-01,7.005615234375000000e-01
-2.000000000000000000e+00,0.000000000000000000e+00,9.000000000000000000e+00,1.000000000000000000e+00,1.000000000000000000e+00,-2.000000000000000000e+00,-3.000000000000000000e+00,-2.000000000000000000e+00,-3.648071289062500000e-01,3.135986328125000000e-01,5.269165039062500000e-01,7.005615234375000000e-01
-3.000000000000000000e+00,-1.000000000000000000e+00,-1.000000000000000000e+01,2.000000000000000000e+00,0.000000000000000000e+00,0.000000000000000000e+00,-1.000000000000000000e+00,-1.000000000000000000e+00,-3.648071289062500000e-01,3.135986328125000000e-01,5.269165039062500000e-01,7.005615234375000000e-01
-1.000000000000000000e+00,-1.000000000000000000e+00,-5.000000000000000000e+00,-3.000000000000000000e+00,-4.000000000000000000e+00,-2.000000000000000000e+00,-2.000000000000000000e+00,-1.000000000000000000e+00,-3.648071289062500000e-01,3.135986328125000000e-01,5.269165039062500000e-01,7.005615234375000000e-01
-1.000000000000000000e+00,2.000000000000000000e+00,9.000000000000000000e+00,-4.000000000000000000e+00,-9.000000000000000000e+00,-2.000000000000000000e+00,-3.000000000000000000e+00,-1.000000000000000000e+00,-3.648071289062500000e-01,3.135986328125000000e-01,5.269165039062500000e-01,7.005615234375000000e-01
-1.000000000000000000e+00,-5.000000000000000000e+00,-2.700000000000000000e+01,7.000000000000000000e+00,2.600000000000000000e+01,8.000000000000000000e+00,2.000000000000000000e+00,0.000000000000000000e+00,-3.648071289062500000e-01,3.135986328125000000e-01,5.269165039062500000e-01,7.005615234375000000e-01
2.000000000000000000e+00,2.000000000000000000e+00,1.500000000000000000e+01,-1.000000000000000000e+00,-3.000000000000000000e+00,-1.000000000000000000e+00,-2.000000000000000000e+00,1.000000000000000000e+00,-3.648071289062500000e-01,3.135986328125000000e-01,5.269165039062500000e-01,7.005615234375000000e-01
-1.000000000000000000e+00,1.000000000000000000e+00,6.000000000000000000e+00,5.000000000000000000e+00,3.000000000000000000e+00,-1.000000000000000000e+00,-1.000000000000000000e+00,0.000000000000000000e+00,-3.648071289062500000e-01,3.135986328125000000e-01,5.269165039062500000e-01,7.005615234375000000e-01
0.000000000000000000e+00,-2.000000000000000000e+00,4.000000000000000000e+00,0.000000000000000000e+00,-2.000000000000000000e+00,-3.000000000000000000e+00,-2.000000000000000000e+00,-1.000000000000000000e+00,-3.646240234375000000e-01,3.137207031250000000e-01,5.268554687500000000e-01,7.006835937500000000e-01
-2.000000000000000000e+00,-3.000000000000000000e+00,-5.000000000000000000e+00,-1.200000000000000000e+01,-1.200000000000000000e+01,-4.000000000000000000e+00,-2.000000000000000000e+00,-1.000000000000000000e+00,-3.646240234375000000e-01,3.137207031250000000e-01,5.268554687500000000e-01,7.006835937500000000e-01
-3.000000000000000000e+00,0.000000000000000000e+00,-1.000000000000000000e+01,3.000000000000000000e+00,3.000000000000000000e+00,1.000000000000000000e+00,-1.000000000000000000e+00,-2.000000000000000000e+00,-3.646240234375000000e-01,3.137207031250000000e-01,5.268554687500000000e-01,7.006835937500000000e-01
-1.000000000000000000e+00,-1.000000000000000000e+00,-6.000000000000000000e+00,2.000000000000000000e+00,-1.000000000000000000e+00,-1.000000000000000000e+00,-1.000000000000000000e+00,-1.000000000000000000e+00,-3.646240234375000000e-01,3.137207031250000000e-01,5.268554687500000000e-01,7.006835937500000000e-01
-2.000000000000000000e+00,0.000000000000000000e+00,-4.000000000000000000e+00,4.000000000000000000e+00,6.000000000000000000e+00,2.000000000000000000e+00,-1.000000000000000000e+00,-1.000000000000000000e+00,-3.648681640625000000e-01,3.133544921875000000e-01,5.269165039062500000e-01,7.006835937500000000e-01
0.000000000000000000e+00,-1.000000000000000000e+00,1.100000000000000000e+01,-5.000000000000000000e+00,-5.000000000000000000e+00,-2.000000000000000000e+00,-1.000000000000000000e+00,-1.000000000000000000e+00,-3.648681640625000000e-01,3.133544921875000000e-01,5.269165039062500000e-01,7.006835937500000000e-01
1.000000000000000000e+00,-2.000000000000000000e+00,-2.100000000000000000e+01,-5.000000000000000000e+00,-6.000000000000000000e+00,-2.000000000000000000e+00,-2.000000000000000000e+00,-2.000000000000000000e+00,-3.648681640625000000e-01,3.133544921875000000e-01,5.269165039062500000e-01,7.006835937500000000e-01
-2.000000000000000000e+00,-5.000000000000000000e+00,2.000000000000000000e+00,7.000000000000000000e+00,1.100000000000000000e+01,2.000000000000000000e+00,0.000000000000000000e+00,-2.000000000000000000e+00,-3.648681640625000000e-01,3.133544921875000000e-01,5.269165039062500000e-01,7.006835937500000000e-01
-1.000000000000000000e+00,1.000000000000000000e+00,-4.000000000000000000e+00,-6.000000000000000000e+00,1.000000000000000000e+00,-1.000000000000000000e+00,-2.000000000000000000e+00,-3.000000000000000000e+00,-3.648681640625000000e-01,3.130493164062500000e-01,5.270996093750000000e-01,7.006835937500000000e-01
-1.000000000000000000e+00,1.000000000000000000e+00,2.200000000000000000e+01,2.000000000000000000e+00,-6.000000000000000000e+00,-2.000000000000000000e+00,-1.000000000000000000e+00,0.000000000000000000e+00,-3.648681640625000000e-01,3.130493164062500000e-01,5.270996093750000000e-01,7.006835937500000000e-01
-3.000000000000000000e+00,-6.000000000000000000e+00,-2.900000000000000000e+01,-9.000000000000000000e+00,-2.000000000000000000e+00,-2.000000000000000000e+00,-1.000000000000000000e+00,1.000000000000000000e+00,-3.648681640625000000e-01,3.130493164062500000e-01,5.270996093750000000e-01,7.006835937500000000e-01
1.000000000000000000e+00,-1.000000000000000000e+00,-3.000000000000000000e+00,-7.000000000000000000e+00,-6.000000000000000000e+00,-1.000000000000000000e+00,-1.000000000000000000e+00,1.000000000000000000e+00,-3.648681640625000000e-01,3.130493164062500000e-01,5.270996093750000000e-01,7.006835937500000000e-01
0.000000000000000000e+00,1.000000000000000000e+00,1.100000000000000000e+01,1.400000000000000000e+01,5.000000000000000000e+00,3.000000000000000000e+00,1.000000000000000000e+00,0.000000000000000000e+00,-3.646240234375000000e-01,3.125610351562500000e-01,5.273437500000000000e-01,7.008666992187500000e-01
-1.000000000000000000e+00,-2.000000000000000000e+00,-1.200000000000000000e+01,-1.000000000000000000e+01,-4.000000000000000000e+00,-3.000000000000000000e+00,0.000000000000000000e+00,-2.000000000000000000e+00,-3.646240234375000000e-01,3.125610351562500000e-01,5.273437500000000000e-01,7.008666992187500000e-01
0.000000000000000000e+00,3.000000000000000000e+00,2.700000000000000000e+01,1.000000000000000000e+01,3.000000000000000000e+00,-1.000000000000000000e+00,-1.000000000000000000e+00,-2.000000000000000000e+00,-3.646240234375000000e-01,3.125610351562500000e-01,5.273437500000000000e-01,7.008666992187500000e-01
-3.000000000000000000e+00,-2.000000000000000000e+00,-3.000000000000000000e+00,0.000000000000000000e+00,-6.000000000000000000e+00,-3.000000000000000000e+00,0.000000000000000000e+00,1.000000000000000000e+00,-3.646240234375000000e-01,3.125610351562500000e-01,5.273437500000000000e-01,7.008666992187500000e-01
-1.000000000000000000e+00,-2.000000000000000000e+00,-1.600000000000000000e+01,-7.000000000000000000e+00,2.000000000000000000e+00,-1.000000000000000000e+00,1.000000000000000000e+00,0.000000000000000000e+00,-3.640136718750000000e-01,3.120727539062500000e-01,5.280151367187500000e-01,7.008666992187500000e-01
-1.000000000000000000e+00,-1.000000000000000000e+00,7.000000000000000000e+00,-6.000000000000000000e+00,-1.200000000000000000e+01,-1.000000000000000000e+00,-1.000000000000000000e+00,-2.000000000000000000e+00,-3.640136718750000000e-01,3.120727539062500000e-01,5.280151367187500000e-01,7.008666992187500000e-01
-1.000000000000000000e+00,3.000000000000000000e+00,0.000000000000000000e+00,7.000000000000000000e+00,8.000000000000000000e+00,5.000000000000000000e+00,2.000000000000000000e+00,-1.000000000000000000e+00,-3.640136718750000000e-01,3.120727539062500000e-01,5.280151367187500000e-01,7.008666992187500000e-01
-3.000000000000000000e+00,-2.000000000000000000e+00,7.000000000000000000e+00,-6.000000000000000000e+00,-6.000000000000000000e+00,-3.000000000000000000e+00,-4.000000000000000000e+00,-2.000000000000000000e+00,-3.640136718750000000e-01,3.120727539062500000e-01,5.280151367187500000e-01,7.008666992187500000e-01
-1.000000000000000000e+00,0.000000000000000000e+00,1.000000000000000000e+00,0.000000000000000000e+00,0.000000000000000000e+00,-1.000000000000000000e+00,-3.000000000000000000e+00,-2.000000000000000000e+00,-3.633422851562500000e-01,3.115234375000000000e-01,5.289306640625000000e-01,7.007446289062500000e-01
-2.000000000000000000e+00,-2.000000000000000000e+00,-5.000000000000000000e+00,-6.000000000000000000e+00,-7.000000000000000000e+00,-1.000000000000000000e+00,-1.000000000000000000e+00,0.000000000000000000e+00,-3.633422851562500000e-01,3.115234375000000000e-01,5.289306640625000000e-01,7.007446289062500000e-01
0.000000000000000000e+00,-5.000000000000000000e+00,-5.000000000000000000e+00,-1.000000000000000000e+00,-4.000000000000000000e+00,-1.000000000000000000e+00,-1.000000000000000000e+00,-1.000000000000000000e+00,-3.633422851562500000e-01,3.115234375000000000e-01,5.289306640625000000e-01,7.007446289062500000e-01
0.000000000000000000e+00,-1.000000000000000000e+00,-9.000000000000000000e+00,2.000000000000000000e+00,0.000000000000000000e+00,1.000000000000000000e+00,0.000000000000000000e+00,-1.000000000000000000e+00,-3.633422851562500000e-01,3.115234375000000000e-01,5.289306640625000000e-01,7.007446289062500000e-01
0.000000000000000000e+00,-2.000000000000000000e+00,0.000000000000000000e+00,-6.000000000000000000e+00,-1.000000000000000000e+00,-1.000000000000000000e+00,0.000000000000000000e+00,0.000000000000000000e+00,-3.632202148437500000e-01,3.110351562500000000e-01,5.299682617187500000e-01,7.002563476562500000e-01
1.000000000000000000e+00,2.000000000000000000e+00,9.000000000000000000e+00,5.000000000000000000e+00,-1.000000000000000000e+00,-2.000000000000000000e+00,-1.000000000000000000e+00,-2.000000000000000000e+00,-3.632202148437500000e-01,3.110351562500000000e-01,5.299682617187500000e-01,7.002563476562500000e-01
-2.000000000000000000e+00,-2.000000000000000000e+00,-3.000000000000000000e+00,2.000000000000000000e+00,-1.000000000000000000e+00,-1.000000000000000000e+00,-2.000000000000000000e+00,0.000000000000000000e+00,-3.632202148437500000e-01,3.110351562500000000e-01,5.299682617187500000e-01,7.002563476562500000e-01
2.000000000000000000e+00,2.000000000000000000e+00,1.600000000000000000e+01,-7.000000000000000000e+00,2.000000000000000000e+00,2.000000000000000000e+00,-1.000000000000000000e+00,-2.000000000000000000e+00,-3.632202148437500000e-01,3.110351562500000000e-01,5.299682617187500000e-01,7.002563476562500000e-01
-1.000000000000000000e+00,-2.000000000000000000e+00,-2.500000000000000000e+01,1.000000000000000000e+00,3.000000000000000000e+00,-1.000000000000000000e+00,-2.000000000000000000e+00,-1.000000000000000000e+00,-3.632202148437500000e-01,3.106689453125000000e-01,5.307006835937500000e-01,6.998901367187500000e-01
0.000000000000000000e+00,3.000000000000000000e+00,6.000000000000000000e+00,2.000000000000000000e+00,-1.000000000000000000e+00,2.000000000000000000e+00,2.000000000000000000e+00,0.000000000000000000e+00,-3.632202148437500000e-01,3.106689453125000000e-01,5.307006835937500000e-01,6.998901367187500000e-01
-2.000000000000000000e+00,2.000000000000000000e+00,2.000000000000000000e+01,-2.000000000000000000e+00,-1.000000000000000000e+00,-3.000000000000000000e+00,-1.000000000000000000e+00,-1.000000000000000000e+00,-3.632202148437500000e-01,3.106689453125000000e-01,5.307006835937500000e-01,6.998901367187500000e-01
-3.000000000000000000e+00,-2.000000000000000000e+00,4.000000000000000000e+00,5.000000000000000000e+00,0.000000000000000000e+00,-1.000000000000000000e+00,-1.000000000000000000e+00,-2.000000000000000000e+00,-3.632202148437500000e-01,3.106689453125000000e-01,5.307006835937500000e-01,6.998901367187500000e-01
-2.000000000000000000e+00,-1.000000000000000000e+00,-1.000000000000000000e+01,-5.000000000000000000e+00,-3.000000000000000000e+00,-1.000000000000000000e+00,1.000000000000000000e+00,0.000000000000000000e+00,-3.628540039062500000e-01,3.110961914062500000e-01,5.310668945312500000e-01,6.996459960937500000e-01
1.000000000000000000e+00,3.000000000000000000e+00,9.000000000000000000e+00,5.000000000000000000e+00,3.000000000000000000e+00,-1.000000000000000000e+00,-2.000000000000000000e+00,0.000000000000000000e+00,-3.628540039062500000e-01,3.110961914062500000e-01,5.310668945312500000e-01,6.996459960937500000e-01
1.000000000000000000e+00,0.000000000000000000e+00,-1.000000000000000000e+00,-1.000000000000000000e+00,-1.000000000000000000e+00,-2.000000000000000000e+00,-1.000000000000000000e+00,-2.000000000000000000e+00,-3.628540039062500000e-01,3.110961914062500000e-01,5.310668945312500000e-01,6.996459960937500000e-01
-1.000000000000000000e+00,-3.000000000000000000e+00,-3.000000000000000000e+01,-1.000000000000000000e+01,-4.000000000000000000e+00,-2.000000000000000000e+00,-1.000000000000000000e+00,-2.000000000000000000e+00,-3.628540039062500000e-01,3.110961914062500000e-01,5.310668945312500000e-01,6.996459960937500000e-01
0.000000000000000000e+00,-1.000000000000000000e+00,9.000000000000000000e+00,-6.000000000000000000e+00,-2.000000000000000000e+00,1.000000000000000000e+00,1.000000000000000000e+00,0.000000000000000000e+00,-3.623657226562500000e-01,3.118896484375000000e-01,5.313110351562500000e-01,6.993408203125000000e-01
-4.000000000000000000e+00,-4.000000000000000000e+00,-1.200000000000000000e+01,3.000000000000000000e+00,-7.000000000000000000e+00,-1.000000000000000000e+00,-1.000000000000000000e+00,-3.000000000000000000e+00,-3.623657226562500000e-01,3.118896484375000000e-01,5.313110351562500000e-01,6.993408203125000000e-01
0.000000000000000000e+00,4.000000000000000000e+00,2.900000000000000000e+01,1.700000000000000000e+01,6.000000000000000000e+00,1.000000000000000000e+00,-1.000000000000000000e+00,-1.000000000000000000e+00,-3.623657226562500000e-01,3.118896484375000000e-01,5.313110351562500000e-01,6.993408203125000000e-01
-1.000000000000000000e+00,1.000000000000000000e+00,-1.300000000000000000e+01,-5.000000000000000000e+00,-4.000000000000000000e+00,-2.000000000000000000e+00,-1.000000000000000000e+00,-1.000000000000000000e+00,-3.623657226562500000e-01,3.118896484375000000e-01,5.313110351562500000e-01,6.993408203125000000e-01
-2.000000000000000000e+00,-1.000000000000000000e+00,-5.000000000000000000e+00,-2.000000000000000000e+00,1.000000000000000000e+00,-2.000000000000000000e+00,-2.000000000000000000e+00,-1.000000000000000000e+00,-3.617553710937500000e-01,3.127441406250000000e-01,5.315551757812500000e-01,6.990966796875000000e-01
0.000000000000000000e+00,-5.000000000000000000e+00,-1.200000000000000000e+01,0.000000000000000000e+00,6.000000000000000000e+00,-2.000000000000000000e+00,-2.000000000000000000e+00,0.000000000000000000e+00,-3.617553710937500000e-01,3.127441406250000000e-01,5.315551757812500000e-01,6.990966796875000000e-01
0.000000000000000000e+00,1.000000000000000000e+00,2.000000000000000000e+00,-5.000000000000000000e+00,-5.000000000000000000e+00,-1.000000000000000000e+00,-2.000000000000000000e+00,1.000000000000000000e+00,-3.617553710937500000e-01,3.127441406250000000e-01,5.315551757812500000e-01,6.990966796875000000e-01
-2.000000000000000000e+00,-3.000000000000000000e+00,-1.200000000000000000e+01,-6.000000000000000000e+00,-4.000000000000000000e+00,-1.000000000000000000e+00,1.000000000000000000e+00,-2.000000000000000000e+00,-3.617553710937500000e-01,3.127441406250000000e-01,5.315551757812500000e-01,6.990966796875000000e-01
1.000000000000000000e+00,5.000000000000000000e+00,1.100000000000000000e+01,-5.000000000000000000e+00,-6.000000000000000000e+00,-2.000000000000000000e+00,-1.000000000000000000e+00,-1.000000000000000000e+00,-3.615722656250000000e-01,3.132324218750000000e-01,5.316772460937500000e-01,6.988525390625000000e-01
-4.000000000000000000e+00,-1.000000000000000000e+00,-1.300000000000000000e+01,1.000000000000000000e+00,1.000000000000000000e+00,-1.000000000000000000e+00,-2.000000000000000000e+00,-1.000000000000000000e+00,-3.615722656250000000e-01,3.132324218750000000e-01,5.316772460937500000e-01,6.988525390625000000e-01
-1.000000000000000000e+00,-2.000000000000000000e+00,0.000000000000000000e+00,-7.000000000000000000e+00,-2.000000000000000000e+00,0.000000000000000000e+00,1.000000000000000000e+00,0.000000000000000000e+00,-3.615722656250000000e-01,3.132324218750000000e-01,5.316772460937500000e-01,6.988525390625000000e-01
0.000000000000000000e+00,0.000000000000000000e+00,2.000000000000000000e+00,-1.000000000000000000e+00,-1.000000000000000000e+00,-1.000000000000000000e+00,-1.000000000000000000e+00,1.000000000000000000e+00,-3.615722656250000000e-01,3.132324218750000000e-01,5.316772460937500000e-01,6.988525390625000000e-01
-1.000000000000000000e+00,-2.000000000000000000e+00,0.000000000000000000e+00,3.000000000000000000e+00,1.000000000000000000e+00,1.000000000000000000e+00,-2.000000000000000000e+00,-2.000000000000000000e+00,-3.619384765625000000e-01,3.132934570312500000e-01,5.319213867187500000e-01,6.984863281250000000e-01
0.000000000000000000e+00,-1.000000000000000000e+00,-1.000000000000000000e+00,-2.000000000000000000e+00,-4.000000000000000000e+00,-4.000000000000000000e+00,-3.000000000000000000e+00,0.000000000000000000e+00,-3.619384765625000000e-01,3.132934570312500000e-01,5.319213867187500000e-01,6.984863281250000000e-01
-2.000000000000000000e+00,-5.000000000000000000e+00,1.800000000000000000e+01,1.100000000000000000e+01,2.000000000000000000e+00,-2.000000000000000000e+00,-1.000000000000000000e+00,-3.000000000000000000e+00,-3.619384765625000000e-01,3.132934570312500000e-01,5.319213867187500000e-01,6.984863281250000000e-01
-1.000000000000000000e+00,1.000000000000000000e+00,-2.100000000000000000e+01,-8.000000000000000000e+00,3.000000000000000000e+00,2.000000000000000000e+00,0.000000000000000000e+00,0.000000000000000000e+00,-3.619384765625000000e-01,3.132934570312500000e-01,5.319213867187500000e-01,6.984863281250000000e-01
0.000000000000000000e+00,-3.000000000000000000e+00,5.000000000000000000e+00,7.000000000000000000e+00,1.000000000000000000e+00,-2.000000000000000000e+00,-1.000000000000000000e+00,-1.000000000000000000e+00,-3.623657226562500000e-01,3.130493164062500000e-01,5.319213867187500000e-01,6.983642578125000000e-01
-4.000000000000000000e+00,-5.000000000000000000e+00,-3.200000000000000000e+01,-8.000000000000000000e+00,-1.000000000000000000e+00,-1.000000000000000000e+00,-1.000000000000000000e+00,-4.000000000000000000e+00,-3.623657226562500000e-01,3.130493164062500000e-01,5.319213867187500000e-01,6.983642578125000000e-01
-1.000000000000000000e+00,-2.000000000000000000e+00,-1.000000000000000000e+00,-6.000000000000000000e+00,-6.000000000000000000e+00,-4.000000000000000000e+00,-1.000000000000000000e+00,-1.000000000000000000e+00,-3.623657226562500000e-01,3.130493164062500000e-01,5.319213867187500000e-01,6.983642578125000000e-01
0.000000000000000000e+00,4.000000000000000000e+00,2.700000000000000000e+01,4.000000000000000000e+00,-4.000000000000000000e+00,-3.000000000000000000e+00,0.000000000000000000e+00,-1.000000000000000000e+00,-3.623657226562500000e-01,3.130493164062500000e-01,5.319213867187500000e-01,6.983642578125000000e-01
-2.000000000000000000e+00,-6.000000000000000000e+00,-6.000000000000000000e+00,-6.000000000000000000e+00,-4.000000000000000000e+00,-4.000000000000000000e+00,-2.000000000000000000e+00,-1.000000000000000000e+00,-3.627929687500000000e-01,3.128662109375000000e-01,5.316772460937500000e-01,6.984252929687500000e-01
-1.000000000000000000e+00,-1.000000000000000000e+00,1.000000000000000000e+00,-2.000000000000000000e+00,6.000000000000000000e+00,0.000000000000000000e+00,2.000000000000000000e+00,-1.000000000000000000e+00,-3.627929687500000000e-01,3.128662109375000000e-01,5.316772460937500000e-01,6.984252929687500000e-01
-1.000000000000000000e+00,-2.000000000000000000e+00,-1.100000000000000000e+01,-3.000000000000000000e+00,-3.000000000000000000e+00,-2.000000000000000000e+00,-1.000000000000000000e+00,-2.000000000000000000e+00,-3.627929687500000000e-01,3.128662109375000000e-01,5.316772460937500000e-01,6.984252929687500000e-01
-2.000000000000000000e+00,-2.000000000000000000e+00,0.000000000000000000e+00,1.000000000000000000e+00,3.000000000000000000e+00,-2.000000000000000000e+00,-2.000000000000000000e+00,1.000000000000000000e+00,-3.627929687500000000e-01,3.128662109375000000e-01,5.316772460937500000e-01,6.984252929687500000e-01
0.000000000000000000e+00,1.000000000000000000e+00,1.000000000000000000e+00,1.000000000000000000e+00,-2.000000000000000000e+00,1.000000000000000000e+00,0.000000000000000000e+00,-1.000000000000000000e+00,-3.629150390625000000e-01,3.127441406250000000e-01,5.313110351562500000e-01,6.986694335937500000e-01
0.000000000000000000e+00,1.000000000000000000e+00,1.000000000000000000e+01,-1.000000000000000000e+00,-1.000000000000000000e+00,0.000000000000000000e+00,-1.000000000000000000e+00,0.000000000000000000e+00,-3.629150390625000000e-01,3.127441406250000000e-01,5.313110351562500000e-01,6.986694335937500000e-01
-3.000000000000000000e+00,0.000000000000000000e+00,-9.000000000000000000e+00,-3.000000000000000000e+00,0.000000000000000000e+00,-2.000000000000000000e+00,-2.000000000000000000e+00,-1.000000000000000000e+00,-3.629150390625000000e-01,3.127441406250000000e-01,5.313110351562500000e-01,6.986694335937500000e-01
0.000000000000000000e+00,0.000000000000000000e+00,9.000000000000000000e+00,4.000000000000000000e+00,1.000000000000000000e+00,-2.000000000000000000e+00,-1.000000000000000000e+00,-1.000000000000000000e+00,-3.629150390625000000e-01,3.127441406250000000e-01,5.313110351562500000e-01,6.986694335937500000e-01
-1.000000000000000000e+00,1.000000000000000000e+00,1.000000000000000000e+00,-4.000000000000000000e+00,-9.000000000000000000e+00,-2.000000000000000000e+00,-1.000000000000000000e+00,-1.000000000000000000e+00,-3.624877929687500000e-01,3.128662109375000000e-01,5.309448242187500000e-01,6.990966796875000000e-01
-1.000000000000000000e+00,-3.000000000000000000e+00,1.300000000000000000e+01,2.000000000000000000e+00,5.000000000000000000e+00,2.000000000000000000e+00,0.000000000000000000e+00,0.000000000000000000e+00,-3.624877929687500000e-01,3.128662109375000000e-01,5.309448242187500000e-01,6.990966796875000000e-01
1.000000000000000000e+00,1.000000000000000000e+00,-2.600000000000000000e+01,-4.000000000000000000e+00,6.000000000000000000e+00,4.000000000000000000e+00,-1.000000000000000000e+00,-1.000000000000000000e+00,-3.624877929687500000e-01,3.128662109375000000e-01,5.309448242187500000e-01,6.990966796875000000e-01
0.000000000000000000e+00,0.000000000000000000e+00,0.000000000000000000e+00,3.000000000000000000e+00,-3.000000000000000000e+00,-2.000000000000000000e+00,0.000000000000000000e+00,-1.000000000000000000e+00,-3.624877929687500000e-01,3.128662109375000000e-01,5.309448242187500000e-01,6.990966796875000000e-01
0.000000000000000000e+00,-3.000000000000000000e+00,1.000000000000000000e+00,5.000000000000000000e+00,2.000000000000000000e+00,-1.000000000000000000e+00,1.000000000000000000e+00,0.000000000000000000e+00,-3.624267578125000000e-01,3.128051757812500000e-01,5.307006835937500000e-01,6.993408203125000000e-01
-1.000000000000000000e+00,-2.000000000000000000e+00,-9.000000000000000000e+00,-1.000000000000000000e+01,-4.000000000000000000e+00,-1.000000000000000000e+00,-1.000000000000000000e+00,-2.000000000000000000e+00,-3.624267578125000000e-01,3.128051757812500000e-01,5.307006835937500000e-01,6.993408203125000000e-01
-1.000000000000000000e+00,-2.000000000000000000e+00,4.000000000000000000e+00,0.000000000000000000e+00,-6.000000000000000000e+00,-3.000000000000000000e+00,-2.000000000000000000e+00,2.000000000000000000e+00,-3.624267578125000000e-01,3.128051757812500000e-01,5.307006835937500000e-01,6.993408203125000000e-01
0.000000000000000000e+00,1.000000000000000000e+00,1.500000000000000000e+01,3.000000000000000000e+00,3.000000000000000000e+00,-1.000000000000000000e+00,0.000000000000000000e+00,-2.000000000000000000e+00,-3.624267578125000000e-01,3.128051757812500000e-01,5.307006835937500000e-01,6.993408203125000000e-01
-1.000000000000000000e+00,0.000000000000000000e+00,-1.400000000000000000e+01,-1.000000000000000000e+00,-8.000000000000000000e+00,0.000000000000000000e+00,-2.000000000000000000e+00,-1.000000000000000000e+00,-3.626708984375000000e-01,3.123168945312500000e-01,5.307617187500000000e-01,6.994018554687500000e-01
0.000000000000000000e+00,-1.000000000000000000e+00,3.000000000000000000e+00,-1.000000000000000000e+00,1.200000000000000000e+01,0.000000000000000000e+00,1.000000000000000000e+00,0.000000000000000000e+00,-3.626708984375000000e-01,3.123168945312500000e-01,5.307617187500000000e-01,6.994018554687500000e-01
0.000000000000000000e+00,0.000000000000000000e+00,4.000000000000000000e+00,6.000000000000000000e+00,-1.000000000000000000e+00,-1.000000000000000000e+00,-1.000000000000000000e+00,-2.000000000000000000e+00,-3.626708984375000000e-01,3.123168945312500000e-01,5.307617187500000000e-01,6.994018554687500000e-01
0.000000000000000000e+00,-3.000000000000000000e+00,8.000000000000000000e+00,0.000000000000000000e+00,-3.000000000000000000e+00,-2.000000000000000000e+00,-2.000000000000000000e+00,0.000000000000000000e+00,-3.626708984375000000e-01,3.123168945312500000e-01,5.307617187500000000e-01,6.994018554687500000e-01
-1.000000000000000000e+00,-2.000000000000000000e+00,-2.000000000000000000e+00,-1.000000000000000000e+00,1.000000000000000000e+00,-4.000000000000000000e+00,0.000000000000000000e+00,-1.000000000000000000e+00,-3.624267578125000000e-01,3.119506835937500000e-01,5.307006835937500000e-01,6.997070312500000000e-01
0.000000000000000000e+00,3.000000000000000000e+00,-1.500000000000000000e+01,-1.100000000000000000e+01,-1.300000000000000000e+01,-1.000000000000000000e+00,-1.000000000000000000e+00,-2.000000000000000000e+00,-3.624267578125000000e-01,3.119506835937500000e-01,5.307006835937500000e-01,6.997070312500000000e-01
-3.000000000000000000e+00,0.000000000000000000e+00,3.000000000000000000e+00,0.000000000000000000e+00,-2.000000000000000000e+00,-3.000000000000000000e+00,-1.000000000000000000e+00,-1.000000000000000000e+00,-3.624267578125000000e-01,3.119506835937500000e-01,5.307006835937500000e-01,6.997070312500000000e-01
-2.000000000000000000e+00,-4.000000000000000000e+00,3.000000000000000000e+00,5.000000000000000000e+00,2.000000000000000000e+00,3.000000000000000000e+00,0.000000000000000000e+00,0.000000000000000000e+00,-3.624267578125000000e-01,3.119506835937500000e-01,5.307006835937500000e-01,6.997070312500000000e-01
-1.000000000000000000e+00,0.000000000000000000e+00,1.000000000000000000e+00,-4.000000000000000000e+00,0.000000000000000000e+00,-1.000000000000000000e+00,-1.000000000000000000e+00,0.000000000000000000e+00,-3.619995117187500000e-01,3.118286132812500000e-01,5.306396484375000000e-01,7.000122070312500000e-01
-1.000000000000000000e+00,0.000000000000000000e+00,4.000000000000000000e+00,4.000000000000000000e+00,-5.000000000000000000e+00,-2.000000000000000000e+00,-2.000000000000000000e+00,0.000000000000000000e+00,-3.619995117187500000e-01,3.118286132812500000e-01,5.306396484375000000e-01,7.000122070312500000e-01
-1.000000000000000000e+00,0.000000000000000000e+00,1.400000000000000000e+01,-4.000000000000000000e+00,1.000000000000000000e+00,0.000000000000000000e+00,1.000000000000000000e+00,1.000000000000000000e+00,-3.619995117187500000e-01,3.118286132812500000e-01,5.306396484375000000e-01,7.000122070312500000e-01
-2.000000000000000000e+00,0.000000000000000000e+00,-1.600000000000000000e+01,-7.000000000000000000e+00,-8.000000000000000000e+00,-3.000000000000000000e+00,-3.000000000000000000e+00,-2.000000000000000000e+00,-3.619995117187500000e-01,3.118286132812500000e-01,5.306396484375000000e-01,7.000122070312500000e-01
-1.000000000000000000e+00,0.000000000000000000e+00,-7.000000000000000000e+00,-5.000000000000000000e+00,2.000000000000000000e+00,2.000000000000000000e+00,-2.000000000000000000e+00,-3.000000000000000000e+00,-3.619995117187500000e-01,3.118286132812500000e-01,5.307006835937500000e-01,7.000122070312500000e-01
1.000000000000000000e+00,-2.000000000000000000e+00,-4.000000000000000000e+00,3.000000000000000000e+00,1.000000000000000000e+00,-1.000000000000000000e+00,-1.000000000000000000e+00,-2.000000000000000000e+00,-3.619995117187500000e-01,3.118286132812500000e-01,5.307006835937500000e-01,7.000122070312500000e-01
-1.000000000000000000e+00,-2.000000000000000000e+00,1.200000000000000000e+01,6.000000000000000000e+00,-1.000000000000000000e+00,0.000000000000000000e+00,-1.000000000000000000e+00,-2.000000000000000000e+00,-3.619995117187500000e-01,3.118286132812500000e-01,5.307006835937500000e-01,7.000122070312500000e-01
0.000000000000000000e+00,-1.000000000000000000e+00,-1.100000000000000000e+01,-3.000000000000000000e+00,1.000000000000000000e+00,-1.000000000000000000e+00,0.000000000000000000e+00,0.000000000000000000e+00,-3.619995117187500000e-01,3.118286132812500000e-01,5.307006835937500000e-01,7.000122070312500000e-01
-1.000000000000000000e+00,-5.000000000000000000e+00,1.000000000000000000e+00,1.000000000000000000e+00,-1.000000000000000000e+00,-3.000000000000000000e+00,-2.000000000000000000e+00,0.000000000000000000e+00,-3.620605468750000000e-01,3.115234375000000000e-01,5.309448242187500000e-01,6.999511718750000000e-01
1.000000000000000000e+00,6.000000000000000000e+00,9.000000000000000000e+00,-8.000000000000000000e+00,-9.000000000000000000e+00,-3.000000000000000000e+00,-2.000000000000000000e+00,1.000000000000000000e+00,-3.620605468750000000e-01,3.115234375000000000e-01,5.309448242187500000e-01,6.999511718750000000e-01
0.000000000000000000e+00,1.000000000000000000e+00,-2.100000000000000000e+01,-2.000000000000000000e+00,-6.000000000000000000e+00,1.000000000000000000e+00,-1.000000000000000000e+00,0.000000000000000000e+00,-3.620605468750000000e-01,3.115234375000000000e-01,5.309448242187500000e-01,6.999511718750000000e-01
-2.000000000000000000e+00,-4.000000000000000000e+00,-9.000000000000000000e+00,7.000000000000000000e+00,1.300000000000000000e+01,1.000000000000000000e+00,0.000000000000000000e+00,0.000000000000000000e+00,-3.620605468750000000e-01,3.115234375000000000e-01,5.309448242187500000e-01,6.999511718750000000e-01
0.000000000000000000e+00,0.000000000000000000e+00,0.000000000000000000e+00,-3.000000000000000000e+00,0.000000000000000000e+00,0.000000000000000000e+00,0.000000000000000000e+00,0.000000000000000000e+00,-3.621826171875000000e-01,3.112182617187500000e-01,5.311279296875000000e-01,6.998291015625000000e-01
-1.000000000000000000e+00,1.000000000000000000e+00,9.000000000000000000e+00,4.000000000000000000e+00,-1.000000000000000000e+00,-1.000000000000000000e+00,-2.000000000000000000e+00,-2.000000000000000000e+00,-3.621826171875000000e-01,3.112182617187500000e-01,5.311279296875000000e-01,6.998291015625000000e-01
-2.000000000000000000e+00,-1.000000000000000000e+00,-7.000000000000000000e+00,-1.500000000000000000e+01,-9.000000000000000000e+00,-2.000000000000000000e+00,-1.000000000000000000e+00,-1.000000000000000000e+00,-3.621826171875000000e-01,3.112182617187500000e-01,5.311279296875000000e-01,6.998291015625000000e-01
-1.000000000000000000e+00,0.000000000000000000e+00,7.000000000000000000e+00,0.000000000000000000e+00,-5.000000000000000000e+00,-1.000000000000000000e+00,-1.000000000000000000e+00,-1.000000000000000000e+00,-3.621826171875000000e-01,3.112182617187500000e-01,5.311279296875000000e-01,6.998291015625000000e-01
1.000000000000000000e+00,2.000000000000000000e+00,-1.000000000000000000e+00,6.000000000000000000e+00,6.000000000000000000e+00,2.000000000000000000e+00,0.000000000000000000e+00,-2.000000000000000000e+00,-3.625488281250000000e-01,3.109130859375000000e-01,5.311889648437500000e-01,6.997680664062500000e-01
-3.000000000000000000e+00,-7.000000000000000000e+00,8.000000000000000000e+00,-7.000000000000000000e+00,-6.000000000000000000e+00,-4.000000000000000000e+00,-1.000000000000000000e+00,-2.000000000000000000e+00,-3.625488281250000000e-01,3.109130859375000000e-01,5.311889648437500000e-01,6.997680664062500000e-01
2.000000000000000000e+00,2.000000000000000000e+00,1.100000000000000000e+01,4.000000000000000000e+00,4.000000000000000000e+00,1.000000000000000000e+00,0.000000000000000000e+00,1.000000000000000000e+00,-3.625488281250000000e-01,3.109130859375000000e-01,5.311889648437500000e-01,6.997680664062500000e-01
-1.000000000000000000e+00,-2.000000000000000000e+00,-2.400000000000000000e+01,-1.000000000000000000e+01,-7.000000000000000000e+00,-3.000000000000000000e+00,0.000000000000000000e+00,-2.000000000000000000e+00,-3.625488281250000000e-01,3.109130859375000000e-01,5.311889648437500000e-01,6.997680664062500000e-01
-1.000000000000000000e+00,1.000000000000000000e+00,8.000000000000000000e+00,6.000000000000000000e+00,3.000000000000000000e+00,1.000000000000000000e+00,-1.000000000000000000e+00,0.000000000000000000e+00,-3.625488281250000000e-01,3.109741210937500000e-01,5.311889648437500000e-01,6.997680664062500000e-01
0.000000000000000000e+00,-2.000000000000000000e+00,-7.000000000000000000e+00,-3.000000000000000000e+00,-3.000000000000000000e+00,2.000000000000000000e+00,2.000000000000000000e+00,1.000000000000000000e+00,-3.625488281250000000e-01,3.109741210937500000e-01,5.311889648437500000e-01,6.997680664062500000e-01
-2.000000000000000000e+00,-4.000000000000000000e+00,-8.000000000000000000e+00,2.000000000000000000e+00,1.000000000000000000e+01,0.000000000000000000e+00,-1.000000000000000000e+00,-1.000000000000000000e+00,-3.625488281250000000e-01,3.109741210937500000e-01,5.311889648437500000e-01,6.997680664062500000e-01
0.000000000000000000e+00,2.000000000000000000e+00,8.000000000000000000e+00,-1.000000000000000000e+00,1.000000000000000000e+00,0.000000000000000000e+00,0.000000000000000000e+00,-1.000000000000000000e+00,-3.625488281250000000e-01,3.109741210937500000e-01,5.311889648437500000e-01,6.997680664062500000e-01
1.000000000000000000e+00,1.000000000000000000e+00,9.000000000000000000e+00,7.000000000000000000e+00,-4.000000000000000000e+00,-1.000000000000000000e+00,-1.000000000000000000e+00,-2.000000000000000000e+00,-3.627319335937500000e-01,3.109130859375000000e-01,5.311279296875000000e-01,6.997070312500000000e-01
-3.000000000000000000e+00,-5.000000000000000000e+00,-8.000000000000000000e+00,-1.300000000000000000e+01,-7.000000000000000000e+00,-4.000000000000000000e+00,-2.000000000000000000e+00,-1.000000000000000000e+00,-3.627319335937500000e-01,3.109130859375000000e-01,5.311279296875000000e-01,6.997070312500000000e-01
0.000000000000000000e+00,1.000000000000000000e+00,-4.000000000000000000e+00,2.000000000000000000e+00,8.000000000000000000e+00,-1.000000000000000000e+00,-1.000000000000000000e+00,-2.000000000000000000e+00,-3.627319335937500000e-01,3.109130859375000000e-01,5.311279296875000000e-01,6.997070312500000000e-01
-1.000000000000000000e+00,-1.000000000000000000e+00,2.500000000000000000e+01,1.000000000000000000e+00,-7.000000000000000000e+00,-2.000000000000000000e+00,-1.000000000000000000e+00,-1.000000000000000000e+00,-3.627319335937500000e-01,3.109130859375000000e-01,5.311279296875000000e-01,6.997070312500000000e-01
-1.000000000000000000e+00,-4.000000000000000000e+00,-2.200000000000000000e+01,-6.000000000000000000e+00,1.000000000000000000e+00,-1.000000000000000000e+00,-2.000000000000000000e+00,-1.000000000000000000e+00,-3.630371093750000000e-01,3.106079101562500000e-01,5.312500000000000000e-01,6.995849609375000000e-01
-1.000000000000000000e+00,0.000000000000000000e+00,4.000000000000000000e+00,8.000000000000000000e+00,0.000000000000000000e+00,-1.000000000000000000e+00,-1.000000000000000000e+00,-1.000000000000000000e+00,-3.630371093750000000e-01,3.106079101562500000e-01,5.312500000000000000e-01,6.995849609375000000e-01
-3.000000000000000000e+00,-4.000000000000000000e+00,-7.000000000000000000e+00,-7.000000000000000000e+00,3.000000000000000000e+00,-2.000000000000000000e+00,-2.000000000000000000e+00,-1.000000000000000000e+00,-3.630371093750000000e-01,3.106079101562500000e-01,5.312500000000000000e-01,6.995849609375000000e-01
-1.000000000000000000e+00,0.000000000000000000e+00,-9.000000000000000000e+00,0.000000000000000000e+00,3.000000000000000000e+00,1.000000000000000000e+00,0.000000000000000000e+00,1.000000000000000000e+00,-3.630371093750000000e-01,3.106079101562500000e-01,5.312500000000000000e-01,6.995849609375000000e-01
-2.000000000000000000e+00,1.000000000000000000e+00,1.200000000000000000e+01,-2.000000000000000000e+00,7.000000000000000000e+00,0.000000000000000000e+00,1.000000000000000000e+00,0.000000000000000000e+00,-3.630981445312500000e-01,3.104858398437500000e-01,5.311279296875000000e-01,6.997070312500000000e-01
0.000000000000000000e+00,0.000000000000000000e+00,4.000000000000000000e+00,8.000000000000000000e+00,4.000000000000000000e+00,1.000000000000000000e+00,-1.000000000000000000e+00,-1.000000000000000000e+00,-3.630981445312500000e-01,3.104858398437500000e-01,5.311279296875000000e-01,6.997070312500000000e-01
-1.000000000000000000e+00,0.000000000000000000e+00,0.000000000000000000e+00,-2.000000000000000000e+00,-8.000000000000000000e+00,-3.000000000000000000e+00,-1.000000000000000000e+00,-1.000000000000000000e+00,-3.630981445312500000e-01,3.104858398437500000e-01,5.311279296875000000e-01,6.997070312500000000e-01
2.000000000000000000e+00,2.000000000000000000e+00,1.300000000000000000e+01,0.000000000000000000e+00,-5.000000000000000000e+00,0.000000000000000000e+00,0.000000000000000000e+00,0.000000000000000000e+00,-3.630981445312500000e-01,3.104858398437500000e-01,5.311279296875000000e-01,6.997070312500000000e-01
-4.000000000000000000e+00,-8.000000000000000000e+00,-7.000000000000000000e+00,-8.000000000000000000e+00,-5.000000000000000000e+00,-1.000000000000000000e+00,0.000000000000000000e+00,0.000000000000000000e+00,-3.630981445312500000e-01,3.105468750000000000e-01,5.310058593750000000e-01,6.998291015625000000e-01
0.000000000000000000e+00,0.000000000000000000e+00,-4.000000000000000000e+00,1.000000000000000000e+00,-1.000000000000000000e+00,-2.000000000000000000e+00,-1.000000000000000000e+00,-1.000000000000000000e+00,-3.630981445312500000e-01,3.105468750000000000e-01,5.310058593750000000e-01,6.998291015625000000e-01
-5.000000000000000000e+00,-4.000000000000000000e+00,-5.000000000000000000e+00,0.000000000000000000e+00,2.000000000000000000e+00,0.000000000000000000e+00,0.000000000000000000e+00,-1.000000000000000000e+00,-3.630981445312500000e-01,3.105468750000000000e-01,5.310058593750000000e-01,6.998291015625000000e-01
-3.000000000000000000e+00,-3.000000000000000000e+00,-6.000000000000000000e+00,-2.000000000000000000e+00,-1.000000000000000000e+00,1.000000000000000000e+00,-1.000000000000000000e+00,0.000000000000000000e+00,-3.630981445312500000e-01,3.105468750000000000e-01,5.310058593750000000e-01,6.998291015625000000e-01
1.000000000000000000e+00,3.000000000000000000e+00,1.800000000000000000e+01,9.000000000000000000e+00,1.000000000000000000e+00,0.000000000000000000e+00,1.000000000000000000e+00,1.000000000000000000e+00,-3.632202148437500000e-01,3.104248046875000000e-01,5.308837890625000000e-01,6.998901367187500000e-01
1.000000000000000000e+00,1.000000000000000000e+00,-1.200000000000000000e+01,-6.000000000000000000e+00,-3.000000000000000000e+00,-3.000000000000000000e+00,-1.000000000000000000e+00,-3.000000000000000000e+00,-3.632202148437500000e-01,3.104248046875000000e-01,5.308837890625000000e-01,6.998901367187500000e-01
2.000000000000000000e+00,-2.000000000000000000e+00,-2.000000000000000000e+00,-8.000000000000000000e+00,-7.000000000000000000e+00,-4.000000000000000000e+00,-2.000000000000000000e+00,1.000000000000000000e+00,-3.632202148437500000e-01,3.104248046875000000e-01,5.308837890625000000e-01,6.998901367187500000e-01
-3.000000000000000000e+00,-4.000000000000000000e+00,1.500000000000000000e+01,4.000000000000000000e+00,0.000000000000000000e+00,-2.000000000000000000e+00,-3.000000000000000000e+00,-4.000000000000000000e+00,-3.632202148437500000e-01,3.104248046875000000e-01,5.308837890625000000e-01,6.998901367187500000e-01
-1.000000000000000000e+00,-1.000000000000000000e+00,-9.000000000000000000e+00,-5.000000000000000000e+00,-1.000000000000000000e+00,-2.000000000000000000e+00,-2.000000000000000000e+00,0.000000000000000000e+00,-3.632202148437500000e-01,3.101806640625000000e-01,5.307617187500000000e-01,7.000122070312500000e-01
-2.000000000000000000e+00,1.000000000000000000e+00,3.000000000000000000e+00,-7.000000000000000000e+00,-4.000000000000000000e+00,-3.000000000000000000e+00,-1.000000000000000000e+00,0.000000000000000000e+00,-3.632202148437500000e-01,3.101806640625000000e-01,5.307617187500000000e-01,7.000122070312500000e-01
1.000000000000000000e+00,3.000000000000000000e+00,1.300000000000000000e+01,8.000000000000000000e+00,-5.000000000000000000e+00,1.000000000000000000e+00,-1.000000000000000000e+00,0.000000000000000000e+00,-3.632202148437500000e-01,3.101806640625000000e-01,5.307617187500000000e-01,7.000122070312500000e-01
-1.000000000000000000e+00,-1.000000000000000000e+00,-2.300000000000000000e+01,-7.000000000000000000e+00,9.000000000000000000e+00,2.000000000000000000e+00,0.000000000000000000e+00,-2.000000000000000000e+00,-3.632202148437500000e-01,3.101806640625000000e-01,5.307617187500000000e-01,7.000122070312500000e-01
-1.000000000000000000e+00,-4.000000000000000000e+00,-5.000000000000000000e+00,2.000000000000000000e+00,2.000000000000000000e+00,-2.000000000000000000e+00,-1.000000000000000000e+00,-1.000000000000000000e+00,-3.631591796875000000e-01,3.099975585937500000e-01,5.307617187500000000e-01,7.001953125000000000e-01
0.000000000000000000e+00,-4.000000000000000000e+00,-4.000000000000000000e+00,3.000000000000000000e+00,6.000000000000000000e+00,2.000000000000000000e+00,-1.000000000000000000e+00,0.000000000000000000e+00,-3.631591796875000000e-01,3.099975585937500000e-01,5.307617187500000000e-01,7.001953125000000000e-01
-1.000000000000000000e+00,-1.000000000000000000e+00,-1.400000000000000000e+01,-1.600000000000000000e+01,-1.300000000000000000e+01,-5.000000000000000000e+00,-2.000000000000000000e+00,-3.000000000000000000e+00,-3.631591796875000000e-01,3.099975585937500000e-01,5.307617187500000000e-01,7.001953125000000000e-01
1.000000000000000000e+00,3.000000000000000000e+00,1.800000000000000000e+01,6.000000000000000000e+00,-7.000000000000000000e+00,-5.000000000000000000e+00,-3.000000000000000000e+00,0.000000000000000000e+00,-3.631591796875000000e-01,3.099975585937500000e-01,5.307617187500000000e-01,7.001953125000000000e-01
-4.000000000000000000e+00,2.000000000000000000e+00,2.100000000000000000e+01,4.000000000000000000e+00,-1.000000000000000000e+00,0.000000000000000000e+00,-4.000000000000000000e+00,-2.000000000000000000e+00,-3.630981445312500000e-01,3.096313476562500000e-01,5.307617187500000000e-01,7.003173828125000000e-01
-1.000000000000000000e+00,-5.000000000000000000e+00,-2.400000000000000000e+01,-3.000000000000000000e+00,2.000000000000000000e+00,1.000000000000000000e+00,-1.000000000000000000e+00,0.000000000000000000e+00,-3.630981445312500000e-01,3.096313476562500000e-01,5.307617187500000000e-01,7.003173828125000000e-01
-1.000000000000000000e+00,-1.000000000000000000e+00,2.000000000000000000e+00,-3.000000000000000000e+00,-3.000000000000000000e+00,-1.000000000000000000e+00,-1.000000000000000000e+00,-1.000000000000000000e+00,-3.630981445312500000e-01,3.096313476562500000e-01,5.307617187500000000e-01,7.003173828125000000e-01
1.000000000000000000e+00,-4.000000000000000000e+00,-9.000000000000000000e+00,-2.000000000000000000e+00,0.000000000000000000e+00,0.000000000000000000e+00,-1.000000000000000000e+00,-1.000000000000000000e+00,-3.630981445312500000e-01,3.096313476562500000e-01,5.307617187500000000e-01,7.003173828125000000e-01
0.000000000000000000e+00,-1.000000000000000000e+00,2.000000000000000000e+00,-5.000000000000000000e+00,-5.000000000000000000e+00,-3.000000000000000000e+00,0.000000000000000000e+00,-1.000000000000000000e+00,-3.632812500000000000e-01,3.093261718750000000e-01,5.307006835937500000e-01,7.004394531250000000e-01
-1.000000000000000000e+00,3.000000000000000000e+00,5.000000000000000000e+00,8.000000000000000000e+00,1.000000000000000000e+00,-1.000000000000000000e+00,-1.000000000000000000e+00,0.000000000000000000e+00,-3.632812500000000000e-01,3.093261718750000000e-01,5.307006835937500000e-01,7.004394531250000000e-01
0.000000000000000000e+00,-2.000000000000000000e+00,1.600000000000000000e+01,3.000000000000000000e+00,-2.000000000000000000e+00,1.000000000000000000e+00,-1.000000000000000000e+00,-1.000000000000000000e+00,-3.632812500000000000e-01,3.093261718750000000e-01,5.307006835937500000e-01,7.004394531250000000e-01
-1.000000000000000000e+00,-1.000000000000000000e+00,-1.000000000000000000e+01,-9.000000000000000000e+00,-2.000000000000000000e+00,-1.000000000000000000e+00,-1.000000000000000000e+00,-1.000000000000000000e+00,-3.632812500000000000e-01,3.093261718750000000e-01,5.307006835937500000e-01,7.004394531250000000e-01
0.000000000000000000e+00,0.000000000000000000e+00,-1.900000000000000000e+01,-3.000000000000000000e+00,-2.000000000000000000e+00,-1.000000000000000000e+00,0.000000000000000000e+00,0.000000000000000000e+00,-3.633422851562500000e-01,3.093261718750000000e-01,5.307006835937500000e-01,7.004394531250000000e-01
0.000000000000000000e+00,-1.000000000000000000e+00,3.000000000000000000e+00,1.000000000000000000e+00,1.000000000000000000e+00,1.000000000000000000e+00,0.000000000000000000e+00,-1.000000000000000000e+00,-3.633422851562500000e-01,3.093261718750000000e-01,5.307006835937500000e-01,7.004394531250000000e-01
-2.000000000000000000e+00,1.000000000000000000e+00,-2.000000000000000000e+00,-3.000000000000000000e+00,-5.000000000000000000e+00,-2.000000000000000000e+00,-1.000000000000000000e+00,-3.000000000000000000e+00,-3.633422851562500000e-01,3.093261718750000000e-01,5.307006835937500000e-01,7.004394531250000000e-01
-1.000000000000000000e+00,3.000000000000000000e+00,3.000000000000000000e+00,7.000000000000000000e+00,4.000000000000000000e+00,-1.000000000000000000e+00,0.000000000000000000e+00,-3.000000000000000000e+00,-3.633422851562500000e-01,3.093261718750000000e-01,5.307006835937500000e-01,7.004394531250000000e-01
-1.000000000000000000e+00,0.000000000000000000e+00,1.000000000000000000e+00,-4.000000000000000000e+00,-1.000000000000000000e+00,0.000000000000000000e+00,0.000000000000000000e+00,-1.000000000000000000e+00,-3.633422851562500000e-01,3.094482421875000000e-01,5.304565429687500000e-01,7.005615234375000000e-01
0.000000000000000000e+00,0.000000000000000000e+00,7.000000000000000000e+00,-8.000000000000000000e+00,-3.000000000000000000e+00,-2.000000000000000000e+00,0.000000000000000000e+00,-2.000000000000000000e+00,-3.633422851562500000e-01,3.094482421875000000e-01,5.304565429687500000e-01,7.005615234375000000e-01
-1.000000000000000000e+00,-5.000000000000000000e+00,-2.400000000000000000e+01,8.000000000000000000e+00,3.000000000000000000e+00,-1.000000000000000000e+00,-2.000000000000000000e+00,-2.000000000000000000e+00,-3.633422851562500000e-01,3.094482421875000000e-01,5.304565429687500000e-01,7.005615234375000000e-01
-1.000000000000000000e+00,0.000000000000000000e+00,-1.000000000000000000e+00,0.000000000000000000e+00,-2.000000000000000000e+00,-3.000000000000000000e+00,-2.000000000000000000e+00,1.000000000000000000e+00,-3.633422851562500000e-01,3.094482421875000000e-01,5.304565429687500000e-01,7.005615234375000000e-01
-1.000000000000000000e+00,0.000000000000000000e+00,-1.200000000000000000e+01,-1.000000000000000000e+00,-1.000000000000000000e+00,-1.000000000000000000e+00,-2.000000000000000000e+00,0.000000000000000000e+00,-3.631591796875000000e-01,3.096313476562500000e-01,5.303344726562500000e-01,7.006225585937500000e-01
-1.000000000000000000e+00,1.000000000000000000e+00,2.200000000000000000e+01,7.000000000000000000e+00,1.000000000000000000e+00,0.000000000000000000e+00,-3.000000000000000000e+00,0.000000000000000000e+00,-3.631591796875000000e-01,3.096313476562500000e-01,5.303344726562500000e-01,7.006225585937500000e-01
0.000000000000000000e+00,-2.000000000000000000e+00,2.000000000000000000e+00,-7.000000000000000000e+00,-1.000000000000000000e+00,2.000000000000000000e+00,0.000000000000000000e+00,-2.000000000000000000e+00,-3.631591796875000000e-01,3.096313476562500000e-01,5.303344726562500000e-01,7.006225585937500000e-01
-2.000000000000000000e+00,-4.000000000000000000e+00,-1.300000000000000000e+01,-8.000000000000000000e+00,-6.000000000000000000e+00,-4.000000000000000000e+00,-3.000000000000000000e+00,-2.000000000000000000e+00,-3.631591796875000000e-01,3.096313476562500000e-01,5.303344726562500000e-01,7.006225585937500000e-01
-1.000000000000000000e+00,-1.000000000000000000e+00,8.000000000000000000e+00,-4.000000000000000000e+00,-7.000000000000000000e+00,-2.000000000000000000e+00,-1.000000000000000000e+00,-2.000000000000000000e+00,-3.632812500000000000e-01,3.098754882812500000e-01,5.303344726562500000e-01,7.005004882812500000e-01
-2.000000000000000000e+00,-2.000000000000000000e+00,-1.600000000000000000e+01,-3.000000000000000000e+00,1.000000000000000000e+00,2.000000000000000000e+00,0.000000000000000000e+00,-3.000000000000000000e+00,-3.632812500000000000e-01,3.098754882812500000e-01,5.303344726562500000e-01,7.005004882812500000e-01
0.000000000000000000e+00,1.000000000000000000e+00,7.000000000000000000e+00,1.000000000000000000e+01,5.000000000000000000e+00,1.000000000000000000e+00,1.000000000000000000e+00,2.000000000000000000e+00,-3.632812500000000000e-01,3.098754882812500000e-01,5.303344726562500000e-01,7.005004882812500000e-01
-2.000000000000000000e+00,-2.000000000000000000e+00,-1.500000000000000000e+01,6.000000000000000000e+00,3.000000000000000000e+00,2.000000000000000000e+00,0.000000000000000000e+00,1.000000000000000000e+00,-3.632812500000000000e-01,3.098754882812500000e-01,5.303344726562500000e-01,7.005004882812500000e-01
0.000000000000000000e+00,-1.000000000000000000e+00,-4.000000000000000000e+00,-8.000000000000000000e+00,-2.000000000000000000e+00,-1.000000000000000000e+00,-3.000000000000000000e+00,-2.000000000000000000e+00,-3.632812500000000000e-01,3.100585937500000000e-01,5.305175781250000000e-01,7.002563476562500000e-01
-1.000000000000000000e+00,0.000000000000000000e+00,8.000000000000000000e+00,-1.000000000000000000e+00,-3.000000000000000000e+00,-3.000000000000000000e+00,-1.000000000000000000e+00,1.000000000000000000e+00,-3.632812500000000000e-01,3.100585937500000000e-01,5.305175781250000000e-01,7.002563476562500000e-01
-3.000000000000000000e+00,0.000000000000000000e+00,-1.600000000000000000e+01,-1.000000000000000000e+00,1.000000000000000000e+00,-1.000000000000000000e+00,-1.000000000000000000e+00,-1.000000000000000000e+00,-3.632812500000000000e-01,3.100585937500000000e-01,5.305175781250000000e-01,7.002563476562500000e-01
0.000000000000000000e+00,0.000000000000000000e+00,0.000000000000000000e+00,-8.000000000000000000e+00,0.000000000000000000e+00,-2.000000000000000000e+00,-1.000000000000000000e+00,0.000000000000000000e+00,-3.632812500000000000e-01,3.100585937500000000e-01,5.305175781250000000e-01,7.002563476562500000e-01
-3.000000000000000000e+00,-5.000000000000000000e+00,4.000000000000000000e+00,-2.000000000000000000e+00,-1.000000000000000000e+00,-1.000000000000000000e+00,-3.000000000000000000e+00,-2.000000000000000000e+00,-3.635253906250000000e-01,3.100585937500000000e-01,5.305786132812500000e-01,7.000732421875000000e-01
1.000000000000000000e+00,1.000000000000000000e+00,1.000000000000000000e+00,4.000000000000000000e+00,-4.000000000000000000e+00,-4.000000000000000000e+00,0.000000000000000000e+00,1.000000000000000000e+00,-3.635253906250000000e-01,3.100585937500000000e-01,5.305786132812500000e-01,7.000732421875000000e-01
-1.000000000000000000e+00,2.000000000000000000e+00,3.000000000000000000e+00,0.000000000000000000e+00,-2.000000000000000000e+00,-1.000000000000000000e+00,-2.000000000000000000e+00,-1.000000000000000000e+00,-3.635253906250000000e-01,3.100585937500000000e-01,5.305786132812500000e-01,7.000732421875000000e-01
-3.000000000000000000e+00,-3.000000000000000000e+00,6.000000000000000000e+00,-2.000000000000000000e+00,0.000000000000000000e+00,1.000000000000000000e+00,-1.000000000000000000e+00,-1.000000000000000000e+00,-3.635253906250000000e-01,3.100585937500000000e-01,5.305786132812500000e-01,7.000732421875000000e-01
0.000000000000000000e+00,3.000000000000000000e+00,-2.000000000000000000e+00,-1.000000000000000000e+00,-1.000000000000000000e+00,-1.000000000000000000e+00,1.000000000000000000e+00,-1.000000000000000000e+00,-3.634643554687500000e-01,3.102416992187500000e-01,5.306396484375000000e-01,7.000122070312500000e-01
0.000000000000000000e+00,-2.000000000000000000e+00,-4.000000000000000000e+00,6.000000000000000000e+00,7.000000000000000000e+00,3.000000000000000000e+00,-1.000000000000000000e+00,-2.000000000000000000e+00,-3.634643554687500000e-01,3.102416992187500000e-01,5.306396484375000000e-01,7.000122070312500000e-01
-2.000000000000000000e+00,-3.000000000000000000e+00,-1.500000000000000000e+01,-1.200000000000000000e+01,-1.000000000000000000e+01,-6.000000000000000000e+00,-3.000000000000000000e+00,-3.000000000000000000e+00,-3.634643554687500000e-01,3.102416992187500000e-01,5.306396484375000000e-01,7.000122070312500000e-01
-1.000000000000000000e+00,-1.000000000000000000e+00,7.000000000000000000e+00,9.000000000000000000e+00,1.000000000000000000e+00,0.000000000000000000e+00,-2.000000000000000000e+00,-2.000000000000000000e+00,-3.634643554687500000e-01,3.102416992187500000e-01,5.306396484375000000e-01,7.000122070312500000e-01
-1.000000000000000000e+00,-3.000000000000000000e+00,-1.500000000000000000e+01,-1.200000000000000000e+01,-7.000000000000000000e+00,-1.000000000000000000e+00,-1.000000000000000000e+00,-2.000000000000000000e+00,-3.630371093750000000e-01,3.107299804687500000e-01,5.305786132812500000e-01,7.000122070312500000e-01
-1.000000000000000000e+00,-2.000000000000000000e+00,1.500000000000000000e+01,2.100000000000000000e+01,9.000000000000000000e+00,0.000000000000000000e+00,-1.000000000000000000e+00,-1.000000000000000000e+00,-3.630371093750000000e-01,3.107299804687500000e-01,5.305786132812500000e-01,7.000122070312500000e-01
1.000000000000000000e+00,-1.000000000000000000e+00,-8.000000000000000000e+00,-1.600000000000000000e+01,-4.000000000000000000e+00,-1.000000000000000000e+00,0.000000000000000000e+00,-1.000000000000000000e+00,-3.630371093750000000e-01,3.107299804687500000e-01,5.305786132812500000e-01,7.000122070312500000e-01
-3.000000000000000000e+00,-1.000000000000000000e+00,1.100000000000000000e+01,0.000000000000000000e+00,-3.000000000000000000e+00,-1.000000000000000000e+00,0.000000000000000000e+00,-2.000000000000000000e+00,-3.630371093750000000e-01,3.107299804687500000e-01,5.305786132812500000e-01,7.000122070312500000e-01
-2.000000000000000000e+00,-2.000000000000000000e+00,-2.000000000000000000e+01,-3.000000000000000000e+00,0.000000000000000000e+00,-3.000000000000000000e+00,-1.000000000000000000e+00,0.000000000000000000e+00,-3.629760742187500000e-01,3.110351562500000000e-01,5.305175781250000000e-01,6.999511718750000000e-01
0.000000000000000000e+00,-1.000000000000000000e+00,-9.000000000000000000e+00,-7.000000000000000000e+00,-5.000000000000000000e+00,-3.000000000000000000e+00,-1.000000000000000000e+00,1.000000000000000000e+00,-3.629760742187500000e-01,3.110351562500000000e-01,5.305175781250000000e-01,6.999511718750000000e-01
-1.000000000000000000e+00,-1.000000000000000000e+00,1.500000000000000000e+01,0.000000000000000000e+00,1.000000000000000000e+00,-1.000000000000000000e+00,0.000000000000000000e+00,0.000000000000000000e+00,-3.629760742187500000e-01,3.110351562500000000e-01,5.305175781250000000e-01,6.999511718750000000e-01
-3.000000000000000000e+00,-2.000000000000000000e+00,-7.000000000000000000e+00,-4.000000000000000000e+00,-5.000000000000000000e+00,-2.000000000000000000e+00,1.000000000000000000e+00,-2.000000000000000000e+00,-3.629760742187500000e-01,3.110351562500000000e-01,5.305175781250000000e-01,6.999511718750000000e-01
1.000000000000000000e+00,2.000000000000000000e+00,2.000000000000000000e+01,7.000000000000000000e+00,9.000000000000000000e+00,2.000000000000000000e+00,0.000000000000000000e+00,-1.000000000000000000e+00,-3.630371093750000000e-01,3.110961914062500000e-01,5.305175781250000000e-01,6.999511718750000000e-01
0.000000000000000000e+00,-2.000000000000000000e+00,-1.300000000000000000e+01,-4.000000000000000000e+00,-5.000000000000000000e+00,-3.000000000000000000e+00,-1.000000000000000000e+00,-1.000000000000000000e+00,-3.630371093750000000e-01,3.110961914062500000e-01,5.305175781250000000e-01,6.999511718750000000e-01
-1.000000000000000000e+00,-1.000000000000000000e+00,8.000000000000000000e+00,6.000000000000000000e+00,3.000000000000000000e+00,0.000000000000000000e+00,1.000000000000000000e+00,-1.000000000000000000e+00,-3.630371093750000000e-01,3.110961914062500000e-01,5.305175781250000000e-01,6.999511718750000000e-01
-1.000000000000000000e+00,0.000000000000000000e+00,2.000000000000000000e+00,-6.000000000000000000e+00,-7.000000000000000000e+00,-3.000000000000000000e+00,-1.000000000000000000e+00,-2.000000000000000000e+00,-3.630371093750000000e-01,3.110961914062500000e-01,5.305175781250000000e-01,6.999511718750000000e-01
1.000000000000000000e+00,-1.000000000000000000e+00,4.000000000000000000e+00,7.000000000000000000e+00,-2.000000000000000000e+00,-4.000000000000000000e+00,-3.000000000000000000e+00,0.000000000000000000e+00,-3.632812500000000000e-01,3.110961914062500000e-01,5.304565429687500000e-01,6.998901367187500000e-01
-1.000000000000000000e+00,0.000000000000000000e+00,-6.000000000000000000e+00,-8.000000000000000000e+00,-2.000000000000000000e+00,1.000000000000000000e+00,0.000000000000000000e+00,-1.000000000000000000e+00,-3.632812500000000000e-01,3.110961914062500000e-01,5.304565429687500000e-01,6.998901367187500000e-01
1.000000000000000000e+00,0.000000000000000000e+00,2.200000000000000000e+01,1.000000000000000000e+01,1.100000000000000000e+01,3.000000000000000000e+00,0.000000000000000000e+00,-1.000000000000000000e+00,-3.632812500000000000e-01,3.110961914062500000e-01,5.304565429687500000e-01,6.998901367187500000e-01
1.000000000000000000e+00,0.000000000000000000e+00,-1.900000000000000000e+01,-5.000000000000000000e+00,-4.000000000000000000e+00,-3.000000000000000000e+00,-1.000000000000000000e+00,1.000000000000000000e+00,-3.632812500000000000e-01,3.110961914062500000e-01,5.304565429687500000e-01,6.998901367187500000e-01
-2.000000000000000000e+00,-4.000000000000000000e+00,1.100000000000000000e+01,1.400000000000000000e+01,2.000000000000000000e+00,0.000000000000000000e+00,1.000000000000000000e+00,-3.000000000000000000e+00,-3.635253906250000000e-01,3.109130859375000000e-01,5.304565429687500000e-01,6.998291015625000000e-01
-3.000000000000000000e+00,-8.000000000000000000e+00,-4.500000000000000000e+01,-1.800000000000000000e+01,-5.000000000000000000e+00,-2.000000000000000000e+00,0.000000000000000000e+00,-2.000000000000000000e+00,-3.635253906250000000e-01,3.109130859375000000e-01,5.304565429687500000e-01,6.998291015625000000e-01
0.000000000000000000e+00,1.000000000000000000e+00,7.000000000000000000e+00,3.000000000000000000e+00,-1.000000000000000000e+00,-1.000000000000000000e+00,-1.000000000000000000e+00,-1.000000000000000000e+00,-3.635253906250000000e-01,3.109130859375000000e-01,5.304565429687500000e-01,6.998291015625000000e-01
0.000000000000000000e+00,-1.000000000000000000e+00,1.000000000000000000e+00,-7.000000000000000000e+00,-2.000000000000000000e+00,1.000000000000000000e+00,-1.000000000000000000e+00,-1.000000000000000000e+00,-3.635253906250000000e-01,3.109130859375000000e-01,5.304565429687500000e-01,6.998291015625000000e-01
0.000000000000000000e+00,-1.000000000000000000e+00,-5.000000000000000000e+00,-3.000000000000000000e+00,-9.000000000000000000e+00,-4.000000000000000000e+00,-1.000000000000000000e+00,-2.000000000000000000e+00,-3.636474609375000000e-01,3.107910156250000000e-01,5.303955078125000000e-01,6.998291015625000000e-01
1.000000000000000000e+00,1.000000000000000000e+00,3.000000000000000000e+00,-4.000000000000000000e+00,-1.000000000000000000e+00,0.000000000000000000e+00,1.000000000000000000e+00,0.000000000000000000e+00,-3.636474609375000000e-01,3.107910156250000000e-01,5.303955078125000000e-01,6.998291015625000000e-01
