1.400000000000000000e+01,2.000000000000000000e+01,1.000000000000000000e+00,1.000000000000000000e+00,1.000000000000000000e+00,2.000000000000000000e+00,5.000000000000000000e+00,2.000000000000000000e+00,-3.845825195312500000e-01,8.386230468750000000e-02,8.025512695312500000e-01,4.482421875000000000e-01
0.000000000000000000e+00,-1.400000000000000000e+01,-7.000000000000000000e+00,0.000000000000000000e+00,-1.000000000000000000e+00,2.000000000000000000e+00,3.000000000000000000e+00,-1.500000000000000000e+01,-3.845825195312500000e-01,8.386230468750000000e-02,8.025512695312500000e-01,4.482421875000000000e-01
-1.200000000000000000e+01,-1.000000000000000000e+00,9.000000000000000000e+00,-4.000000000000000000e+00,-4.000000000000000000e+00,-1.300000000000000000e+01,-4.000000000000000000e+00,1.000000000000000000e+00,-3.846435546875000000e-01,8.148193359375000000e-02,8.018798828125000000e-01,4.498901367187500000e-01
8.000000000000000000e+00,-1.300000000000000000e+01,-1.400000000000000000e+01,-1.000000000000000000e+01,-2.000000000000000000e+00,-9.000000000000000000e+00,-1.600000000000000000e+01,9.000000000000000000e+00,-3.846435546875000000e-01,8.148193359375000000e-02,8.018798828125000000e-01,4.498901367187500000e-01
-1.300000000000000000e+01,-1.100000000000000000e+01,-8.000000000000000000e+00,1.400000000000000000e+01,3.000000000000000000e+00,1.600000000000000000e+01,1.300000000000000000e+01,-5.000000000000000000e+00,-3.846435546875000000e-01,8.148193359375000000e-02,8.018798828125000000e-01,4.498901367187500000e-01
-6.000000000000000000e+00,-1.400000000000000000e+01,-2.200000000000000000e+01,-2.200000000000000000e+01,-9.000000000000000000e+00,-2.200000000000000000e+01,-4.200000000000000000e+01,-1.800000000000000000e+01,-3.846435546875000000e-01,8.148193359375000000e-02,8.018798828125000000e-01,4.498901367187500000e-01
8.000000000000000000e+00,1.300000000000000000e+01,1.900000000000000000e+01,1.500000000000000000e+01,8.000000000000000000e+00,3.200000000000000000e+01,2.700000000000000000e+01,-5.000000000000000000e+00,-3.841552734375000000e-01,8.093261718750000000e-02,8.006591796875000000e-01,4.524536132812500000e-01
-3.000000000000000000e+00,1.800000000000000000e+01,1.600000000000000000e+01,-3.000000000000000000e+00,0.000000000000000000e+00,-1.300000000000000000e+01,3.000000000000000000e+00,4.000000000000000000e+00,-3.841552734375000000e-01,8.093261718750000000e-02,8.006591796875000000e-01,4.524536132812500000e-01
1.000000000000000000e+00,-1.300000000000000000e+01,-2.900000000000000000e+01,8.000000000000000000e+00,-3.000000000000000000e+00,-7.000000000000000000e+00,8.000000000000000000e+00,2.000000000000000000e+00,-3.841552734375000000e-01,8.093261718750000000e-02,8.006591796875000000e-01,4.524536132812500000e-01
-5.000000000000000000e+00,-1.400000000000000000e+01,2.600000000000000000e+01,5.000000000000000000e+00,-4.000000000000000000e+00,-5.000000000000000000e+00,-8.000000000000000000e+00,3.000000000000000000e+00,-3.841552734375000000e-01,8.093261718750000000e-02,8.006591796875000000e-01,4.524536132812500000e-01
4.000000000000000000e+00,1.000000000000000000e+00,-4.000000000000000000e+00,-2.000000000000000000e+01,-6.000000000000000000e+00,-6.000000000000000000e+00,-2.400000000000000000e+01,1.300000000000000000e+01,-3.838500976562500000e-01,7.867431640625000000e-02,7.998046875000000000e-01,4.547119140625000000e-01
-2.000000000000000000e+00,-3.000000000000000000e+00,0.000000000000000000e+00,1.100000000000000000e+01,1.000000000000000000e+00,7.000000000000000000e+00,-8.000000000000000000e+00,-9.000000000000000000e+00,-3.838500976562500000e-01,7.867431640625000000e-02,7.998046875000000000e-01,4.547119140625000000e-01
-5.000000000000000000e+00,6.000000000000000000e+00,3.000000000000000000e+01,-1.300000000000000000e+01,1.000000000000000000e+00,0.000000000000000000e+00,-1.100000000000000000e+01,-1.100000000000000000e+01,-3.838500976562500000e-01,7.867431640625000000e-02,7.998046875000000000e-01,4.547119140625000000e-01
1.000000000000000000e+00,-5.000000000000000000e+00,-2.800000000000000000e+01,1.200000000000000000e+01,2.000000000000000000e+00,-7.000000000000000000e+00,-2.000000000000000000e+00,3.000000000000000000e+00,-3.838500976562500000e-01,7.867431640625000000e-02,7.998046875000000000e-01,4.547119140625000000e-01
5.000000000000000000e+00,1.000000000000000000e+01,-7.000000000000000000e+00,-1.000000000000000000e+00,-6.000000000000000000e+00,-6.000000000000000000e+00,2.000000000000000000e+00,1.300000000000000000e+01,-3.838500976562500000e-01,7.427978515625000000e-02,7.994384765625000000e-01,4.560546875000000000e-01
-5.000000000000000000e+00,0.000000000000000000e+00,1.900000000000000000e+01,-9.000000000000000000e+00,-3.000000000000000000e+00,9.000000000000000000e+00,0.000000000000000000e+00,-1.700000000000000000e+01,-3.838500976562500000e-01,7.427978515625000000e-02,7.994384765625000000e-01,4.560546875000000000e-01
-1.000000000000000000e+00,-9.000000000000000000e+00,-2.100000000000000000e+01,-6.000000000000000000e+00,-3.000000000000000000e+00,0.000000000000000000e+00,-1.200000000000000000e+01,-4.000000000000000000e+00,-3.838500976562500000e-01,7.427978515625000000e-02,7.994384765625000000e-01,4.560546875000000000e-01
1.000000000000000000e+00,-4.000000000000000000e+00,1.000000000000000000e+01,-5.000000000000000000e+00,2.000000000000000000e+00,-7.000000000000000000e+00,9.000000000000000000e+00,5.000000000000000000e+00,-3.838500976562500000e-01,7.427978515625000000e-02,7.994384765625000000e-01,4.560546875000000000e-01
1.000000000000000000e+00,1.000000000000000000e+00,-2.000000000000000000e+01,1.000000000000000000e+00,-8.000000000000000000e+00,-1.300000000000000000e+01,-2.000000000000000000e+00,1.000000000000000000e+00,-3.834228515625000000e-01,7.055664062500000000e-02,7.985229492187500000e-01,4.586181640625000000e-01
-9.000000000000000000e+00,-6.000000000000000000e+00,0.000000000000000000e+00,6.000000000000000000e+00,1.000000000000000000e+00,1.000000000000000000e+00,-4.000000000000000000e+00,-1.700000000000000000e+01,-3.834228515625000000e-01,7.055664062500000000e-02,7.985229492187500000e-01,4.586181640625000000e-01
-9.000000000000000000e+00,3.000000000000000000e+00,-8.000000000000000000e+00,-2.000000000000000000e+00,-5.000000000000000000e+00,-2.600000000000000000e+01,-2.000000000000000000e+00,-1.000000000000000000e+00,-3.834228515625000000e-01,7.055664062500000000e-02,7.985229492187500000e-01,4.586181640625000000e-01
1.000000000000000000e+01,-2.100000000000000000e+01,-3.700000000000000000e+01,-3.100000000000000000e+01,-3.000000000000000000e+00,3.900000000000000000e+01,2.700000000000000000e+01,2.200000000000000000e+01,-3.834228515625000000e-01,7.055664062500000000e-02,7.985229492187500000e-01,4.586181640625000000e-01
1.100000000000000000e+01,7.000000000000000000e+00,6.000000000000000000e+00,1.900000000000000000e+01,9.000000000000000000e+00,1.000000000000000000e+00,1.200000000000000000e+01,1.000000000000000000e+00,-3.820800781250000000e-01,6.848144531250000000e-02,7.980346679687500000e-01,4.609375000000000000e-01
-9.000000000000000000e+00,-1.800000000000000000e+01,-4.100000000000000000e+01,-1.600000000000000000e+01,-5.000000000000000000e+00,5.000000000000000000e+00,1.800000000000000000e+01,-3.000000000000000000e+00,-3.820800781250000000e-01,6.848144531250000000e-02,7.980346679687500000e-01,4.609375000000000000e-01
-6.000000000000000000e+00,3.000000000000000000e+00,2.300000000000000000e+01,1.700000000000000000e+01,1.000000000000000000e+00,-1.100000000000000000e+01,-3.000000000000000000e+01,-7.000000000000000000e+00,-3.820800781250000000e-01,6.848144531250000000e-02,7.980346679687500000e-01,4.609375000000000000e-01
-4.000000000000000000e+00,5.000000000000000000e+00,1.300000000000000000e+01,-7.000000000000000000e+00,0.000000000000000000e+00,0.000000000000000000e+00,1.000000000000000000e+00,-4.000000000000000000e+00,-3.820800781250000000e-01,6.848144531250000000e-02,7.980346679687500000e-01,4.609375000000000000e-01
3.000000000000000000e+00,-5.000000000000000000e+00,-8.000000000000000000e+00,-1.000000000000000000e+01,-3.000000000000000000e+00,-4.000000000000000000e+00,2.100000000000000000e+01,2.000000000000000000e+00,-3.810424804687500000e-01,6.628417968750000000e-02,7.976074218750000000e-01,4.627685546875000000e-01
-1.000000000000000000e+01,0.000000000000000000e+00,0.000000000000000000e+00,5.000000000000000000e+00,-3.000000000000000000e+00,-3.000000000000000000e+00,2.300000000000000000e+01,6.000000000000000000e+00,-3.810424804687500000e-01,6.628417968750000000e-02,7.976074218750000000e-01,4.627685546875000000e-01
1.200000000000000000e+01,9.000000000000000000e+00,-1.400000000000000000e+01,-1.000000000000000000e+00,2.000000000000000000e+00,1.100000000000000000e+01,1.200000000000000000e+01,7.000000000000000000e+00,-3.810424804687500000e-01,6.628417968750000000e-02,7.976074218750000000e-01,4.627685546875000000e-01
1.200000000000000000e+01,-1.000000000000000000e+00,5.000000000000000000e+00,3.000000000000000000e+00,-2.000000000000000000e+00,-2.000000000000000000e+00,-5.000000000000000000e+00,1.000000000000000000e+01,-3.810424804687500000e-01,6.628417968750000000e-02,7.976074218750000000e-01,4.627685546875000000e-01
-3.000000000000000000e+00,0.000000000000000000e+00,-4.000000000000000000e+00,-7.000000000000000000e+00,-4.000000000000000000e+00,2.000000000000000000e+00,-5.000000000000000000e+00,-1.300000000000000000e+01,-3.804931640625000000e-01,6.365966796875000000e-02,7.970581054687500000e-01,4.645385742187500000e-01
-2.000000000000000000e+00,3.000000000000000000e+00,2.000000000000000000e+00,1.300000000000000000e+01,3.000000000000000000e+00,4.000000000000000000e+00,-1.300000000000000000e+01,1.000000000000000000e+00,-3.804931640625000000e-01,6.365966796875000000e-02,7.970581054687500000e-01,4.645385742187500000e-01
-9.000000000000000000e+00,-7.000000000000000000e+00,-1.000000000000000000e+00,-1.000000000000000000e+00,0.000000000000000000e+00,5.000000000000000000e+00,9.000000000000000000e+00,-1.000000000000000000e+01,-3.804931640625000000e-01,6.365966796875000000e-02,7.970581054687500000e-01,4.645385742187500000e-01
6.000000000000000000e+00,1.000000000000000000e+01,1.400000000000000000e+01,4.000000000000000000e+00,1.000000000000000000e+00,-1.000000000000000000e+01,-5.000000000000000000e+00,4.000000000000000000e+00,-3.804931640625000000e-01,6.365966796875000000e-02,7.970581054687500000e-01,4.645385742187500000e-01
0.000000000000000000e+00,-5.000000000000000000e+00,-3.000000000000000000e+00,-6.000000000000000000e+00,-5.000000000000000000e+00,-1.000000000000000000e+01,-3.400000000000000000e+01,-3.400000000000000000e+01,-3.804931640625000000e-01,6.250000000000000000e-02,7.962036132812500000e-01,4.661865234375000000e-01
-4.000000000000000000e+00,-7.000000000000000000e+00,-4.000000000000000000e+00,1.000000000000000000e+01,2.000000000000000000e+00,-1.300000000000000000e+01,-1.000000000000000000e+00,3.100000000000000000e+01,-3.804931640625000000e-01,6.250000000000000000e-02,7.962036132812500000e-01,4.661865234375000000e-01
5.000000000000000000e+00,6.000000000000000000e+00,3.000000000000000000e+00,2.000000000000000000e+00,4.000000000000000000e+00,2.800000000000000000e+01,3.600000000000000000e+01,-2.000000000000000000e+00,-3.804931640625000000e-01,6.250000000000000000e-02,7.962036132812500000e-01,4.661865234375000000e-01
1.000000000000000000e+00,3.000000000000000000e+00,-3.000000000000000000e+00,-7.000000000000000000e+00,-1.000000000000000000e+00,-1.600000000000000000e+01,-4.000000000000000000e+01,-2.000000000000000000e+00,-3.804931640625000000e-01,6.250000000000000000e-02,7.962036132812500000e-01,4.661865234375000000e-01
1.000000000000000000e+00,3.000000000000000000e+00,1.100000000000000000e+01,-4.000000000000000000e+00,-1.000000000000000000e+00,9.000000000000000000e+00,2.800000000000000000e+01,9.000000000000000000e+00,-3.811035156250000000e-01,6.268310546875000000e-02,7.954711914062500000e-01,4.669189453125000000e-01
7.000000000000000000e+00,3.000000000000000000e+00,-1.500000000000000000e+01,-6.000000000000000000e+00,3.000000000000000000e+00,9.000000000000000000e+00,-7.000000000000000000e+00,-1.900000000000000000e+01,-3.811035156250000000e-01,6.268310546875000000e-02,7.954711914062500000e-01,4.669189453125000000e-01
-8.000000000000000000e+00,-1.000000000000000000e+01,-6.000000000000000000e+00,1.600000000000000000e+01,0.000000000000000000e+00,-1.000000000000000000e+00,-2.000000000000000000e+00,1.000000000000000000e+00,-3.811035156250000000e-01,6.268310546875000000e-02,7.954711914062500000e-01,4.669189453125000000e-01
-9.000000000000000000e+00,-4.000000000000000000e+00,-4.000000000000000000e+00,-7.000000000000000000e+00,-6.000000000000000000e+00,3.000000000000000000e+00,-2.400000000000000000e+01,-2.200000000000000000e+01,-3.811035156250000000e-01,6.268310546875000000e-02,7.954711914062500000e-01,4.669189453125000000e-01
0.000000000000000000e+00,0.000000000000000000e+00,-4.000000000000000000e+00,-7.000000000000000000e+00,-1.000000000000000000e+00,-2.000000000000000000e+00,1.200000000000000000e+01,4.000000000000000000e+00,-3.828735351562500000e-01,6.188964843750000000e-02,7.947387695312500000e-01,4.667358398437500000e-01
1.000000000000000000e+00,5.000000000000000000e+00,8.000000000000000000e+00,2.000000000000000000e+00,-1.000000000000000000e+00,-1.100000000000000000e+01,-1.200000000000000000e+01,-8.000000000000000000e+00,-3.828735351562500000e-01,6.188964843750000000e-02,7.947387695312500000e-01,4.667358398437500000e-01
2.000000000000000000e+00,-7.000000000000000000e+00,-7.000000000000000000e+00,-1.600000000000000000e+01,-3.000000000000000000e+00,-1.000000000000000000e+00,1.000000000000000000e+00,9.000000000000000000e+00,-3.828735351562500000e-01,6.188964843750000000e-02,7.947387695312500000e-01,4.667358398437500000e-01
-5.000000000000000000e+00,-1.000000000000000000e+00,4.000000000000000000e+00,9.000000000000000000e+00,0.000000000000000000e+00,6.000000000000000000e+00,8.000000000000000000e+00,-2.000000000000000000e+00,-3.828735351562500000e-01,6.188964843750000000e-02,7.947387695312500000e-01,4.667358398437500000e-01
1.000000000000000000e+00,7.000000000000000000e+00,1.900000000000000000e+01,-4.000000000000000000e+00,-4.000000000000000000e+00,-1.500000000000000000e+01,-2.600000000000000000e+01,-4.000000000000000000e+00,-3.851318359375000000e-01,5.975341796875000000e-02,7.944335937500000000e-01,4.656982421875000000e-01
5.000000000000000000e+00,0.000000000000000000e+00,-1.800000000000000000e+01,-4.000000000000000000e+00,3.000000000000000000e+00,8.000000000000000000e+00,1.200000000000000000e+01,2.000000000000000000e+00,-3.851318359375000000e-01,5.975341796875000000e-02,7.944335937500000000e-01,4.656982421875000000e-01
-1.500000000000000000e+01,-1.300000000000000000e+01,-1.000000000000000000e+01,-1.000000000000000000e+01,-7.000000000000000000e+00,-1.200000000000000000e+01,-1.300000000000000000e+01,-8.000000000000000000e+00,-3.851318359375000000e-01,5.975341796875000000e-02,7.944335937500000000e-01,4.656982421875000000e-01
8.000000000000000000e+00,9.000000000000000000e+00,1.800000000000000000e+01,3.000000000000000000e+00,6.000000000000000000e+00,9.000000000000000000e+00,1.800000000000000000e+01,7.000000000000000000e+00,-3.851318359375000000e-01,5.975341796875000000e-02,7.944335937500000000e-01,4.656982421875000000e-01
5.000000000000000000e+00,-2.000000000000000000e+00,-2.100000000000000000e+01,-1.000000000000000000e+00,-4.000000000000000000e+00,-1.200000000000000000e+01,-5.000000000000000000e+00,9.000000000000000000e+00,-3.869018554687500000e-01,5.834960937500000000e-02,7.944335937500000000e-01,4.644775390625000000e-01
-1.000000000000000000e+01,-3.000000000000000000e+00,-9.000000000000000000e+00,-6.000000000000000000e+00,-3.000000000000000000e+00,-1.000000000000000000e+00,2.000000000000000000e+00,-9.000000000000000000e+00,-3.869018554687500000e-01,5.834960937500000000e-02,7.944335937500000000e-01,4.644775390625000000e-01
3.000000000000000000e+00,0.000000000000000000e+00,-1.100000000000000000e+01,-5.000000000000000000e+00,-3.000000000000000000e+00,-3.000000000000000000e+00,-1.300000000000000000e+01,-2.000000000000000000e+00,-3.869018554687500000e-01,5.834960937500000000e-02,7.944335937500000000e-01,4.644775390625000000e-01
0.000000000000000000e+00,2.000000000000000000e+00,3.000000000000000000e+00,-2.000000000000000000e+00,-5.000000000000000000e+00,-2.000000000000000000e+01,-7.000000000000000000e+00,-4.000000000000000000e+00,-3.869018554687500000e-01,5.834960937500000000e-02,7.944335937500000000e-01,4.644775390625000000e-01
5.000000000000000000e+00,1.000000000000000000e+00,2.200000000000000000e+01,4.000000000000000000e+00,5.000000000000000000e+00,1.900000000000000000e+01,2.000000000000000000e+01,1.000000000000000000e+00,-3.878173828125000000e-01,5.841064453125000000e-02,7.946166992187500000e-01,4.633178710937500000e-01
-1.000000000000000000e+00,-1.000000000000000000e+00,3.000000000000000000e+00,-9.000000000000000000e+00,-4.000000000000000000e+00,-5.000000000000000000e+00,-3.000000000000000000e+00,2.000000000000000000e+00,-3.878173828125000000e-01,5.841064453125000000e-02,7.946166992187500000e-01,4.633178710937500000e-01
-8.000000000000000000e+00,-1.100000000000000000e+01,-2.600000000000000000e+01,-4.000000000000000000e+00,-6.000000000000000000e+00,-5.000000000000000000e+00,-6.000000000000000000e+00,-2.000000000000000000e+00,-3.878173828125000000e-01,5.841064453125000000e-02,7.946166992187500000e-01,4.633178710937500000e-01
-7.000000000000000000e+00,6.000000000000000000e+00,7.000000000000000000e+00,-6.000000000000000000e+00,-4.000000000000000000e+00,-9.000000000000000000e+00,-1.000000000000000000e+01,3.000000000000000000e+00,-3.878173828125000000e-01,5.841064453125000000e-02,7.946166992187500000e-01,4.633178710937500000e-01
-1.000000000000000000e+00,3.000000000000000000e+00,6.000000000000000000e+00,7.000000000000000000e+00,3.000000000000000000e+00,8.000000000000000000e+00,1.000000000000000000e+00,2.000000000000000000e+00,-3.885498046875000000e-01,5.908203125000000000e-02,7.946166992187500000e-01,4.627075195312500000e-01
0.000000000000000000e+00,0.000000000000000000e+00,4.000000000000000000e+00,4.000000000000000000e+00,-3.000000000000000000e+00,-1.000000000000000000e+00,1.400000000000000000e+01,1.000000000000000000e+00,-3.885498046875000000e-01,5.908203125000000000e-02,7.946166992187500000e-01,4.627075195312500000e-01
3.000000000000000000e+00,9.000000000000000000e+00,9.000000000000000000e+00,7.000000000000000000e+00,7.000000000000000000e+00,2.000000000000000000e+00,-2.200000000000000000e+01,-8.000000000000000000e+00,-3.885498046875000000e-01,5.908203125000000000e-02,7.946166992187500000e-01,4.627075195312500000e-01
-7.000000000000000000e+00,-1.600000000000000000e+01,-4.000000000000000000e+00,-8.000000000000000000e+00,-5.000000000000000000e+00,2.000000000000000000e+00,1.100000000000000000e+01,-1.000000000000000000e+00,-3.885498046875000000e-01,5.908203125000000000e-02,7.946166992187500000e-01,4.627075195312500000e-01
-1.200000000000000000e+01,-1.000000000000000000e+00,-2.000000000000000000e+00,-4.000000000000000000e+00,-1.000000000000000000e+00,-6.000000000000000000e+00,-1.800000000000000000e+01,-6.000000000000000000e+00,-3.887329101562500000e-01,6.079101562500000000e-02,7.944335937500000000e-01,4.625854492187500000e-01
6.000000000000000000e+00,-5.000000000000000000e+00,-6.000000000000000000e+00,8.000000000000000000e+00,1.000000000000000000e+00,2.000000000000000000e+00,-8.000000000000000000e+00,-1.700000000000000000e+01,-3.887329101562500000e-01,6.079101562500000000e-02,7.944335937500000000e-01,4.625854492187500000e-01
-1.500000000000000000e+01,-9.000000000000000000e+00,-1.900000000000000000e+01,2.000000000000000000e+00,-3.000000000000000000e+00,-9.000000000000000000e+00,2.500000000000000000e+01,1.400000000000000000e+01,-3.887329101562500000e-01,6.079101562500000000e-02,7.944335937500000000e-01,4.625854492187500000e-01
4.000000000000000000e+00,3.000000000000000000e+00,5.000000000000000000e+00,-8.000000000000000000e+00,-1.000000000000000000e+00,8.000000000000000000e+00,1.100000000000000000e+01,5.000000000000000000e+00,-3.887329101562500000e-01,6.079101562500000000e-02,7.944335937500000000e-01,4.625854492187500000e-01
-3.000000000000000000e+00,-9.000000000000000000e+00,-2.500000000000000000e+01,8.000000000000000000e+00,1.000000000000000000e+00,-9.000000000000000000e+00,-2.500000000000000000e+01,-1.400000000000000000e+01,-3.893432617187500000e-01,6.201171875000000000e-02,7.947387695312500000e-01,4.614257812500000000e-01
-1.000000000000000000e+00,2.000000000000000000e+00,3.500000000000000000e+01,3.000000000000000000e+00,-3.000000000000000000e+00,9.000000000000000000e+00,1.900000000000000000e+01,2.000000000000000000e+00,-3.893432617187500000e-01,6.201171875000000000e-02,7.947387695312500000e-01,4.614257812500000000e-01
5.000000000000000000e+00,2.000000000000000000e+00,-3.700000000000000000e+01,-6.000000000000000000e+00,1.000000000000000000e+00,-1.000000000000000000e+01,-1.800000000000000000e+01,9.000000000000000000e+00,-3.893432617187500000e-01,6.201171875000000000e-02,7.947387695312500000e-01,4.614257812500000000e-01
-2.000000000000000000e+00,-1.000000000000000000e+00,2.000000000000000000e+01,4.000000000000000000e+00,4.000000000000000000e+00,1.400000000000000000e+01,1.000000000000000000e+00,3.800000000000000000e+01,-3.893432617187500000e-01,6.201171875000000000e-02,7.947387695312500000e-01,4.614257812500000000e-01
0.000000000000000000e+00,4.000000000000000000e+00,1.400000000000000000e+01,-7.000000000000000000e+00,-5.000000000000000000e+00,-7.000000000000000000e+00,2.100000000000000000e+01,-8.000000000000000000e+00,-3.907470703125000000e-01,6.146240234375000000e-02,7.951660156250000000e-01,4.594726562500000000e-01
8.000000000000000000e+00,8.000000000000000000e+00,3.000000000000000000e+00,9.000000000000000000e+00,1.000000000000000000e+00,-1.500000000000000000e+01,-2.000000000000000000e+00,6.000000000000000000e+00,-3.907470703125000000e-01,6.146240234375000000e-02,7.951660156250000000e-01,4.594726562500000000e-01
0.000000000000000000e+00,0.000000000000000000e+00,2.900000000000000000e+01,5.000000000000000000e+00,0.000000000000000000e+00,1.400000000000000000e+01,-5.000000000000000000e+00,-1.500000000000000000e+01,-3.907470703125000000e-01,6.146240234375000000e-02,7.951660156250000000e-01,4.594726562500000000e-01
2.000000000000000000e+00,-3.000000000000000000e+00,-3.000000000000000000e+00,-4.000000000000000000e+00,-1.000000000000000000e+00,1.600000000000000000e+01,1.500000000000000000e+01,-9.000000000000000000e+00,-3.907470703125000000e-01,6.146240234375000000e-02,7.951660156250000000e-01,4.594726562500000000e-01
-6.000000000000000000e+00,-8.000000000000000000e+00,-1.000000000000000000e+00,-2.000000000000000000e+00,-2.000000000000000000e+00,-8.000000000000000000e+00,1.000000000000000000e+00,1.700000000000000000e+01,-3.909912109375000000e-01,6.231689453125000000e-02,7.952270507812500000e-01,4.591064453125000000e-01
1.000000000000000000e+00,2.000000000000000000e+00,7.000000000000000000e+00,0.000000000000000000e+00,1.000000000000000000e+00,-4.000000000000000000e+00,-1.900000000000000000e+01,3.000000000000000000e+00,-3.909912109375000000e-01,6.231689453125000000e-02,7.952270507812500000e-01,4.591064453125000000e-01
2.000000000000000000e+00,5.000000000000000000e+00,2.400000000000000000e+01,1.000000000000000000e+00,-2.000000000000000000e+00,-8.000000000000000000e+00,1.000000000000000000e+00,-1.500000000000000000e+01,-3.909912109375000000e-01,6.231689453125000000e-02,7.952270507812500000e-01,4.591064453125000000e-01
1.000000000000000000e+00,-4.000000000000000000e+00,-3.600000000000000000e+01,1.000000000000000000e+00,2.000000000000000000e+00,3.000000000000000000e+00,-2.000000000000000000e+01,-1.400000000000000000e+01,-3.909912109375000000e-01,6.231689453125000000e-02,7.952270507812500000e-01,4.591064453125000000e-01
4.000000000000000000e+00,1.000000000000000000e+00,1.400000000000000000e+01,2.000000000000000000e+00,-1.000000000000000000e+00,1.300000000000000000e+01,3.100000000000000000e+01,2.900000000000000000e+01,-3.904418945312500000e-01,6.420898437500000000e-02,7.948608398437500000e-01,4.600219726562500000e-01
-5.000000000000000000e+00,-3.000000000000000000e+00,-7.000000000000000000e+00,-1.200000000000000000e+01,-7.000000000000000000e+00,-6.000000000000000000e+00,-1.100000000000000000e+01,-4.000000000000000000e+00,-3.904418945312500000e-01,6.420898437500000000e-02,7.948608398437500000e-01,4.600219726562500000e-01
2.000000000000000000e+00,6.000000000000000000e+00,-9.000000000000000000e+00,-2.000000000000000000e+00,4.000000000000000000e+00,4.000000000000000000e+00,-1.000000000000000000e+00,-1.400000000000000000e+01,-3.904418945312500000e-01,6.420898437500000000e-02,7.948608398437500000e-01,4.600219726562500000e-01
1.000000000000000000e+00,2.000000000000000000e+00,4.000000000000000000e+00,7.000000000000000000e+00,-1.000000000000000000e+00,-5.000000000000000000e+00,1.100000000000000000e+01,-7.000000000000000000e+00,-3.904418945312500000e-01,6.420898437500000000e-02,7.948608398437500000e-01,4.600219726562500000e-01
3.000000000000000000e+00,-1.000000000000000000e+00,-1.800000000000000000e+01,-1.300000000000000000e+01,1.000000000000000000e+00,-4.000000000000000000e+00,-9.000000000000000000e+00,8.000000000000000000e+00,-3.893432617187500000e-01,6.658935546875000000e-02,7.946777343750000000e-01,4.608154296875000000e-01
-3.000000000000000000e+00,-5.000000000000000000e+00,8.000000000000000000e+00,1.000000000000000000e+00,-1.000000000000000000e+00,2.000000000000000000e+00,2.800000000000000000e+01,-2.000000000000000000e+00,-3.893432617187500000e-01,6.658935546875000000e-02,7.946777343750000000e-01,4.608154296875000000e-01
4.000000000000000000e+00,-2.100000000000000000e+01,3.000000000000000000e+00,-9.000000000000000000e+00,3.000000000000000000e+00,3.000000000000000000e+00,-3.800000000000000000e+01,1.900000000000000000e+01,-3.893432617187500000e-01,6.658935546875000000e-02,7.946777343750000000e-01,4.608154296875000000e-01
-5.000000000000000000e+00,2.500000000000000000e+01,-7.000000000000000000e+00,1.100000000000000000e+01,0.000000000000000000e+00,-8.000000000000000000e+00,-2.000000000000000000e+00,-4.000000000000000000e+00,-3.893432617187500000e-01,6.658935546875000000e-02,7.946777343750000000e-01,4.608154296875000000e-01
-5.000000000000000000e+00,-1.300000000000000000e+01,-2.000000000000000000e+00,0.000000000000000000e+00,-6.000000000000000000e+00,-2.000000000000000000e+00,-7.000000000000000000e+00,-1.200000000000000000e+01,-3.895263671875000000e-01,6.762695312500000000e-02,7.950439453125000000e-01,4.599609375000000000e-01
-1.000000000000000000e+00,-5.000000000000000000e+00,-5.000000000000000000e+00,8.000000000000000000e+00,5.000000000000000000e+00,2.400000000000000000e+01,2.000000000000000000e+00,-1.500000000000000000e+01,-3.895263671875000000e-01,6.762695312500000000e-02,7.950439453125000000e-01,4.599609375000000000e-01
-1.100000000000000000e+01,4.000000000000000000e+00,2.100000000000000000e+01,-8.000000000000000000e+00,-3.000000000000000000e+00,-4.000000000000000000e+00,1.400000000000000000e+01,-4.000000000000000000e+00,-3.895263671875000000e-01,6.762695312500000000e-02,7.950439453125000000e-01,4.599609375000000000e-01
-1.000000000000000000e+00,-1.600000000000000000e+01,-1.800000000000000000e+01,-5.000000000000000000e+00,-6.000000000000000000e+00,-1.400000000000000000e+01,3.000000000000000000e+00,-4.000000000000000000e+00,-3.895263671875000000e-01,6.762695312500000000e-02,7.950439453125000000e-01,4.599609375000000000e-01
4.000000000000000000e+00,-4.000000000000000000e+00,2.000000000000000000e+01,-1.100000000000000000e+01,-3.000000000000000000e+00,2.100000000000000000e+01,2.400000000000000000e+01,1.400000000000000000e+01,-3.916015625000000000e-01,6.420898437500000000e-02,7.957153320312500000e-01,4.575195312500000000e-01
-7.000000000000000000e+00,-1.000000000000000000e+00,-2.500000000000000000e+01,6.000000000000000000e+00,-4.000000000000000000e+00,-8.000000000000000000e+00,-3.500000000000000000e+01,-2.900000000000000000e+01,-3.916015625000000000e-01,6.420898437500000000e-02,7.957153320312500000e-01,4.575195312500000000e-01
7.000000000000000000e+00,-6.000000000000000000e+00,2.800000000000000000e+01,3.000000000000000000e+00,-8.000000000000000000e+00,-1.200000000000000000e+01,-1.500000000000000000e+01,0.000000000000000000e+00,-3.916015625000000000e-01,6.420898437500000000e-02,7.957153320312500000e-01,4.575195312500000000e-01
-4.000000000000000000e+00,8.000000000000000000e+00,9.000000000000000000e+00,-2.000000000000000000e+00,4.000000000000000000e+00,2.100000000000000000e+01,1.000000000000000000e+01,-4.000000000000000000e+00,-3.916015625000000000e-01,6.420898437500000000e-02,7.957153320312500000e-01,4.575195312500000000e-01
-8.000000000000000000e+00,-2.000000000000000000e+00,-8.000000000000000000e+00,-3.000000000000000000e+00,-4.000000000000000000e+00,-9.000000000000000000e+00,-3.000000000000000000e+00,3.000000000000000000e+00,-3.915405273437500000e-01,6.060791015625000000e-02,7.961425781250000000e-01,4.572753906250000000e-01
2.000000000000000000e+00,2.000000000000000000e+00,1.200000000000000000e+01,1.200000000000000000e+01,4.000000000000000000e+00,-2.100000000000000000e+01,-3.600000000000000000e+01,-8.000000000000000000e+00,-3.915405273437500000e-01,6.060791015625000000e-02,7.961425781250000000e-01,4.572753906250000000e-01
1.300000000000000000e+01,0.000000000000000000e+00,5.000000000000000000e+00,1.300000000000000000e+01,7.000000000000000000e+00,1.900000000000000000e+01,3.800000000000000000e+01,2.700000000000000000e+01,-3.915405273437500000e-01,6.060791015625000000e-02,7.961425781250000000e-01,4.572753906250000000e-01
-1.100000000000000000e+01,0.000000000000000000e+00,3.000000000000000000e+00,-1.300000000000000000e+01,-3.000000000000000000e+00,-2.000000000000000000e+00,7.000000000000000000e+00,-1.900000000000000000e+01,-3.915405273437500000e-01,6.060791015625000000e-02,7.961425781250000000e-01,4.572753906250000000e-01
-6.000000000000000000e+00,6.000000000000000000e+00,7.000000000000000000e+00,3.000000000000000000e+00,-3.000000000000000000e+00,-1.200000000000000000e+01,-2.000000000000000000e+00,0.000000000000000000e+00,-3.898925781250000000e-01,6.085205078125000000e-02,7.957763671875000000e-01,4.592895507812500000e-01
-3.000000000000000000e+00,8.000000000000000000e+00,-3.100000000000000000e+01,-1.400000000000000000e+01,-6.000000000000000000e+00,3.000000000000000000e+00,-4.000000000000000000e+00,-2.000000000000000000e+00,-3.898925781250000000e-01,6.085205078125000000e-02,7.957763671875000000e-01,4.592895507812500000e-01
5.000000000000000000e+00,-5.000000000000000000e+00,3.000000000000000000e+00,4.000000000000000000e+00,2.000000000000000000e+00,-9.000000000000000000e+00,1.000000000000000000e+01,1.500000000000000000e+01,-3.898925781250000000e-01,6.085205078125000000e-02,7.957763671875000000e-01,4.592895507812500000e-01
1.000000000000000000e+00,-6.000000000000000000e+00,-1.000000000000000000e+01,-7.000000000000000000e+00,-2.000000000000000000e+00,-7.000000000000000000e+00,-3.700000000000000000e+01,-2.100000000000000000e+01,-3.898925781250000000e-01,6.085205078125000000e-02,7.957763671875000000e-01,4.592895507812500000e-01
-3.000000000000000000e+00,-8.000000000000000000e+00,2.000000000000000000e+00,-1.000000000000000000e+00,3.000000000000000000e+00,1.000000000000000000e+00,3.100000000000000000e+01,2.400000000000000000e+01,-3.892211914062500000e-01,6.097412109375000000e-02,7.949829101562500000e-01,4.611816406250000000e-01
2.000000000000000000e+01,4.000000000000000000e+00,1.700000000000000000e+01,-3.000000000000000000e+00,-3.000000000000000000e+00,0.000000000000000000e+00,8.000000000000000000e+00,1.600000000000000000e+01,-3.892211914062500000e-01,6.097412109375000000e-02,7.949829101562500000e-01,4.611816406250000000e-01
1.200000000000000000e+01,2.100000000000000000e+01,-1.700000000000000000e+01,-2.000000000000000000e+00,-1.000000000000000000e+00,2.000000000000000000e+00,0.000000000000000000e+00,-1.100000000000000000e+01,-3.892211914062500000e-01,6.097412109375000000e-02,7.949829101562500000e-01,4.611816406250000000e-01
-2.600000000000000000e+01,-2.200000000000000000e+01,2.000000000000000000e+00,-3.000000000000000000e+00,-7.000000000000000000e+00,-6.000000000000000000e+00,-7.000000000000000000e+00,-4.000000000000000000e+00,-3.892211914062500000e-01,6.097412109375000000e-02,7.949829101562500000e-01,4.611816406250000000e-01
-1.300000000000000000e+01,-1.100000000000000000e+01,-3.600000000000000000e+01,0.000000000000000000e+00,-2.000000000000000000e+00,-2.000000000000000000e+00,-2.500000000000000000e+01,-3.100000000000000000e+01,-3.899536132812500000e-01,6.018066406250000000e-02,7.946777343750000000e-01,4.612426757812500000e-01
-5.000000000000000000e+00,-1.600000000000000000e+01,2.000000000000000000e+00,6.000000000000000000e+00,-2.000000000000000000e+00,0.000000000000000000e+00,-1.000000000000000000e+00,4.000000000000000000e+00,-3.899536132812500000e-01,6.018066406250000000e-02,7.946777343750000000e-01,4.612426757812500000e-01
1.800000000000000000e+01,-3.000000000000000000e+00,-5.000000000000000000e+00,-1.700000000000000000e+01,-4.000000000000000000e+00,-3.000000000000000000e+00,9.000000000000000000e+00,6.000000000000000000e+00,-3.899536132812500000e-01,6.018066406250000000e-02,7.946777343750000000e-01,4.612426757812500000e-01
7.000000000000000000e+00,3.300000000000000000e+01,6.000000000000000000e+00,3.000000000000000000e+00,3.000000000000000000e+00,-2.000000000000000000e+00,7.000000000000000000e+00,5.000000000000000000e+00,-3.899536132812500000e-01,6.018066406250000000e-02,7.946777343750000000e-01,4.612426757812500000e-01
8.000000000000000000e+00,6.000000000000000000e+00,3.300000000000000000e+01,1.200000000000000000e+01,-1.000000000000000000e+00,-8.000000000000000000e+00,-2.000000000000000000e+00,4.000000000000000000e+00,-3.914794921875000000e-01,5.853271484375000000e-02,7.941894531250000000e-01,4.610595703125000000e-01
-6.000000000000000000e+00,-1.500000000000000000e+01,-6.500000000000000000e+01,-7.000000000000000000e+00,-7.000000000000000000e+00,-2.000000000000000000e+00,-4.000000000000000000e+00,5.000000000000000000e+00,-3.914794921875000000e-01,5.853271484375000000e-02,7.941894531250000000e-01,4.610595703125000000e-01
-6.000000000000000000e+00,6.000000000000000000e+00,3.400000000000000000e+01,1.000000000000000000e+00,1.000000000000000000e+00,3.000000000000000000e+00,-7.000000000000000000e+00,-1.000000000000000000e+01,-3.914794921875000000e-01,5.853271484375000000e-02,7.941894531250000000e-01,4.610595703125000000e-01
8.000000000000000000e+00,3.000000000000000000e+00,-1.500000000000000000e+01,4.000000000000000000e+00,0.000000000000000000e+00,-1.000000000000000000e+01,8.000000000000000000e+00,-2.000000000000000000e+00,-3.914794921875000000e-01,5.853271484375000000e-02,7.941894531250000000e-01,4.610595703125000000e-01
-5.000000000000000000e+00,-1.000000000000000000e+00,1.700000000000000000e+01,-1.000000000000000000e+01,-2.000000000000000000e+00,2.000000000000000000e+00,2.000000000000000000e+00,2.800000000000000000e+01,-3.928833007812500000e-01,5.535888671875000000e-02,7.937011718750000000e-01,4.610595703125000000e-01
-8.000000000000000000e+00,4.000000000000000000e+00,1.400000000000000000e+01,-1.200000000000000000e+01,0.000000000000000000e+00,-2.000000000000000000e+00,-1.600000000000000000e+01,-1.600000000000000000e+01,-3.928833007812500000e-01,5.535888671875000000e-02,7.937011718750000000e-01,4.610595703125000000e-01
-4.000000000000000000e+00,-2.000000000000000000e+00,8.000000000000000000e+00,1.100000000000000000e+01,-3.000000000000000000e+00,-4.000000000000000000e+00,-1.000000000000000000e+01,-1.400000000000000000e+01,-3.928833007812500000e-01,5.535888671875000000e-02,7.937011718750000000e-01,4.610595703125000000e-01
2.000000000000000000e+00,3.000000000000000000e+00,2.000000000000000000e+00,-1.000000000000000000e+00,0.000000000000000000e+00,2.000000000000000000e+00,4.000000000000000000e+00,-1.000000000000000000e+00,-3.928833007812500000e-01,5.535888671875000000e-02,7.937011718750000000e-01,4.610595703125000000e-01
-3.000000000000000000e+00,-1.100000000000000000e+01,-4.400000000000000000e+01,7.000000000000000000e+00,-2.000000000000000000e+00,-1.200000000000000000e+01,-1.900000000000000000e+01,-4.300000000000000000e+01,-3.919067382812500000e-01,5.358886718750000000e-02,7.933959960937500000e-01,4.625854492187500000e-01
7.000000000000000000e+00,2.000000000000000000e+00,2.800000000000000000e+01,-4.000000000000000000e+00,3.000000000000000000e+00,1.100000000000000000e+01,1.200000000000000000e+01,2.600000000000000000e+01,-3.919067382812500000e-01,5.358886718750000000e-02,7.933959960937500000e-01,4.625854492187500000e-01
0.000000000000000000e+00,4.000000000000000000e+00,-2.300000000000000000e+01,-1.300000000000000000e+01,-5.000000000000000000e+00,5.000000000000000000e+00,1.200000000000000000e+01,1.200000000000000000e+01,-3.919067382812500000e-01,5.358886718750000000e-02,7.933959960937500000e-01,4.625854492187500000e-01
3.900000000000000000e+01,6.000000000000000000e+00,3.000000000000000000e+01,4.000000000000000000e+00,2.000000000000000000e+00,-8.000000000000000000e+00,-4.000000000000000000e+00,7.000000000000000000e+00,-3.919067382812500000e-01,5.358886718750000000e-02,7.933959960937500000e-01,4.625854492187500000e-01
-1.900000000000000000e+01,-7.000000000000000000e+00,-2.400000000000000000e+01,-1.000000000000000000e+00,-3.000000000000000000e+00,0.000000000000000000e+00,-1.400000000000000000e+01,-1.000000000000000000e+01,-3.895874023437500000e-01,5.358886718750000000e-02,7.932739257812500000e-01,4.647827148437500000e-01
-2.800000000000000000e+01,5.000000000000000000e+00,-3.200000000000000000e+01,7.000000000000000000e+00,2.000000000000000000e+00,-1.000000000000000000e+00,0.000000000000000000e+00,-3.000000000000000000e+00,-3.895874023437500000e-01,5.358886718750000000e-02,7.932739257812500000e-01,4.647827148437500000e-01
-1.200000000000000000e+01,-1.700000000000000000e+01,1.800000000000000000e+01,-2.000000000000000000e+00,-6.000000000000000000e+00,-7.000000000000000000e+00,-1.800000000000000000e+01,-2.800000000000000000e+01,-3.895874023437500000e-01,5.358886718750000000e-02,7.932739257812500000e-01,4.647827148437500000e-01
3.000000000000000000e+01,-8.000000000000000000e+00,-2.000000000000000000e+00,-9.000000000000000000e+00,-2.000000000000000000e+00,8.000000000000000000e+00,1.000000000000000000e+01,1.400000000000000000e+01,-3.895874023437500000e-01,5.358886718750000000e-02,7.932739257812500000e-01,4.647827148437500000e-01
-1.600000000000000000e+01,7.000000000000000000e+00,2.200000000000000000e+01,-4.000000000000000000e+00,-2.000000000000000000e+00,3.000000000000000000e+00,-2.000000000000000000e+00,-5.000000000000000000e+00,-3.888549804687500000e-01,5.041503906250000000e-02,7.933349609375000000e-01,4.656372070312500000e-01
1.000000000000000000e+00,6.000000000000000000e+00,8.000000000000000000e+00,-5.000000000000000000e+00,2.000000000000000000e+00,-6.000000000000000000e+00,1.000000000000000000e+00,-7.000000000000000000e+00,-3.888549804687500000e-01,5.041503906250000000e-02,7.933349609375000000e-01,4.656372070312500000e-01
-3.000000000000000000e+00,4.000000000000000000e+00,-4.000000000000000000e+00,9.000000000000000000e+00,4.000000000000000000e+00,4.000000000000000000e+00,2.500000000000000000e+01,8.000000000000000000e+00,-3.888549804687500000e-01,5.041503906250000000e-02,7.933349609375000000e-01,4.656372070312500000e-01
-7.000000000000000000e+00,-1.800000000000000000e+01,-4.300000000000000000e+01,-1.000000000000000000e+01,-2.000000000000000000e+00,-6.000000000000000000e+00,8.000000000000000000e+00,-4.000000000000000000e+00,-3.888549804687500000e-01,5.041503906250000000e-02,7.933349609375000000e-01,4.656372070312500000e-01
9.000000000000000000e+00,1.000000000000000000e+01,-8.000000000000000000e+00,-2.000000000000000000e+00,-2.000000000000000000e+00,-3.000000000000000000e+00,2.000000000000000000e+00,3.300000000000000000e+01,-3.887329101562500000e-01,4.528808593750000000e-02,7.934570312500000000e-01,4.660644531250000000e-01
2.300000000000000000e+01,-1.000000000000000000e+00,1.400000000000000000e+01,-1.000000000000000000e+00,-3.000000000000000000e+00,-5.000000000000000000e+00,-2.400000000000000000e+01,1.000000000000000000e+00,-3.887329101562500000e-01,4.528808593750000000e-02,7.934570312500000000e-01,4.660644531250000000e-01
-3.600000000000000000e+01,5.000000000000000000e+00,-1.000000000000000000e+00,0.000000000000000000e+00,-5.000000000000000000e+00,3.000000000000000000e+00,2.000000000000000000e+00,-1.400000000000000000e+01,-3.874511718750000000e-01,4.132080078125000000e-02,7.930297851562500000e-01,4.682006835937500000e-01
-1.800000000000000000e+01,-5.500000000000000000e+01,5.000000000000000000e+00,-1.000000000000000000e+01,-5.000000000000000000e+00,-1.000000000000000000e+01,-6.000000000000000000e+00,-8.000000000000000000e+00,-3.874511718750000000e-01,4.132080078125000000e-02,7.930297851562500000e-01,4.682006835937500000e-01
5.000000000000000000e+00,1.000000000000000000e+01,-3.000000000000000000e+00,3.000000000000000000e+00,3.000000000000000000e+00,6.000000000000000000e+00,1.400000000000000000e+01,-1.500000000000000000e+01,-3.874511718750000000e-01,4.132080078125000000e-02,7.930297851562500000e-01,4.682006835937500000e-01
-2.200000000000000000e+01,2.200000000000000000e+01,-2.000000000000000000e+00,-1.200000000000000000e+01,0.000000000000000000e+00,-2.100000000000000000e+01,3.000000000000000000e+00,9.000000000000000000e+00,-3.874511718750000000e-01,4.132080078125000000e-02,7.930297851562500000e-01,4.682006835937500000e-01
0.000000000000000000e+00,1.100000000000000000e+01,1.000000000000000000e+01,8.000000000000000000e+00,-1.000000000000000000e+00,4.000000000000000000e+00,-1.000000000000000000e+00,7.000000000000000000e+00,-3.851318359375000000e-01,3.979492187500000000e-02,7.921142578125000000e-01,4.717407226562500000e-01
-1.000000000000000000e+01,-2.400000000000000000e+01,-5.000000000000000000e+00,1.100000000000000000e+01,5.000000000000000000e+00,8.000000000000000000e+00,1.700000000000000000e+01,3.000000000000000000e+00,-3.851318359375000000e-01,3.979492187500000000e-02,7.921142578125000000e-01,4.717407226562500000e-01
4.000000000000000000e+00,1.300000000000000000e+01,1.300000000000000000e+01,1.700000000000000000e+01,6.000000000000000000e+00,-3.000000000000000000e+00,-1.600000000000000000e+01,1.500000000000000000e+01,-3.851318359375000000e-01,3.979492187500000000e-02,7.921142578125000000e-01,4.717407226562500000e-01
2.000000000000000000e+01,-1.100000000000000000e+01,6.000000000000000000e+00,2.000000000000000000e+00,-3.000000000000000000e+00,-4.000000000000000000e+00,-1.200000000000000000e+01,-3.600000000000000000e+01,-3.851318359375000000e-01,3.979492187500000000e-02,7.921142578125000000e-01,4.717407226562500000e-01
1.600000000000000000e+01,9.000000000000000000e+00,-2.500000000000000000e+01,-2.000000000000000000e+00,1.100000000000000000e+01,6.500000000000000000e+01,4.000000000000000000e+01,3.200000000000000000e+01,-3.823852539062500000e-01,3.796386718750000000e-02,7.907714843750000000e-01,4.763793945312500000e-01
-2.400000000000000000e+01,1.600000000000000000e+01,1.700000000000000000e+01,-2.000000000000000000e+00,-5.000000000000000000e+00,-1.400000000000000000e+01,-1.600000000000000000e+01,6.000000000000000000e+00,-3.823852539062500000e-01,3.796386718750000000e-02,7.907714843750000000e-01,4.763793945312500000e-01
1.900000000000000000e+01,1.000000000000000000e+00,4.000000000000000000e+00,-3.000000000000000000e+00,-1.000000000000000000e+00,-1.000000000000000000e+00,1.500000000000000000e+01,-1.000000000000000000e+01,-3.823852539062500000e-01,3.796386718750000000e-02,7.907714843750000000e-01,4.763793945312500000e-01
-9.000000000000000000e+00,-2.000000000000000000e+01,-3.800000000000000000e+01,-1.600000000000000000e+01,-6.000000000000000000e+00,1.100000000000000000e+01,3.000000000000000000e+00,3.700000000000000000e+01,-3.823852539062500000e-01,3.796386718750000000e-02,7.907714843750000000e-01,4.763793945312500000e-01
-1.600000000000000000e+01,-7.000000000000000000e+00,9.000000000000000000e+00,3.000000000000000000e+00,1.000000000000000000e+00,-2.000000000000000000e+01,-2.500000000000000000e+01,-4.500000000000000000e+01,-3.808593750000000000e-01,3.472900390625000000e-02,7.895507812500000000e-01,4.798583984375000000e-01
6.000000000000000000e+00,1.100000000000000000e+01,7.000000000000000000e+00,1.800000000000000000e+01,2.000000000000000000e+00,4.000000000000000000e+00,3.000000000000000000e+01,2.400000000000000000e+01,-3.808593750000000000e-01,3.472900390625000000e-02,7.895507812500000000e-01,4.798583984375000000e-01
3.000000000000000000e+00,-8.000000000000000000e+00,-2.800000000000000000e+01,-1.900000000000000000e+01,-1.100000000000000000e+01,-6.000000000000000000e+00,-4.200000000000000000e+01,1.700000000000000000e+01,-3.808593750000000000e-01,3.472900390625000000e-02,7.895507812500000000e-01,4.798583984375000000e-01
0.000000000000000000e+00,1.000000000000000000e+01,4.900000000000000000e+01,2.000000000000000000e+00,6.000000000000000000e+00,2.000000000000000000e+00,3.000000000000000000e+00,-2.000000000000000000e+01,-3.808593750000000000e-01,3.472900390625000000e-02,7.895507812500000000e-01,4.798583984375000000e-01
-5.000000000000000000e+00,-2.300000000000000000e+01,-5.300000000000000000e+01,-9.000000000000000000e+00,-5.000000000000000000e+00,-1.800000000000000000e+01,-2.200000000000000000e+01,-6.000000000000000000e+00,-3.818359375000000000e-01,2.984619140625000000e-02,7.875976562500000000e-01,4.826049804687500000e-01
-4.000000000000000000e+00,-7.000000000000000000e+00,-4.000000000000000000e+00,-5.000000000000000000e+00,-4.000000000000000000e+00,-3.000000000000000000e+00,-1.300000000000000000e+01,-1.000000000000000000e+01,-3.818359375000000000e-01,2.984619140625000000e-02,7.875976562500000000e-01,4.826049804687500000e-01
-2.000000000000000000e+00,8.000000000000000000e+00,-2.000000000000000000e+00,0.000000000000000000e+00,4.000000000000000000e+00,-4.000000000000000000e+00,-1.200000000000000000e+01,-4.700000000000000000e+01,-3.818359375000000000e-01,2.984619140625000000e-02,7.875976562500000000e-01,4.826049804687500000e-01
-9.000000000000000000e+00,-2.500000000000000000e+01,-2.200000000000000000e+01,-3.000000000000000000e+00,-9.000000000000000000e+00,-6.000000000000000000e+00,2.600000000000000000e+01,2.900000000000000000e+01,-3.818359375000000000e-01,2.984619140625000000e-02,7.875976562500000000e-01,4.826049804687500000e-01
1.600000000000000000e+01,-4.000000000000000000e+00,1.300000000000000000e+01,-1.300000000000000000e+01,-5.000000000000000000e+00,-9.000000000000000000e+00,-1.100000000000000000e+01,1.400000000000000000e+01,-3.826293945312500000e-01,2.447509765625000000e-02,7.865600585937500000e-01,4.840087890625000000e-01
3.000000000000000000e+00,2.500000000000000000e+01,1.000000000000000000e+01,9.000000000000000000e+00,4.000000000000000000e+00,1.400000000000000000e+01,-1.000000000000000000e+00,-9.000000000000000000e+00,-3.826293945312500000e-01,2.447509765625000000e-02,7.865600585937500000e-01,4.840087890625000000e-01
-4.000000000000000000e+00,-8.000000000000000000e+00,8.000000000000000000e+00,-7.000000000000000000e+00,-4.000000000000000000e+00,-1.700000000000000000e+01,-2.200000000000000000e+01,-4.000000000000000000e+00,-3.826293945312500000e-01,2.447509765625000000e-02,7.865600585937500000e-01,4.840087890625000000e-01
0.000000000000000000e+00,1.100000000000000000e+01,0.000000000000000000e+00,1.500000000000000000e+01,3.000000000000000000e+00,5.000000000000000000e+00,-1.300000000000000000e+01,-6.000000000000000000e+00,-3.826293945312500000e-01,2.447509765625000000e-02,7.865600585937500000e-01,4.840087890625000000e-01
-7.000000000000000000e+00,-1.300000000000000000e+01,-1.400000000000000000e+01,-1.400000000000000000e+01,-4.000000000000000000e+00,-5.000000000000000000e+00,3.000000000000000000e+00,-3.000000000000000000e+00,-3.839721679687500000e-01,1.800537109375000000e-02,7.851562500000000000e-01,4.855957031250000000e-01
-5.000000000000000000e+00,-2.000000000000000000e+00,-2.200000000000000000e+01,7.000000000000000000e+00,-2.000000000000000000e+00,-5.000000000000000000e+00,-7.000000000000000000e+00,0.000000000000000000e+00,-3.839721679687500000e-01,1.800537109375000000e-02,7.851562500000000000e-01,4.855957031250000000e-01
9.000000000000000000e+00,-1.000000000000000000e+01,2.400000000000000000e+01,-1.500000000000000000e+01,-2.000000000000000000e+00,2.000000000000000000e+00,3.300000000000000000e+01,3.000000000000000000e+00,-3.839721679687500000e-01,1.800537109375000000e-02,7.851562500000000000e-01,4.855957031250000000e-01
1.000000000000000000e+01,1.000000000000000000e+01,2.000000000000000000e+01,0.000000000000000000e+00,-1.000000000000000000e+00,-1.300000000000000000e+01,-1.700000000000000000e+01,-1.400000000000000000e+01,-3.839721679687500000e-01,1.800537109375000000e-02,7.851562500000000000e-01,4.855957031250000000e-01
0.000000000000000000e+00,3.000000000000000000e+00,6.000000000000000000e+00,9.000000000000000000e+00,3.000000000000000000e+00,-1.000000000000000000e+00,1.400000000000000000e+01,-2.000000000000000000e+00,-3.837280273437500000e-01,1.440429687500000000e-02,7.832641601562500000e-01,4.888305664062500000e-01
-8.000000000000000000e+00,1.000000000000000000e+00,-1.300000000000000000e+01,-9.000000000000000000e+00,-6.000000000000000000e+00,-1.100000000000000000e+01,0.000000000000000000e+00,4.000000000000000000e+00,-3.837280273437500000e-01,1.440429687500000000e-02,7.832641601562500000e-01,4.888305664062500000e-01
-4.000000000000000000e+00,0.000000000000000000e+00,-1.600000000000000000e+01,5.000000000000000000e+00,-5.000000000000000000e+00,3.000000000000000000e+00,1.900000000000000000e+01,-1.000000000000000000e+00,-3.837280273437500000e-01,1.440429687500000000e-02,7.832641601562500000e-01,4.888305664062500000e-01
4.000000000000000000e+00,8.000000000000000000e+00,1.400000000000000000e+01,1.000000000000000000e+00,5.000000000000000000e+00,1.500000000000000000e+01,-8.000000000000000000e+00,-2.000000000000000000e+00,-3.837280273437500000e-01,1.440429687500000000e-02,7.832641601562500000e-01,4.888305664062500000e-01
-9.000000000000000000e+00,-1.300000000000000000e+01,-2.000000000000000000e+01,-1.900000000000000000e+01,-4.000000000000000000e+00,-1.100000000000000000e+01,2.000000000000000000e+00,6.000000000000000000e+00,-3.823242187500000000e-01,1.354980468750000000e-02,7.819824218750000000e-01,4.920654296875000000e-01
-1.000000000000000000e+01,-2.000000000000000000e+00,3.300000000000000000e+01,1.200000000000000000e+01,-1.000000000000000000e+00,4.000000000000000000e+00,-3.000000000000000000e+00,-9.000000000000000000e+00,-3.823242187500000000e-01,1.354980468750000000e-02,7.819824218750000000e-01,4.920654296875000000e-01
5.000000000000000000e+00,1.000000000000000000e+01,4.000000000000000000e+00,3.000000000000000000e+00,3.000000000000000000e+00,2.000000000000000000e+00,-3.000000000000000000e+00,-7.000000000000000000e+00,-3.823242187500000000e-01,1.354980468750000000e-02,7.819824218750000000e-01,4.920654296875000000e-01
2.400000000000000000e+01,-1.000000000000000000e+00,-1.000000000000000000e+01,-2.000000000000000000e+00,-6.000000000000000000e+00,-2.000000000000000000e+00,2.600000000000000000e+01,2.600000000000000000e+01,-3.823242187500000000e-01,1.354980468750000000e-02,7.819824218750000000e-01,4.920654296875000000e-01
-2.000000000000000000e+00,1.400000000000000000e+01,4.100000000000000000e+01,-2.800000000000000000e+01,-2.000000000000000000e+00,3.000000000000000000e+00,-1.900000000000000000e+01,1.200000000000000000e+01,-3.814086914062500000e-01,1.342773437500000000e-02,7.810058593750000000e-01,4.943237304687500000e-01
9.000000000000000000e+00,-2.900000000000000000e+01,-4.800000000000000000e+01,3.000000000000000000e+01,2.000000000000000000e+00,4.000000000000000000e+00,1.800000000000000000e+01,1.000000000000000000e+00,-3.814086914062500000e-01,1.342773437500000000e-02,7.810058593750000000e-01,4.943237304687500000e-01
-1.700000000000000000e+01,-1.600000000000000000e+01,1.900000000000000000e+01,0.000000000000000000e+00,-4.000000000000000000e+00,-1.400000000000000000e+01,-2.700000000000000000e+01,-2.800000000000000000e+01,-3.814086914062500000e-01,1.342773437500000000e-02,7.810058593750000000e-01,4.943237304687500000e-01
1.300000000000000000e+01,4.000000000000000000e+01,3.100000000000000000e+01,1.700000000000000000e+01,2.000000000000000000e+01,2.100000000000000000e+01,1.100000000000000000e+01,-1.700000000000000000e+01,-3.814086914062500000e-01,1.342773437500000000e-02,7.810058593750000000e-01,4.943237304687500000e-01
-1.400000000000000000e+01,-2.200000000000000000e+01,-2.200000000000000000e+01,-2.000000000000000000e+00,-1.000000000000000000e+00,6.000000000000000000e+00,2.000000000000000000e+01,1.600000000000000000e+01,-3.816528320312500000e-01,1.202392578125000000e-02,7.800903320312500000e-01,4.956054687500000000e-01
-6.000000000000000000e+00,1.000000000000000000e+01,3.400000000000000000e+01,-5.000000000000000000e+00,-7.000000000000000000e+00,-2.700000000000000000e+01,-4.400000000000000000e+01,-3.200000000000000000e+01,-3.816528320312500000e-01,1.202392578125000000e-02,7.800903320312500000e-01,4.956054687500000000e-01
0.000000000000000000e+00,-1.000000000000000000e+00,2.500000000000000000e+01,7.000000000000000000e+00,6.000000000000000000e+00,1.600000000000000000e+01,9.000000000000000000e+00,2.000000000000000000e+01,-3.816528320312500000e-01,1.202392578125000000e-02,7.800903320312500000e-01,4.956054687500000000e-01
1.000000000000000000e+00,1.000000000000000000e+00,-1.900000000000000000e+01,-1.700000000000000000e+01,-6.000000000000000000e+00,1.000000000000000000e+00,1.700000000000000000e+01,4.000000000000000000e+00,-3.816528320312500000e-01,1.202392578125000000e-02,7.800903320312500000e-01,4.956054687500000000e-01
3.000000000000000000e+00,-6.000000000000000000e+00,-4.900000000000000000e+01,-1.000000000000000000e+00,-1.100000000000000000e+01,-2.200000000000000000e+01,-1.000000000000000000e+00,-1.000000000000000000e+01,-3.810424804687500000e-01,1.165771484375000000e-02,7.797241210937500000e-01,4.966430664062500000e-01
4.000000000000000000e+00,4.000000000000000000e+00,4.100000000000000000e+01,2.000000000000000000e+00,-4.000000000000000000e+00,1.000000000000000000e+00,-1.400000000000000000e+01,-9.000000000000000000e+00,-3.810424804687500000e-01,1.165771484375000000e-02,7.797241210937500000e-01,4.966430664062500000e-01
-1.700000000000000000e+01,-1.600000000000000000e+01,-3.400000000000000000e+01,5.000000000000000000e+00,1.000000000000000000e+00,-2.000000000000000000e+00,-8.000000000000000000e+00,-1.200000000000000000e+01,-3.810424804687500000e-01,1.165771484375000000e-02,7.797241210937500000e-01,4.966430664062500000e-01
-5.000000000000000000e+00,-1.000000000000000000e+00,2.900000000000000000e+01,-2.000000000000000000e+00,0.000000000000000000e+00,-7.000000000000000000e+00,-7.000000000000000000e+00,-3.000000000000000000e+00,-3.810424804687500000e-01,1.165771484375000000e-02,7.797241210937500000e-01,4.966430664062500000e-01
7.000000000000000000e+00,1.400000000000000000e+01,-2.000000000000000000e+00,2.100000000000000000e+01,1.000000000000000000e+00,-6.000000000000000000e+00,4.000000000000000000e+00,1.000000000000000000e+01,-3.801269531250000000e-01,1.397705078125000000e-02,7.794189453125000000e-01,4.978027343750000000e-01
2.000000000000000000e+00,2.000000000000000000e+00,-1.400000000000000000e+01,-1.800000000000000000e+01,0.000000000000000000e+00,1.000000000000000000e+01,0.000000000000000000e+00,3.000000000000000000e+00,-3.801269531250000000e-01,1.397705078125000000e-02,7.794189453125000000e-01,4.978027343750000000e-01
1.300000000000000000e+01,2.000000000000000000e+00,-1.000000000000000000e+00,-4.000000000000000000e+00,-1.000000000000000000e+00,0.000000000000000000e+00,2.000000000000000000e+00,1.000000000000000000e+01,-3.801269531250000000e-01,1.397705078125000000e-02,7.794189453125000000e-01,4.978027343750000000e-01
6.000000000000000000e+00,-9.000000000000000000e+00,-5.000000000000000000e+00,2.000000000000000000e+00,-1.000000000000000000e+00,-1.000000000000000000e+00,-7.000000000000000000e+00,6.000000000000000000e+00,-3.801269531250000000e-01,1.397705078125000000e-02,7.794189453125000000e-01,4.978027343750000000e-01
-1.400000000000000000e+01,-4.000000000000000000e+00,4.000000000000000000e+00,7.000000000000000000e+00,-2.000000000000000000e+00,-2.000000000000000000e+00,1.000000000000000000e+01,-1.400000000000000000e+01,-3.805541992187500000e-01,1.672363281250000000e-02,7.786254882812500000e-01,4.985961914062500000e-01
-7.000000000000000000e+00,1.000000000000000000e+00,-1.000000000000000000e+01,-1.400000000000000000e+01,0.000000000000000000e+00,1.000000000000000000e+00,-2.600000000000000000e+01,-5.000000000000000000e+00,-3.805541992187500000e-01,1.672363281250000000e-02,7.786254882812500000e-01,4.985961914062500000e-01
5.000000000000000000e+00,2.000000000000000000e+00,-1.000000000000000000e+00,-1.000000000000000000e+00,0.000000000000000000e+00,9.000000000000000000e+00,1.900000000000000000e+01,6.000000000000000000e+00,-3.805541992187500000e-01,1.672363281250000000e-02,7.786254882812500000e-01,4.985961914062500000e-01
-1.900000000000000000e+01,-2.800000000000000000e+01,0.000000000000000000e+00,-1.100000000000000000e+01,-9.000000000000000000e+00,-8.000000000000000000e+00,0.000000000000000000e+00,-4.000000000000000000e+00,-3.805541992187500000e-01,1.672363281250000000e-02,7.786254882812500000e-01,4.985961914062500000e-01
1.900000000000000000e+01,1.800000000000000000e+01,-6.000000000000000000e+00,1.200000000000000000e+01,5.000000000000000000e+00,1.000000000000000000e+00,-2.300000000000000000e+01,-1.800000000000000000e+01,-3.809204101562500000e-01,1.947021484375000000e-02,7.785644531250000000e-01,4.982299804687500000e-01
-3.000000000000000000e+00,6.000000000000000000e+00,-2.800000000000000000e+01,-3.000000000000000000e+00,-2.000000000000000000e+00,3.000000000000000000e+00,-4.000000000000000000e+00,0.000000000000000000e+00,-3.809204101562500000e-01,1.947021484375000000e-02,7.785644531250000000e-01,4.982299804687500000e-01
-2.000000000000000000e+01,-1.000000000000000000e+01,-5.000000000000000000e+00,-7.000000000000000000e+00,-3.000000000000000000e+00,-1.000000000000000000e+00,1.700000000000000000e+01,1.000000000000000000e+01,-3.809204101562500000e-01,1.947021484375000000e-02,7.785644531250000000e-01,4.982299804687500000e-01
3.000000000000000000e+00,3.000000000000000000e+00,6.000000000000000000e+00,-3.000000000000000000e+00,-7.000000000000000000e+00,1.000000000000000000e+00,-7.000000000000000000e+00,5.000000000000000000e+00,-3.809204101562500000e-01,1.947021484375000000e-02,7.785644531250000000e-01,4.982299804687500000e-01
-4.000000000000000000e+00,-6.000000000000000000e+00,2.300000000000000000e+01,-9.000000000000000000e+00,-3.000000000000000000e+00,0.000000000000000000e+00,4.000000000000000000e+00,1.000000000000000000e+00,-3.823852539062500000e-01,2.056884765625000000e-02,7.786865234375000000e-01,4.969482421875000000e-01
4.000000000000000000e+00,5.000000000000000000e+00,1.300000000000000000e+01,-9.000000000000000000e+00,4.000000000000000000e+00,-5.000000000000000000e+00,1.000000000000000000e+00,-7.000000000000000000e+00,-3.823852539062500000e-01,2.056884765625000000e-02,7.786865234375000000e-01,4.969482421875000000e-01
1.300000000000000000e+01,-2.000000000000000000e+00,-1.500000000000000000e+01,-7.000000000000000000e+00,2.000000000000000000e+00,1.100000000000000000e+01,2.000000000000000000e+00,-1.000000000000000000e+01,-3.823852539062500000e-01,2.056884765625000000e-02,7.786865234375000000e-01,4.969482421875000000e-01
-1.500000000000000000e+01,4.000000000000000000e+00,-2.400000000000000000e+01,1.900000000000000000e+01,-6.000000000000000000e+00,-9.000000000000000000e+00,2.100000000000000000e+01,-7.000000000000000000e+00,-3.823852539062500000e-01,2.056884765625000000e-02,7.786865234375000000e-01,4.969482421875000000e-01
5.000000000000000000e+00,1.000000000000000000e+00,2.100000000000000000e+01,-5.000000000000000000e+00,1.000000000000000000e+00,-5.000000000000000000e+00,-2.600000000000000000e+01,-7.000000000000000000e+00,-3.855590820312500000e-01,1.898193359375000000e-02,7.783813476562500000e-01,4.949951171875000000e-01
-9.000000000000000000e+00,-5.000000000000000000e+00,1.100000000000000000e+01,3.000000000000000000e+00,0.000000000000000000e+00,-6.000000000000000000e+00,-2.000000000000000000e+00,1.100000000000000000e+01,-3.855590820312500000e-01,1.898193359375000000e-02,7.783813476562500000e-01,4.949951171875000000e-01
8.000000000000000000e+00,4.000000000000000000e+00,6.000000000000000000e+00,-4.000000000000000000e+00,-2.000000000000000000e+00,1.300000000000000000e+01,4.000000000000000000e+00,8.000000000000000000e+00,-3.855590820312500000e-01,1.898193359375000000e-02,7.783813476562500000e-01,4.949951171875000000e-01
-5.000000000000000000e+00,-2.000000000000000000e+00,1.400000000000000000e+01,-3.000000000000000000e+00,2.000000000000000000e+00,-2.000000000000000000e+00,-6.000000000000000000e+00,-4.000000000000000000e+00,-3.855590820312500000e-01,1.898193359375000000e-02,7.783813476562500000e-01,4.949951171875000000e-01
8.000000000000000000e+00,1.000000000000000000e+01,1.700000000000000000e+01,-2.000000000000000000e+00,1.000000000000000000e+00,1.000000000000000000e+00,1.200000000000000000e+01,1.700000000000000000e+01,-3.890380859375000000e-01,1.623535156250000000e-02,7.781372070312500000e-01,4.927978515625000000e-01
3.000000000000000000e+00,-1.200000000000000000e+01,-4.000000000000000000e+01,3.000000000000000000e+00,-2.000000000000000000e+00,-2.000000000000000000e+00,3.000000000000000000e+00,-1.500000000000000000e+01,-3.890380859375000000e-01,1.623535156250000000e-02,7.781372070312500000e-01,4.927978515625000000e-01
-9.000000000000000000e+00,-9.000000000000000000e+00,-3.500000000000000000e+01,0.000000000000000000e+00,-2.000000000000000000e+00,-9.000000000000000000e+00,-1.000000000000000000e+01,1.000000000000000000e+00,-3.890380859375000000e-01,1.623535156250000000e-02,7.781372070312500000e-01,4.927978515625000000e-01
-5.000000000000000000e+00,9.000000000000000000e+00,2.400000000000000000e+01,-7.000000000000000000e+00,-1.000000000000000000e+00,0.000000000000000000e+00,-3.300000000000000000e+01,0.000000000000000000e+00,-3.890380859375000000e-01,1.623535156250000000e-02,7.781372070312500000e-01,4.927978515625000000e-01
4.000000000000000000e+00,-9.000000000000000000e+00,-2.200000000000000000e+01,2.000000000000000000e+00,1.000000000000000000e+00,2.000000000000000000e+00,1.500000000000000000e+01,-1.200000000000000000e+01,-3.905639648437500000e-01,1.489257812500000000e-02,7.776489257812500000e-01,4.923706054687500000e-01
1.000000000000000000e+00,1.000000000000000000e+01,2.200000000000000000e+01,-1.000000000000000000e+01,1.000000000000000000e+00,-2.000000000000000000e+00,1.000000000000000000e+00,4.300000000000000000e+01,-3.905639648437500000e-01,1.489257812500000000e-02,7.776489257812500000e-01,4.923706054687500000e-01
8.000000000000000000e+00,-1.100000000000000000e+01,-1.600000000000000000e+01,1.000000000000000000e+00,-2.000000000000000000e+00,1.000000000000000000e+00,-2.000000000000000000e+00,-1.500000000000000000e+01,-3.905639648437500000e-01,1.489257812500000000e-02,7.776489257812500000e-01,4.923706054687500000e-01
-1.200000000000000000e+01,-9.000000000000000000e+00,-2.500000000000000000e+01,0.000000000000000000e+00,-2.000000000000000000e+00,0.000000000000000000e+00,8.000000000000000000e+00,4.000000000000000000e+00,-3.905639648437500000e-01,1.489257812500000000e-02,7.776489257812500000e-01,4.923706054687500000e-01
5.000000000000000000e+00,1.100000000000000000e+01,1.100000000000000000e+01,4.000000000000000000e+00,2.000000000000000000e+00,-1.000000000000000000e+01,-1.400000000000000000e+01,-1.400000000000000000e+01,-3.906860351562500000e-01,1.519775390625000000e-02,7.776489257812500000e-01,4.923095703125000000e-01
6.000000000000000000e+00,1.600000000000000000e+01,2.900000000000000000e+01,4.000000000000000000e+00,-1.000000000000000000e+00,0.000000000000000000e+00,1.700000000000000000e+01,6.000000000000000000e+00,-3.906860351562500000e-01,1.519775390625000000e-02,7.776489257812500000e-01,4.923095703125000000e-01
3.000000000000000000e+00,9.000000000000000000e+00,-3.800000000000000000e+01,4.000000000000000000e+00,8.000000000000000000e+00,2.200000000000000000e+01,1.000000000000000000e+00,1.100000000000000000e+01,-3.906860351562500000e-01,1.519775390625000000e-02,7.776489257812500000e-01,4.923095703125000000e-01
1.000000000000000000e+00,-2.000000000000000000e+01,-1.800000000000000000e+01,-7.000000000000000000e+00,-8.000000000000000000e+00,-1.300000000000000000e+01,-3.100000000000000000e+01,-1.700000000000000000e+01,-3.906860351562500000e-01,1.519775390625000000e-02,7.776489257812500000e-01,4.923095703125000000e-01
-6.000000000000000000e+00,1.300000000000000000e+01,1.800000000000000000e+01,5.000000000000000000e+00,-3.000000000000000000e+00,-4.000000000000000000e+00,0.000000000000000000e+00,-1.000000000000000000e+00,-3.892211914062500000e-01,1.672363281250000000e-02,7.781372070312500000e-01,4.926147460937500000e-01
-1.100000000000000000e+01,-2.000000000000000000e+01,-1.400000000000000000e+01,-6.000000000000000000e+00,-3.000000000000000000e+00,-6.000000000000000000e+00,3.000000000000000000e+00,0.000000000000000000e+00,-3.892211914062500000e-01,1.672363281250000000e-02,7.781372070312500000e-01,4.926147460937500000e-01
-1.200000000000000000e+01,-4.000000000000000000e+00,1.600000000000000000e+01,-8.000000000000000000e+00,-7.000000000000000000e+00,-7.000000000000000000e+00,3.000000000000000000e+00,1.300000000000000000e+01,-3.892211914062500000e-01,1.672363281250000000e-02,7.781372070312500000e-01,4.926147460937500000e-01
-1.000000000000000000e+01,-3.800000000000000000e+01,-2.100000000000000000e+01,-6.000000000000000000e+00,-4.000000000000000000e+00,1.000000000000000000e+00,-1.900000000000000000e+01,-2.000000000000000000e+01,-3.892211914062500000e-01,1.672363281250000000e-02,7.781372070312500000e-01,4.926147460937500000e-01
3.000000000000000000e+00,1.400000000000000000e+01,-7.000000000000000000e+00,5.000000000000000000e+00,5.000000000000000000e+00,1.000000000000000000e+01,-2.000000000000000000e+01,-7.000000000000000000e+00,-3.891601562500000000e-01,1.684570312500000000e-02,7.783813476562500000e-01,4.922485351562500000e-01
-3.300000000000000000e+01,6.000000000000000000e+00,-7.000000000000000000e+00,2.000000000000000000e+00,-2.000000000000000000e+00,1.000000000000000000e+00,6.000000000000000000e+00,1.700000000000000000e+01,-3.891601562500000000e-01,1.684570312500000000e-02,7.783813476562500000e-01,4.922485351562500000e-01
6.700000000000000000e+01,1.200000000000000000e+01,2.500000000000000000e+01,-6.000000000000000000e+00,0.000000000000000000e+00,-5.000000000000000000e+00,2.300000000000000000e+01,2.700000000000000000e+01,-3.891601562500000000e-01,1.684570312500000000e-02,7.783813476562500000e-01,4.922485351562500000e-01
-2.000000000000000000e+00,-2.000000000000000000e+00,1.800000000000000000e+01,0.000000000000000000e+00,2.000000000000000000e+00,4.000000000000000000e+00,-2.300000000000000000e+01,-9.000000000000000000e+00,-3.891601562500000000e-01,1.684570312500000000e-02,7.783813476562500000e-01,4.922485351562500000e-01
-1.600000000000000000e+01,-1.700000000000000000e+01,-4.400000000000000000e+01,-8.000000000000000000e+00,-4.000000000000000000e+00,-4.000000000000000000e+00,4.000000000000000000e+00,1.000000000000000000e+00,-3.904418945312500000e-01,1.519775390625000000e-02,7.774658203125000000e-01,4.927978515625000000e-01
-8.000000000000000000e+00,-5.000000000000000000e+00,4.000000000000000000e+00,-6.000000000000000000e+00,-1.000000000000000000e+00,-1.000000000000000000e+00,-1.100000000000000000e+01,-2.500000000000000000e+01,-3.904418945312500000e-01,1.519775390625000000e-02,7.774658203125000000e-01,4.927978515625000000e-01
-3.300000000000000000e+01,-1.100000000000000000e+01,-5.700000000000000000e+01,-4.000000000000000000e+00,-3.000000000000000000e+00,-6.000000000000000000e+00,-7.000000000000000000e+00,-1.100000000000000000e+01,-3.904418945312500000e-01,1.519775390625000000e-02,7.774658203125000000e-01,4.927978515625000000e-01
-2.000000000000000000e+00,-1.800000000000000000e+01,-5.000000000000000000e+00,-1.700000000000000000e+01,-9.000000000000000000e+00,-6.000000000000000000e+00,2.100000000000000000e+01,-5.000000000000000000e+00,-3.904418945312500000e-01,1.519775390625000000e-02,7.774658203125000000e-01,4.927978515625000000e-01
4.000000000000000000e+00,9.000000000000000000e+00,2.800000000000000000e+01,2.300000000000000000e+01,-2.000000000000000000e+00,-1.900000000000000000e+01,-2.300000000000000000e+01,0.000000000000000000e+00,-3.903808593750000000e-01,1.452636718750000000e-02,7.763061523437500000e-01,4.946289062500000000e-01
-5.000000000000000000e+00,-1.400000000000000000e+01,-4.100000000000000000e+01,-2.000000000000000000e+00,4.000000000000000000e+00,5.400000000000000000e+01,4.200000000000000000e+01,-8.000000000000000000e+00,-3.903808593750000000e-01,1.452636718750000000e-02,7.763061523437500000e-01,4.946289062500000000e-01
4.000000000000000000e+00,6.000000000000000000e+00,0.000000000000000000e+00,-1.200000000000000000e+01,-5.000000000000000000e+00,-1.400000000000000000e+01,-9.000000000000000000e+00,5.000000000000000000e+00,-3.903808593750000000e-01,1.452636718750000000e-02,7.763061523437500000e-01,4.946289062500000000e-01
1.200000000000000000e+01,2.400000000000000000e+01,2.500000000000000000e+01,-2.000000000000000000e+00,9.000000000000000000e+00,-1.000000000000000000e+00,8.000000000000000000e+00,-1.000000000000000000e+00,-3.903808593750000000e-01,1.452636718750000000e-02,7.763061523437500000e-01,4.946289062500000000e-01
-9.000000000000000000e+00,-1.000000000000000000e+01,-1.300000000000000000e+01,7.000000000000000000e+00,-1.000000000000000000e+00,-9.000000000000000000e+00,-1.200000000000000000e+01,1.000000000000000000e+01,-3.892822265625000000e-01,1.336669921875000000e-02,7.758178710937500000e-01,4.963378906250000000e-01
-1.000000000000000000e+00,-5.000000000000000000e+00,-2.600000000000000000e+01,2.000000000000000000e+00,-1.000000000000000000e+00,-1.500000000000000000e+01,-8.000000000000000000e+00,-2.600000000000000000e+01,-3.892822265625000000e-01,1.336669921875000000e-02,7.758178710937500000e-01,4.963378906250000000e-01
-1.300000000000000000e+01,-1.800000000000000000e+01,-1.700000000000000000e+01,-1.300000000000000000e+01,-8.000000000000000000e+00,-1.200000000000000000e+01,-2.700000000000000000e+01,1.400000000000000000e+01,-3.892822265625000000e-01,1.336669921875000000e-02,7.758178710937500000e-01,4.963378906250000000e-01
-4.000000000000000000e+00,1.300000000000000000e+01,6.000000000000000000e+00,3.000000000000000000e+00,2.000000000000000000e+00,1.100000000000000000e+01,3.500000000000000000e+01,-2.300000000000000000e+01,-3.892822265625000000e-01,1.336669921875000000e-02,7.758178710937500000e-01,4.963378906250000000e-01
3.000000000000000000e+00,1.300000000000000000e+01,4.800000000000000000e+01,-7.000000000000000000e+00,1.000000000000000000e+00,8.000000000000000000e+00,7.000000000000000000e+00,2.000000000000000000e+00,-3.878173828125000000e-01,1.208496093750000000e-02,7.751464843750000000e-01,4.985961914062500000e-01
2.000000000000000000e+01,6.000000000000000000e+00,-1.600000000000000000e+01,0.000000000000000000e+00,-4.000000000000000000e+00,-1.800000000000000000e+01,6.000000000000000000e+00,8.000000000000000000e+00,-3.878173828125000000e-01,1.208496093750000000e-02,7.751464843750000000e-01,4.985961914062500000e-01
-1.300000000000000000e+01,-1.700000000000000000e+01,2.000000000000000000e+00,5.000000000000000000e+00,-1.000000000000000000e+00,-2.000000000000000000e+00,-1.500000000000000000e+01,-2.000000000000000000e+01,-3.878173828125000000e-01,1.208496093750000000e-02,7.751464843750000000e-01,4.985961914062500000e-01
-5.000000000000000000e+00,0.000000000000000000e+00,-1.400000000000000000e+01,-1.000000000000000000e+00,2.000000000000000000e+00,4.000000000000000000e+00,4.000000000000000000e+00,1.100000000000000000e+01,-3.878173828125000000e-01,1.208496093750000000e-02,7.751464843750000000e-01,4.985961914062500000e-01
3.000000000000000000e+00,-1.000000000000000000e+01,-1.400000000000000000e+01,-1.000000000000000000e+00,-3.000000000000000000e+00,0.000000000000000000e+00,7.000000000000000000e+00,9.000000000000000000e+00,-3.867187500000000000e-01,9.399414062500000000e-03,7.742919921875000000e-01,5.007934570312500000e-01
9.000000000000000000e+00,1.200000000000000000e+01,1.100000000000000000e+01,0.000000000000000000e+00,0.000000000000000000e+00,-5.000000000000000000e+00,9.000000000000000000e+00,1.000000000000000000e+00,-3.867187500000000000e-01,9.399414062500000000e-03,7.742919921875000000e-01,5.007934570312500000e-01
-4.000000000000000000e+00,1.200000000000000000e+01,2.100000000000000000e+01,5.000000000000000000e+00,0.000000000000000000e+00,-4.000000000000000000e+00,-1.600000000000000000e+01,-1.600000000000000000e+01,-3.867187500000000000e-01,9.399414062500000000e-03,7.742919921875000000e-01,5.007934570312500000e-01
5.000000000000000000e+00,1.000000000000000000e+00,-2.000000000000000000e+00,3.000000000000000000e+00,-1.000000000000000000e+00,2.000000000000000000e+00,1.300000000000000000e+01,2.200000000000000000e+01,-3.867187500000000000e-01,9.399414062500000000e-03,7.742919921875000000e-01,5.007934570312500000e-01
1.000000000000000000e+00,-5.000000000000000000e+00,-1.400000000000000000e+01,-3.000000000000000000e+00,0.000000000000000000e+00,4.000000000000000000e+00,1.000000000000000000e+01,-7.000000000000000000e+00,-3.856201171875000000e-01,7.507324218750000000e-03,7.741088867187500000e-01,5.019531250000000000e-01
3.000000000000000000e+00,-6.000000000000000000e+00,1.500000000000000000e+01,0.000000000000000000e+00,-2.000000000000000000e+00,0.000000000000000000e+00,-1.300000000000000000e+01,6.000000000000000000e+00,-3.856201171875000000e-01,7.507324218750000000e-03,7.741088867187500000e-01,5.019531250000000000e-01
-5.000000000000000000e+00,2.000000000000000000e+00,3.000000000000000000e+01,-1.000000000000000000e+00,4.000000000000000000e+00,-2.000000000000000000e+00,8.000000000000000000e+00,-6.000000000000000000e+00,-3.856201171875000000e-01,7.507324218750000000e-03,7.741088867187500000e-01,5.019531250000000000e-01
-7.000000000000000000e+00,1.900000000000000000e+01,-2.000000000000000000e+00,1.600000000000000000e+01,3.000000000000000000e+00,-6.000000000000000000e+00,-5.000000000000000000e+00,4.000000000000000000e+00,-3.856201171875000000e-01,7.507324218750000000e-03,7.741088867187500000e-01,5.019531250000000000e-01
-2.000000000000000000e+00,-2.100000000000000000e+01,-1.200000000000000000e+01,3.000000000000000000e+00,-2.000000000000000000e+00,9.000000000000000000e+00,6.000000000000000000e+00,1.000000000000000000e+01,-3.864135742187500000e-01,3.356933593750000000e-03,7.735595703125000000e-01,5.021972656250000000e-01
1.100000000000000000e+01,-2.200000000000000000e+01,2.000000000000000000e+01,-1.100000000000000000e+01,-3.000000000000000000e+00,1.000000000000000000e+00,4.000000000000000000e+00,1.200000000000000000e+01,-3.864135742187500000e-01,3.356933593750000000e-03,7.735595703125000000e-01,5.021972656250000000e-01
3.000000000000000000e+00,3.100000000000000000e+01,2.500000000000000000e+01,6.000000000000000000e+00,2.000000000000000000e+00,3.000000000000000000e+00,-5.000000000000000000e+00,-1.200000000000000000e+01,-3.864135742187500000e-01,3.356933593750000000e-03,7.735595703125000000e-01,5.021972656250000000e-01
-2.000000000000000000e+00,-3.000000000000000000e+00,-1.300000000000000000e+01,-6.000000000000000000e+00,-1.000000000000000000e+00,0.000000000000000000e+00,5.000000000000000000e+00,0.000000000000000000e+00,-3.864135742187500000e-01,3.356933593750000000e-03,7.735595703125000000e-01,5.021972656250000000e-01
-1.700000000000000000e+01,3.000000000000000000e+00,1.800000000000000000e+01,-8.000000000000000000e+00,-2.000000000000000000e+00,-1.700000000000000000e+01,-1.300000000000000000e+01,-1.100000000000000000e+01,-3.880615234375000000e-01,-2.380371093750000000e-03,7.733154296875000000e-01,5.013427734375000000e-01
1.100000000000000000e+01,0.000000000000000000e+00,-1.800000000000000000e+01,9.000000000000000000e+00,2.000000000000000000e+00,6.000000000000000000e+00,4.000000000000000000e+00,1.400000000000000000e+01,-3.880615234375000000e-01,-2.380371093750000000e-03,7.733154296875000000e-01,5.013427734375000000e-01
