-1.000000000000000000e+00,-3.000000000000000000e+00,0.000000000000000000e+00,5.000000000000000000e+00,-2.000000000000000000e+00,-2.000000000000000000e+00,0.000000000000000000e+00,2.000000000000000000e+00,-2.589721679687500000e-01,3.892211914062500000e-01,3.481445312500000000e-01,8.125000000000000000e-01
2.000000000000000000e+00,-5.000000000000000000e+00,1.100000000000000000e+01,-4.000000000000000000e+00,-4.000000000000000000e+00,0.000000000000000000e+00,2.000000000000000000e+00,1.000000000000000000e+00,-2.589721679687500000e-01,3.892211914062500000e-01,3.481445312500000000e-01,8.125000000000000000e-01
-7.000000000000000000e+00,0.000000000000000000e+00,-3.000000000000000000e+00,7.000000000000000000e+00,5.000000000000000000e+00,2.000000000000000000e+00,2.000000000000000000e+00,-1.000000000000000000e+00,-2.587890625000000000e-01,3.900756835937500000e-01,3.477172851562500000e-01,8.123168945312500000e-01
-4.000000000000000000e+00,1.000000000000000000e+00,-8.000000000000000000e+00,-6.000000000000000000e+00,-7.000000000000000000e+00,-1.000000000000000000e+00,-2.000000000000000000e+00,-4.000000000000000000e+00,-2.587890625000000000e-01,3.900756835937500000e-01,3.477172851562500000e-01,8.123168945312500000e-01
7.000000000000000000e+00,3.000000000000000000e+00,1.400000000000000000e+01,-6.000000000000000000e+00,-3.000000000000000000e+00,0.000000000000000000e+00,3.000000000000000000e+00,4.000000000000000000e+00,-2.589111328125000000e-01,3.905029296875000000e-01,3.474731445312500000e-01,8.121948242187500000e-01
0.000000000000000000e+00,-2.000000000000000000e+00,-1.600000000000000000e+01,1.200000000000000000e+01,1.800000000000000000e+01,6.000000000000000000e+00,2.000000000000000000e+00,-1.000000000000000000e+00,-2.589111328125000000e-01,3.905029296875000000e-01,3.474731445312500000e-01,8.121948242187500000e-01
-5.000000000000000000e+00,-1.000000000000000000e+00,8.000000000000000000e+00,2.000000000000000000e+00,-4.000000000000000000e+00,-6.000000000000000000e+00,-3.000000000000000000e+00,-2.000000000000000000e+00,-2.589111328125000000e-01,3.905029296875000000e-01,3.474731445312500000e-01,8.121948242187500000e-01
0.000000000000000000e+00,-3.000000000000000000e+00,-4.000000000000000000e+00,3.000000000000000000e+00,5.000000000000000000e+00,1.000000000000000000e+00,2.000000000000000000e+00,1.000000000000000000e+00,-2.589111328125000000e-01,3.905029296875000000e-01,3.474731445312500000e-01,8.121948242187500000e-01
3.000000000000000000e+00,-2.000000000000000000e+00,-2.200000000000000000e+01,-1.500000000000000000e+01,-2.000000000000000000e+01,-6.000000000000000000e+00,-2.000000000000000000e+00,1.000000000000000000e+00,-2.589111328125000000e-01,3.907470703125000000e-01,3.471679687500000000e-01,8.121948242187500000e-01
1.000000000000000000e+00,2.000000000000000000e+00,1.900000000000000000e+01,2.000000000000000000e+00,2.000000000000000000e+00,0.000000000000000000e+00,0.000000000000000000e+00,0.000000000000000000e+00,-2.589111328125000000e-01,3.907470703125000000e-01,3.471679687500000000e-01,8.121948242187500000e-01
-3.000000000000000000e+00,0.000000000000000000e+00,2.000000000000000000e+00,4.000000000000000000e+00,2.000000000000000000e+00,0.000000000000000000e+00,4.000000000000000000e+00,5.000000000000000000e+00,-2.589111328125000000e-01,3.907470703125000000e-01,3.471679687500000000e-01,8.121948242187500000e-01
1.000000000000000000e+00,-3.000000000000000000e+00,-6.000000000000000000e+00,2.000000000000000000e+00,-1.000000000000000000e+00,-1.000000000000000000e+00,-1.000000000000000000e+00,-2.000000000000000000e+00,-2.589111328125000000e-01,3.907470703125000000e-01,3.471679687500000000e-01,8.121948242187500000e-01
9.000000000000000000e+00,0.000000000000000000e+00,-1.000000000000000000e+01,1.000000000000000000e+00,0.000000000000000000e+00,1.000000000000000000e+00,-2.000000000000000000e+00,-1.000000000000000000e+00,-2.589721679687500000e-01,3.906860351562500000e-01,3.469848632812500000e-01,8.122558593750000000e-01
-4.000000000000000000e+00,-1.000000000000000000e+00,-3.000000000000000000e+00,-1.200000000000000000e+01,-6.000000000000000000e+00,-2.000000000000000000e+00,1.000000000000000000e+00,-1.000000000000000000e+00,-2.589721679687500000e-01,3.906860351562500000e-01,3.469848632812500000e-01,8.122558593750000000e-01
-9.000000000000000000e+00,-6.000000000000000000e+00,6.000000000000000000e+00,-2.000000000000000000e+00,-2.000000000000000000e+00,-2.000000000000000000e+00,-2.000000000000000000e+00,-4.000000000000000000e+00,-2.589721679687500000e-01,3.906860351562500000e-01,3.469848632812500000e-01,8.122558593750000000e-01
1.100000000000000000e+01,7.000000000000000000e+00,7.000000000000000000e+00,4.000000000000000000e+00,2.000000000000000000e+00,1.000000000000000000e+00,2.000000000000000000e+00,4.000000000000000000e+00,-2.589721679687500000e-01,3.906860351562500000e-01,3.469848632812500000e-01,8.122558593750000000e-01
-1.500000000000000000e+01,-6.000000000000000000e+00,-5.000000000000000000e+00,-2.000000000000000000e+00,0.000000000000000000e+00,0.000000000000000000e+00,-3.000000000000000000e+00,-3.000000000000000000e+00,-2.584838867187500000e-01,3.908691406250000000e-01,3.468627929687500000e-01,8.124389648437500000e-01
1.200000000000000000e+01,1.600000000000000000e+01,1.000000000000000000e+01,5.000000000000000000e+00,-4.000000000000000000e+00,-1.000000000000000000e+00,-3.000000000000000000e+00,0.000000000000000000e+00,-2.584838867187500000e-01,3.908691406250000000e-01,3.468627929687500000e-01,8.124389648437500000e-01
-1.800000000000000000e+01,-1.800000000000000000e+01,-1.600000000000000000e+01,-5.000000000000000000e+00,-2.000000000000000000e+00,0.000000000000000000e+00,-1.000000000000000000e+00,-2.000000000000000000e+00,-2.584838867187500000e-01,3.908691406250000000e-01,3.468627929687500000e-01,8.124389648437500000e-01
-3.000000000000000000e+00,-1.000000000000000000e+00,-3.000000000000000000e+00,-5.000000000000000000e+00,-5.000000000000000000e+00,-2.000000000000000000e+00,-1.000000000000000000e+00,-2.000000000000000000e+00,-2.584838867187500000e-01,3.908691406250000000e-01,3.468627929687500000e-01,8.124389648437500000e-01
6.000000000000000000e+00,-2.000000000000000000e+00,-2.600000000000000000e+01,-6.000000000000000000e+00,4.000000000000000000e+00,-3.000000000000000000e+00,-7.000000000000000000e+00,-4.000000000000000000e+00,-2.573852539062500000e-01,3.911132812500000000e-01,3.471069335937500000e-01,8.125000000000000000e-01
0.000000000000000000e+00,-1.000000000000000000e+00,7.000000000000000000e+00,-3.000000000000000000e+00,-6.000000000000000000e+00,0.000000000000000000e+00,-1.000000000000000000e+00,2.000000000000000000e+00,-2.573852539062500000e-01,3.911132812500000000e-01,3.471069335937500000e-01,8.125000000000000000e-01
4.000000000000000000e+00,4.000000000000000000e+00,1.000000000000000000e+01,2.000000000000000000e+01,1.300000000000000000e+01,4.000000000000000000e+00,-1.000000000000000000e+00,0.000000000000000000e+00,-2.573852539062500000e-01,3.911132812500000000e-01,3.471069335937500000e-01,8.125000000000000000e-01
-1.000000000000000000e+00,2.000000000000000000e+00,-1.300000000000000000e+01,-1.400000000000000000e+01,1.100000000000000000e+01,3.000000000000000000e+00,-2.000000000000000000e+00,-1.000000000000000000e+00,-2.573852539062500000e-01,3.911132812500000000e-01,3.471069335937500000e-01,8.125000000000000000e-01
-3.000000000000000000e+00,-2.000000000000000000e+00,-4.000000000000000000e+00,4.000000000000000000e+00,6.000000000000000000e+00,5.000000000000000000e+00,2.000000000000000000e+00,2.000000000000000000e+00,-2.561645507812500000e-01,3.911743164062500000e-01,3.477783203125000000e-01,8.125610351562500000e-01
3.000000000000000000e+00,-3.000000000000000000e+00,1.600000000000000000e+01,5.000000000000000000e+00,-6.000000000000000000e+00,-6.000000000000000000e+00,0.000000000000000000e+00,1.000000000000000000e+00,-2.561645507812500000e-01,3.911743164062500000e-01,3.477783203125000000e-01,8.125610351562500000e-01
8.000000000000000000e+00,4.000000000000000000e+00,-2.500000000000000000e+01,-6.000000000000000000e+00,-7.000000000000000000e+00,-4.000000000000000000e+00,-2.000000000000000000e+00,0.000000000000000000e+00,-2.561645507812500000e-01,3.911743164062500000e-01,3.477783203125000000e-01,8.125610351562500000e-01
-6.000000000000000000e+00,-3.000000000000000000e+00,1.200000000000000000e+01,6.000000000000000000e+00,-2.000000000000000000e+00,-3.000000000000000000e+00,-3.000000000000000000e+00,-2.000000000000000000e+00,-2.561645507812500000e-01,3.911743164062500000e-01,3.477783203125000000e-01,8.125610351562500000e-01
-1.000000000000000000e+00,-5.000000000000000000e+00,-2.000000000000000000e+00,-7.000000000000000000e+00,-7.000000000000000000e+00,-1.000000000000000000e+00,0.000000000000000000e+00,-1.000000000000000000e+00,-2.565917968750000000e-01,3.906250000000000000e-01,3.482055664062500000e-01,8.125610351562500000e-01
-5.000000000000000000e+00,-8.000000000000000000e+00,-1.200000000000000000e+01,-3.000000000000000000e+00,4.000000000000000000e+00,0.000000000000000000e+00,1.000000000000000000e+00,1.000000000000000000e+00,-2.565917968750000000e-01,3.906250000000000000e-01,3.482055664062500000e-01,8.125610351562500000e-01
1.000000000000000000e+00,7.000000000000000000e+00,0.000000000000000000e+00,-6.000000000000000000e+00,-6.000000000000000000e+00,-4.000000000000000000e+00,-3.000000000000000000e+00,-2.000000000000000000e+00,-2.565917968750000000e-01,3.906250000000000000e-01,3.482055664062500000e-01,8.125610351562500000e-01
5.000000000000000000e+00,-1.000000000000000000e+01,-2.000000000000000000e+00,6.000000000000000000e+00,0.000000000000000000e+00,-1.000000000000000000e+00,1.000000000000000000e+00,-1.000000000000000000e+00,-2.565917968750000000e-01,3.906250000000000000e-01,3.482055664062500000e-01,8.125610351562500000e-01
-6.000000000000000000e+00,9.000000000000000000e+00,2.000000000000000000e+00,-1.000000000000000000e+00,-2.000000000000000000e+00,-3.000000000000000000e+00,-3.000000000000000000e+00,-5.000000000000000000e+00,-2.568359375000000000e-01,3.898315429687500000e-01,3.481445312500000000e-01,8.128662109375000000e-01
-4.000000000000000000e+00,-6.000000000000000000e+00,1.100000000000000000e+01,-1.000000000000000000e+00,-6.000000000000000000e+00,-3.000000000000000000e+00,-4.000000000000000000e+00,-4.000000000000000000e+00,-2.568359375000000000e-01,3.898315429687500000e-01,3.481445312500000000e-01,8.128662109375000000e-01
1.000000000000000000e+00,0.000000000000000000e+00,-1.000000000000000000e+01,-6.000000000000000000e+00,-5.000000000000000000e+00,0.000000000000000000e+00,3.000000000000000000e+00,2.000000000000000000e+00,-2.568359375000000000e-01,3.898315429687500000e-01,3.481445312500000000e-01,8.128662109375000000e-01
-3.000000000000000000e+00,-6.000000000000000000e+00,2.000000000000000000e+00,3.000000000000000000e+00,2.000000000000000000e+00,0.000000000000000000e+00,-1.000000000000000000e+00,0.000000000000000000e+00,-2.568359375000000000e-01,3.898315429687500000e-01,3.481445312500000000e-01,8.128662109375000000e-01
1.000000000000000000e+00,-5.000000000000000000e+00,1.100000000000000000e+01,-3.000000000000000000e+00,-4.000000000000000000e+00,-1.000000000000000000e+00,-2.000000000000000000e+00,-1.000000000000000000e+00,-2.565917968750000000e-01,3.892822265625000000e-01,3.476562500000000000e-01,8.134765625000000000e-01
-3.000000000000000000e+00,2.000000000000000000e+00,-9.000000000000000000e+00,8.000000000000000000e+00,8.000000000000000000e+00,2.000000000000000000e+00,3.000000000000000000e+00,1.000000000000000000e+00,-2.565917968750000000e-01,3.892822265625000000e-01,3.476562500000000000e-01,8.134765625000000000e-01
2.000000000000000000e+00,-8.000000000000000000e+00,3.200000000000000000e+01,-2.000000000000000000e+00,2.000000000000000000e+00,1.000000000000000000e+00,-3.000000000000000000e+00,0.000000000000000000e+00,-2.565917968750000000e-01,3.892822265625000000e-01,3.476562500000000000e-01,8.134765625000000000e-01
4.000000000000000000e+00,6.000000000000000000e+00,-2.000000000000000000e+01,-6.000000000000000000e+00,-4.000000000000000000e+00,-4.000000000000000000e+00,-2.000000000000000000e+00,4.000000000000000000e+00,-2.565917968750000000e-01,3.892822265625000000e-01,3.476562500000000000e-01,8.134765625000000000e-01
2.000000000000000000e+00,-6.000000000000000000e+00,3.000000000000000000e+00,3.000000000000000000e+00,3.000000000000000000e+00,1.000000000000000000e+00,1.000000000000000000e+00,-3.000000000000000000e+00,-2.567138671875000000e-01,3.886718750000000000e-01,3.469848632812500000e-01,8.139648437500000000e-01
-1.600000000000000000e+01,4.000000000000000000e+00,-3.000000000000000000e+00,-1.000000000000000000e+01,-1.500000000000000000e+01,-4.000000000000000000e+00,-5.000000000000000000e+00,-5.000000000000000000e+00,-2.567138671875000000e-01,3.886718750000000000e-01,3.469848632812500000e-01,8.139648437500000000e-01
6.000000000000000000e+00,0.000000000000000000e+00,1.600000000000000000e+01,1.200000000000000000e+01,8.000000000000000000e+00,2.000000000000000000e+00,2.000000000000000000e+00,5.000000000000000000e+00,-2.567138671875000000e-01,3.886718750000000000e-01,3.469848632812500000e-01,8.139648437500000000e-01
1.000000000000000000e+00,2.000000000000000000e+00,1.000000000000000000e+01,-4.000000000000000000e+00,1.000000000000000000e+00,-1.000000000000000000e+00,-5.000000000000000000e+00,-3.000000000000000000e+00,-2.567138671875000000e-01,3.886718750000000000e-01,3.469848632812500000e-01,8.139648437500000000e-01
-5.000000000000000000e+00,-4.000000000000000000e+00,-7.000000000000000000e+00,4.000000000000000000e+00,-1.000000000000000000e+00,-4.000000000000000000e+00,-3.000000000000000000e+00,-1.000000000000000000e+00,-2.573242187500000000e-01,3.878173828125000000e-01,3.458251953125000000e-01,8.146972656250000000e-01
2.000000000000000000e+00,0.000000000000000000e+00,1.900000000000000000e+01,-1.000000000000000000e+01,-9.000000000000000000e+00,-5.000000000000000000e+00,-5.000000000000000000e+00,1.000000000000000000e+00,-2.573242187500000000e-01,3.878173828125000000e-01,3.458251953125000000e-01,8.146972656250000000e-01
-1.000000000000000000e+00,-1.000000000000000000e+00,2.000000000000000000e+00,4.000000000000000000e+00,-2.000000000000000000e+00,-4.000000000000000000e+00,-4.000000000000000000e+00,-4.000000000000000000e+00,-2.573242187500000000e-01,3.878173828125000000e-01,3.458251953125000000e-01,8.146972656250000000e-01
-1.400000000000000000e+01,-6.000000000000000000e+00,-1.700000000000000000e+01,1.000000000000000000e+00,2.000000000000000000e+00,0.000000000000000000e+00,-3.000000000000000000e+00,-6.000000000000000000e+00,-2.573242187500000000e-01,3.878173828125000000e-01,3.458251953125000000e-01,8.146972656250000000e-01
1.400000000000000000e+01,6.000000000000000000e+00,-5.000000000000000000e+00,-5.000000000000000000e+00,-4.000000000000000000e+00,-4.000000000000000000e+00,-4.000000000000000000e+00,0.000000000000000000e+00,-2.580566406250000000e-01,3.869628906250000000e-01,3.444824218750000000e-01,8.154296875000000000e-01
-1.600000000000000000e+01,-8.000000000000000000e+00,-7.000000000000000000e+00,-1.000000000000000000e+00,2.000000000000000000e+00,1.000000000000000000e+00,0.000000000000000000e+00,-4.000000000000000000e+00,-2.580566406250000000e-01,3.869628906250000000e-01,3.444824218750000000e-01,8.154296875000000000e-01
-3.000000000000000000e+00,4.000000000000000000e+00,1.200000000000000000e+01,-9.000000000000000000e+00,-1.000000000000000000e+01,-4.000000000000000000e+00,0.000000000000000000e+00,-1.000000000000000000e+00,-2.580566406250000000e-01,3.869628906250000000e-01,3.444824218750000000e-01,8.154296875000000000e-01
6.000000000000000000e+00,1.000000000000000000e+00,-5.000000000000000000e+00,-1.000000000000000000e+00,-3.000000000000000000e+00,-1.000000000000000000e+00,3.000000000000000000e+00,0.000000000000000000e+00,-2.580566406250000000e-01,3.869628906250000000e-01,3.444824218750000000e-01,8.154296875000000000e-01
-4.000000000000000000e+00,-3.000000000000000000e+00,-5.000000000000000000e+00,0.000000000000000000e+00,-2.000000000000000000e+00,0.000000000000000000e+00,-1.000000000000000000e+00,-3.000000000000000000e+00,-2.590332031250000000e-01,3.863525390625000000e-01,3.433837890625000000e-01,8.158569335937500000e-01
4.000000000000000000e+00,0.000000000000000000e+00,1.200000000000000000e+01,5.000000000000000000e+00,2.000000000000000000e+00,1.000000000000000000e+00,-2.000000000000000000e+00,0.000000000000000000e+00,-2.590332031250000000e-01,3.863525390625000000e-01,3.433837890625000000e-01,8.158569335937500000e-01
1.000000000000000000e+00,4.000000000000000000e+00,-4.800000000000000000e+01,-9.000000000000000000e+00,-2.000000000000000000e+00,-3.000000000000000000e+00,-4.000000000000000000e+00,0.000000000000000000e+00,-2.590332031250000000e-01,3.863525390625000000e-01,3.433837890625000000e-01,8.158569335937500000e-01
-5.000000000000000000e+00,-2.000000000000000000e+00,1.200000000000000000e+01,2.000000000000000000e+00,-1.000000000000000000e+00,-2.000000000000000000e+00,0.000000000000000000e+00,-3.000000000000000000e+00,-2.590332031250000000e-01,3.863525390625000000e-01,3.433837890625000000e-01,8.158569335937500000e-01
-2.000000000000000000e+00,-4.000000000000000000e+00,1.000000000000000000e+00,2.000000000000000000e+00,2.000000000000000000e+00,-1.000000000000000000e+00,1.000000000000000000e+00,1.000000000000000000e+00,-2.597045898437500000e-01,3.861083984375000000e-01,3.424682617187500000e-01,8.161621093750000000e-01
3.000000000000000000e+00,3.000000000000000000e+00,3.000000000000000000e+00,-3.000000000000000000e+00,2.000000000000000000e+00,0.000000000000000000e+00,3.000000000000000000e+00,4.000000000000000000e+00,-2.597045898437500000e-01,3.861083984375000000e-01,3.424682617187500000e-01,8.161621093750000000e-01
-5.000000000000000000e+00,-1.000000000000000000e+00,8.000000000000000000e+00,-2.000000000000000000e+00,-4.000000000000000000e+00,0.000000000000000000e+00,-2.000000000000000000e+00,-2.000000000000000000e+00,-2.597045898437500000e-01,3.861083984375000000e-01,3.424682617187500000e-01,8.161621093750000000e-01
1.000000000000000000e+00,1.000000000000000000e+00,8.000000000000000000e+00,6.000000000000000000e+00,-5.000000000000000000e+00,0.000000000000000000e+00,1.000000000000000000e+00,1.000000000000000000e+00,-2.597045898437500000e-01,3.861083984375000000e-01,3.424682617187500000e-01,8.161621093750000000e-01
-1.000000000000000000e+00,1.000000000000000000e+00,0.000000000000000000e+00,5.000000000000000000e+00,1.300000000000000000e+01,2.000000000000000000e+00,-2.000000000000000000e+00,0.000000000000000000e+00,-2.597656250000000000e-01,3.861083984375000000e-01,3.418579101562500000e-01,8.164062500000000000e-01
8.000000000000000000e+00,4.000000000000000000e+00,-2.000000000000000000e+00,-1.000000000000000000e+00,-3.000000000000000000e+00,-4.000000000000000000e+00,-5.000000000000000000e+00,-4.000000000000000000e+00,-2.597656250000000000e-01,3.861083984375000000e-01,3.418579101562500000e-01,8.164062500000000000e-01
-1.300000000000000000e+01,-1.600000000000000000e+01,3.000000000000000000e+00,-7.000000000000000000e+00,-1.000000000000000000e+01,-3.000000000000000000e+00,-3.000000000000000000e+00,-6.000000000000000000e+00,-2.597656250000000000e-01,3.861083984375000000e-01,3.418579101562500000e-01,8.164062500000000000e-01
-1.000000000000000000e+01,4.000000000000000000e+00,-4.000000000000000000e+00,-7.000000000000000000e+00,-4.000000000000000000e+00,-2.000000000000000000e+00,-2.000000000000000000e+00,3.000000000000000000e+00,-2.597656250000000000e-01,3.861083984375000000e-01,3.418579101562500000e-01,8.164062500000000000e-01
-2.000000000000000000e+00,-5.000000000000000000e+00,0.000000000000000000e+00,3.000000000000000000e+00,3.000000000000000000e+00,0.000000000000000000e+00,-4.000000000000000000e+00,-3.000000000000000000e+00,-2.595825195312500000e-01,3.863525390625000000e-01,3.411254882812500000e-01,8.166503906250000000e-01
7.000000000000000000e+00,2.000000000000000000e+00,1.200000000000000000e+01,3.000000000000000000e+00,-1.000000000000000000e+00,-2.000000000000000000e+00,-1.000000000000000000e+00,-1.000000000000000000e+00,-2.595825195312500000e-01,3.863525390625000000e-01,3.411254882812500000e-01,8.166503906250000000e-01
5.000000000000000000e+00,-2.000000000000000000e+00,-2.700000000000000000e+01,-1.100000000000000000e+01,1.000000000000000000e+00,0.000000000000000000e+00,0.000000000000000000e+00,-1.000000000000000000e+00,-2.595825195312500000e-01,3.863525390625000000e-01,3.411254882812500000e-01,8.166503906250000000e-01
-3.000000000000000000e+00,-2.000000000000000000e+00,-1.000000000000000000e+01,-4.000000000000000000e+00,-8.000000000000000000e+00,-1.000000000000000000e+00,-1.000000000000000000e+00,-1.000000000000000000e+00,-2.595825195312500000e-01,3.863525390625000000e-01,3.411254882812500000e-01,8.166503906250000000e-01
-1.000000000000000000e+00,-2.000000000000000000e+00,-2.300000000000000000e+01,-6.000000000000000000e+00,-6.000000000000000000e+00,0.000000000000000000e+00,2.000000000000000000e+00,1.000000000000000000e+00,-2.593383789062500000e-01,3.868408203125000000e-01,3.402709960937500000e-01,8.168334960937500000e-01
0.000000000000000000e+00,-7.000000000000000000e+00,7.000000000000000000e+00,-2.000000000000000000e+00,3.000000000000000000e+00,-2.000000000000000000e+00,0.000000000000000000e+00,2.000000000000000000e+00,-2.593383789062500000e-01,3.868408203125000000e-01,3.402709960937500000e-01,8.168334960937500000e-01
4.000000000000000000e+00,1.000000000000000000e+01,1.700000000000000000e+01,4.000000000000000000e+00,-4.000000000000000000e+00,-4.000000000000000000e+00,-1.000000000000000000e+00,0.000000000000000000e+00,-2.593383789062500000e-01,3.868408203125000000e-01,3.402709960937500000e-01,8.168334960937500000e-01
1.000000000000000000e+00,-3.000000000000000000e+00,1.000000000000000000e+01,1.000000000000000000e+00,3.000000000000000000e+00,0.000000000000000000e+00,-1.000000000000000000e+00,-3.000000000000000000e+00,-2.593383789062500000e-01,3.868408203125000000e-01,3.402709960937500000e-01,8.168334960937500000e-01
-5.000000000000000000e+00,-1.000000000000000000e+00,-5.000000000000000000e+00,-3.000000000000000000e+00,-1.000000000000000000e+00,1.000000000000000000e+00,0.000000000000000000e+00,-2.000000000000000000e+00,-2.589111328125000000e-01,3.873291015625000000e-01,3.400268554687500000e-01,8.168334960937500000e-01
0.000000000000000000e+00,-5.000000000000000000e+00,0.000000000000000000e+00,2.000000000000000000e+00,-3.000000000000000000e+00,1.000000000000000000e+00,0.000000000000000000e+00,2.000000000000000000e+00,-2.589111328125000000e-01,3.873291015625000000e-01,3.400268554687500000e-01,8.168334960937500000e-01
-3.000000000000000000e+00,1.200000000000000000e+01,-2.000000000000000000e+00,0.000000000000000000e+00,-1.000000000000000000e+00,1.000000000000000000e+00,0.000000000000000000e+00,0.000000000000000000e+00,-2.589111328125000000e-01,3.873291015625000000e-01,3.400268554687500000e-01,8.168334960937500000e-01
3.000000000000000000e+00,-2.000000000000000000e+00,1.000000000000000000e+00,-2.000000000000000000e+00,0.000000000000000000e+00,-2.000000000000000000e+00,-1.000000000000000000e+00,1.000000000000000000e+00,-2.589111328125000000e-01,3.873291015625000000e-01,3.400268554687500000e-01,8.168334960937500000e-01
-3.000000000000000000e+00,2.000000000000000000e+00,8.000000000000000000e+00,-4.000000000000000000e+00,-2.000000000000000000e+00,0.000000000000000000e+00,0.000000000000000000e+00,1.000000000000000000e+00,-2.589721679687500000e-01,3.876342773437500000e-01,3.402709960937500000e-01,8.165893554687500000e-01
-9.000000000000000000e+00,-3.000000000000000000e+00,-1.000000000000000000e+01,-2.000000000000000000e+00,-2.000000000000000000e+00,-1.000000000000000000e+00,-2.000000000000000000e+00,-6.000000000000000000e+00,-2.589721679687500000e-01,3.876342773437500000e-01,3.402709960937500000e-01,8.165893554687500000e-01
4.000000000000000000e+00,-3.000000000000000000e+00,0.000000000000000000e+00,0.000000000000000000e+00,3.000000000000000000e+00,0.000000000000000000e+00,2.000000000000000000e+00,4.000000000000000000e+00,-2.589721679687500000e-01,3.876342773437500000e-01,3.402709960937500000e-01,8.165893554687500000e-01
5.000000000000000000e+00,-2.000000000000000000e+00,3.000000000000000000e+00,-1.000000000000000000e+00,-1.000000000000000000e+00,-1.000000000000000000e+00,2.000000000000000000e+00,1.000000000000000000e+00,-2.589721679687500000e-01,3.876342773437500000e-01,3.402709960937500000e-01,8.165893554687500000e-01
1.000000000000000000e+00,9.000000000000000000e+00,9.000000000000000000e+00,4.000000000000000000e+00,-9.000000000000000000e+00,-3.000000000000000000e+00,0.000000000000000000e+00,0.000000000000000000e+00,-2.597045898437500000e-01,3.876953125000000000e-01,3.405151367187500000e-01,8.162231445312500000e-01
1.500000000000000000e+01,-5.000000000000000000e+00,-3.400000000000000000e+01,-3.000000000000000000e+00,1.000000000000000000e+01,5.000000000000000000e+00,1.000000000000000000e+00,1.000000000000000000e+00,-2.597045898437500000e-01,3.876953125000000000e-01,3.405151367187500000e-01,8.162231445312500000e-01
-2.500000000000000000e+01,-1.000000000000000000e+01,4.000000000000000000e+00,-3.000000000000000000e+00,-3.000000000000000000e+00,1.000000000000000000e+00,-1.000000000000000000e+00,-3.000000000000000000e+00,-2.597045898437500000e-01,3.876953125000000000e-01,3.405151367187500000e-01,8.162231445312500000e-01
2.000000000000000000e+00,4.000000000000000000e+00,6.000000000000000000e+00,3.000000000000000000e+00,3.000000000000000000e+00,1.000000000000000000e+00,-1.000000000000000000e+00,-2.000000000000000000e+00,-2.597045898437500000e-01,3.876953125000000000e-01,3.405151367187500000e-01,8.162231445312500000e-01
-6.000000000000000000e+00,-8.000000000000000000e+00,5.000000000000000000e+00,-5.000000000000000000e+00,-6.000000000000000000e+00,-2.000000000000000000e+00,-2.000000000000000000e+00,-2.000000000000000000e+00,-2.601928710937500000e-01,3.878173828125000000e-01,3.402709960937500000e-01,8.161010742187500000e-01
7.000000000000000000e+00,4.000000000000000000e+00,-1.000000000000000000e+00,-3.000000000000000000e+00,-4.000000000000000000e+00,-4.000000000000000000e+00,-2.000000000000000000e+00,-4.000000000000000000e+00,-2.601928710937500000e-01,3.878173828125000000e-01,3.402709960937500000e-01,8.161010742187500000e-01
3.000000000000000000e+00,9.000000000000000000e+00,1.000000000000000000e+01,1.000000000000000000e+00,-4.000000000000000000e+00,-3.000000000000000000e+00,-1.000000000000000000e+00,1.000000000000000000e+00,-2.601928710937500000e-01,3.878173828125000000e-01,3.402709960937500000e-01,8.161010742187500000e-01
1.000000000000000000e+00,3.000000000000000000e+00,4.000000000000000000e+01,1.000000000000000000e+01,-4.000000000000000000e+00,-3.000000000000000000e+00,-1.000000000000000000e+00,1.000000000000000000e+00,-2.601928710937500000e-01,3.878173828125000000e-01,3.402709960937500000e-01,8.161010742187500000e-01
8.000000000000000000e+00,-4.000000000000000000e+00,-2.500000000000000000e+01,-7.000000000000000000e+00,1.100000000000000000e+01,2.000000000000000000e+00,4.000000000000000000e+00,3.000000000000000000e+00,-2.600097656250000000e-01,3.880615234375000000e-01,3.397827148437500000e-01,8.162231445312500000e-01
-1.000000000000000000e+01,-7.000000000000000000e+00,-3.000000000000000000e+00,-8.000000000000000000e+00,-4.000000000000000000e+00,-3.000000000000000000e+00,-1.000000000000000000e+00,-1.000000000000000000e+00,-2.600097656250000000e-01,3.880615234375000000e-01,3.397827148437500000e-01,8.162231445312500000e-01
-3.000000000000000000e+00,-5.000000000000000000e+00,-4.000000000000000000e+00,3.000000000000000000e+00,1.000000000000000000e+00,-1.000000000000000000e+00,-3.000000000000000000e+00,-3.000000000000000000e+00,-2.600097656250000000e-01,3.880615234375000000e-01,3.397827148437500000e-01,8.162231445312500000e-01
-9.000000000000000000e+00,-1.000000000000000000e+00,1.000000000000000000e+00,3.000000000000000000e+00,-4.000000000000000000e+00,-1.000000000000000000e+00,-3.000000000000000000e+00,-2.000000000000000000e+00,-2.600097656250000000e-01,3.880615234375000000e-01,3.397827148437500000e-01,8.162231445312500000e-01
-2.000000000000000000e+00,5.000000000000000000e+00,3.000000000000000000e+01,1.100000000000000000e+01,0.000000000000000000e+00,-3.000000000000000000e+00,-5.000000000000000000e+00,-2.000000000000000000e+00,-2.603759765625000000e-01,3.879394531250000000e-01,3.394775390625000000e-01,8.163452148437500000e-01
-3.000000000000000000e+00,0.000000000000000000e+00,-1.700000000000000000e+01,-1.000000000000000000e+00,5.000000000000000000e+00,4.000000000000000000e+00,1.000000000000000000e+00,3.000000000000000000e+00,-2.603759765625000000e-01,3.879394531250000000e-01,3.394775390625000000e-01,8.163452148437500000e-01
0.000000000000000000e+00,-9.000000000000000000e+00,-1.000000000000000000e+01,-8.000000000000000000e+00,0.000000000000000000e+00,1.000000000000000000e+00,0.000000000000000000e+00,-2.000000000000000000e+00,-2.603759765625000000e-01,3.879394531250000000e-01,3.394775390625000000e-01,8.163452148437500000e-01
5.000000000000000000e+00,1.000000000000000000e+00,-2.000000000000000000e+00,3.000000000000000000e+00,2.000000000000000000e+00,-1.000000000000000000e+00,-1.000000000000000000e+00,-1.000000000000000000e+00,-2.603759765625000000e-01,3.879394531250000000e-01,3.394775390625000000e-01,8.163452148437500000e-01
-2.000000000000000000e+00,1.000000000000000000e+00,-1.000000000000000000e+00,-4.000000000000000000e+00,-5.000000000000000000e+00,-1.000000000000000000e+00,-1.000000000000000000e+00,-2.000000000000000000e+00,-2.609863281250000000e-01,3.873901367187500000e-01,3.395385742187500000e-01,8.163452148437500000e-01
-1.000000000000000000e+01,-6.000000000000000000e+00,-1.000000000000000000e+00,-1.000000000000000000e+00,-5.000000000000000000e+00,-3.000000000000000000e+00,-1.000000000000000000e+00,-2.000000000000000000e+00,-2.609863281250000000e-01,3.873901367187500000e-01,3.395385742187500000e-01,8.163452148437500000e-01
1.300000000000000000e+01,5.000000000000000000e+00,-2.000000000000000000e+00,3.000000000000000000e+00,4.000000000000000000e+00,1.000000000000000000e+00,0.000000000000000000e+00,0.000000000000000000e+00,-2.609863281250000000e-01,3.873901367187500000e-01,3.395385742187500000e-01,8.163452148437500000e-01
-5.000000000000000000e+00,-5.000000000000000000e+00,-4.000000000000000000e+00,-4.000000000000000000e+00,-3.000000000000000000e+00,-4.000000000000000000e+00,-6.000000000000000000e+00,-1.000000000000000000e+00,-2.609863281250000000e-01,3.873901367187500000e-01,3.395385742187500000e-01,8.163452148437500000e-01
-1.300000000000000000e+01,-5.000000000000000000e+00,1.600000000000000000e+01,7.000000000000000000e+00,1.000000000000000000e+00,1.000000000000000000e+00,-1.000000000000000000e+00,-3.000000000000000000e+00,-2.614135742187500000e-01,3.870239257812500000e-01,3.400268554687500000e-01,8.162231445312500000e-01
-2.000000000000000000e+00,1.000000000000000000e+00,-4.000000000000000000e+00,-5.000000000000000000e+00,-6.000000000000000000e+00,-4.000000000000000000e+00,-3.000000000000000000e+00,-2.000000000000000000e+00,-2.614135742187500000e-01,3.870239257812500000e-01,3.400268554687500000e-01,8.162231445312500000e-01
1.000000000000000000e+00,4.000000000000000000e+00,-1.100000000000000000e+01,4.000000000000000000e+00,2.000000000000000000e+00,0.000000000000000000e+00,-1.000000000000000000e+00,0.000000000000000000e+00,-2.614135742187500000e-01,3.870239257812500000e-01,3.400268554687500000e-01,8.162231445312500000e-01
3.000000000000000000e+00,-5.000000000000000000e+00,-2.000000000000000000e+01,-7.000000000000000000e+00,3.000000000000000000e+00,1.000000000000000000e+00,2.000000000000000000e+00,0.000000000000000000e+00,-2.614135742187500000e-01,3.870239257812500000e-01,3.400268554687500000e-01,8.162231445312500000e-01
-1.000000000000000000e+00,-1.000000000000000000e+01,-1.000000000000000000e+00,-3.000000000000000000e+00,-4.000000000000000000e+00,-1.000000000000000000e+00,-1.000000000000000000e+00,-1.000000000000000000e+00,-2.614746093750000000e-01,3.870239257812500000e-01,3.406372070312500000e-01,8.159179687500000000e-01
0.000000000000000000e+00,1.400000000000000000e+01,1.800000000000000000e+01,2.000000000000000000e+00,-6.000000000000000000e+00,-3.000000000000000000e+00,-4.000000000000000000e+00,-3.000000000000000000e+00,-2.614746093750000000e-01,3.870239257812500000e-01,3.406372070312500000e-01,8.159179687500000000e-01
1.100000000000000000e+01,-3.000000000000000000e+00,2.200000000000000000e+01,1.100000000000000000e+01,2.000000000000000000e+00,-2.000000000000000000e+00,-3.000000000000000000e+00,-1.000000000000000000e+00,-2.614746093750000000e-01,3.870239257812500000e-01,3.406372070312500000e-01,8.159179687500000000e-01
-9.000000000000000000e+00,-3.000000000000000000e+00,-3.800000000000000000e+01,-9.000000000000000000e+00,8.000000000000000000e+00,1.000000000000000000e+00,0.000000000000000000e+00,1.000000000000000000e+00,-2.614746093750000000e-01,3.870239257812500000e-01,3.406372070312500000e-01,8.159179687500000000e-01
-1.000000000000000000e+00,-2.000000000000000000e+00,-1.300000000000000000e+01,-4.000000000000000000e+00,2.000000000000000000e+00,0.000000000000000000e+00,-2.000000000000000000e+00,-2.000000000000000000e+00,-2.608642578125000000e-01,3.874511718750000000e-01,3.410644531250000000e-01,8.157348632812500000e-01
-1.000000000000000000e+00,-5.000000000000000000e+00,-6.000000000000000000e+00,1.000000000000000000e+00,0.000000000000000000e+00,-1.000000000000000000e+00,2.000000000000000000e+00,3.000000000000000000e+00,-2.608642578125000000e-01,3.874511718750000000e-01,3.410644531250000000e-01,8.157348632812500000e-01
-1.000000000000000000e+00,-2.000000000000000000e+00,-1.200000000000000000e+01,-9.000000000000000000e+00,-6.000000000000000000e+00,-2.000000000000000000e+00,-3.000000000000000000e+00,-3.000000000000000000e+00,-2.608642578125000000e-01,3.874511718750000000e-01,3.410644531250000000e-01,8.157348632812500000e-01
-5.000000000000000000e+00,1.000000000000000000e+00,9.000000000000000000e+00,3.000000000000000000e+00,-5.000000000000000000e+00,-2.000000000000000000e+00,-2.000000000000000000e+00,-4.000000000000000000e+00,-2.608642578125000000e-01,3.874511718750000000e-01,3.410644531250000000e-01,8.157348632812500000e-01
4.000000000000000000e+00,6.000000000000000000e+00,2.000000000000000000e+00,0.000000000000000000e+00,-3.000000000000000000e+00,-1.000000000000000000e+00,3.000000000000000000e+00,4.000000000000000000e+00,-2.600708007812500000e-01,3.881835937500000000e-01,3.416748046875000000e-01,8.153686523437500000e-01
2.000000000000000000e+00,0.000000000000000000e+00,-7.000000000000000000e+00,-9.000000000000000000e+00,-2.000000000000000000e+00,-2.000000000000000000e+00,-3.000000000000000000e+00,-3.000000000000000000e+00,-2.600708007812500000e-01,3.881835937500000000e-01,3.416748046875000000e-01,8.153686523437500000e-01
-7.000000000000000000e+00,-9.000000000000000000e+00,-1.400000000000000000e+01,1.000000000000000000e+00,1.000000000000000000e+00,1.000000000000000000e+00,0.000000000000000000e+00,-2.000000000000000000e+00,-2.600708007812500000e-01,3.881835937500000000e-01,3.416748046875000000e-01,8.153686523437500000e-01
1.000000000000000000e+00,4.000000000000000000e+00,8.000000000000000000e+00,2.000000000000000000e+00,1.000000000000000000e+00,0.000000000000000000e+00,1.000000000000000000e+00,0.000000000000000000e+00,-2.600708007812500000e-01,3.881835937500000000e-01,3.416748046875000000e-01,8.153686523437500000e-01
-1.000000000000000000e+00,-3.000000000000000000e+00,-1.300000000000000000e+01,-7.000000000000000000e+00,-3.000000000000000000e+00,-1.000000000000000000e+00,0.000000000000000000e+00,0.000000000000000000e+00,-2.595825195312500000e-01,3.887939453125000000e-01,3.424682617187500000e-01,8.148803710937500000e-01
-3.000000000000000000e+00,-3.000000000000000000e+00,6.000000000000000000e+00,1.000000000000000000e+00,1.000000000000000000e+00,2.000000000000000000e+00,1.000000000000000000e+00,0.000000000000000000e+00,-2.595825195312500000e-01,3.887939453125000000e-01,3.424682617187500000e-01,8.148803710937500000e-01
-2.000000000000000000e+00,-2.000000000000000000e+00,1.400000000000000000e+01,6.000000000000000000e+00,2.000000000000000000e+00,-1.000000000000000000e+00,-1.000000000000000000e+00,-3.000000000000000000e+00,-2.595825195312500000e-01,3.887939453125000000e-01,3.424682617187500000e-01,8.148803710937500000e-01
-5.000000000000000000e+00,2.000000000000000000e+00,-2.300000000000000000e+01,-1.500000000000000000e+01,-3.000000000000000000e+00,1.000000000000000000e+00,3.000000000000000000e+00,2.000000000000000000e+00,-2.595825195312500000e-01,3.887939453125000000e-01,3.424682617187500000e-01,8.148803710937500000e-01
2.000000000000000000e+00,1.000000000000000000e+00,3.300000000000000000e+01,1.400000000000000000e+01,-2.000000000000000000e+00,-3.000000000000000000e+00,-2.000000000000000000e+00,-1.000000000000000000e+00,-2.595825195312500000e-01,3.891601562500000000e-01,3.432617187500000000e-01,8.144531250000000000e-01
-3.000000000000000000e+00,-3.000000000000000000e+00,-2.700000000000000000e+01,-1.100000000000000000e+01,-4.000000000000000000e+00,0.000000000000000000e+00,-4.000000000000000000e+00,-2.000000000000000000e+00,-2.595825195312500000e-01,3.891601562500000000e-01,3.432617187500000000e-01,8.144531250000000000e-01
1.000000000000000000e+01,3.000000000000000000e+00,-2.000000000000000000e+00,-1.000000000000000000e+00,1.000000000000000000e+00,0.000000000000000000e+00,0.000000000000000000e+00,2.000000000000000000e+00,-2.595825195312500000e-01,3.891601562500000000e-01,3.432617187500000000e-01,8.144531250000000000e-01
3.000000000000000000e+00,-4.000000000000000000e+00,3.000000000000000000e+00,-1.000000000000000000e+00,-4.000000000000000000e+00,-1.000000000000000000e+00,-1.000000000000000000e+00,-3.000000000000000000e+00,-2.595825195312500000e-01,3.891601562500000000e-01,3.432617187500000000e-01,8.144531250000000000e-01
-3.000000000000000000e+00,1.000000000000000000e+00,-1.000000000000000000e+00,-7.000000000000000000e+00,-2.000000000000000000e+00,-2.000000000000000000e+00,2.000000000000000000e+00,-2.000000000000000000e+00,-2.597656250000000000e-01,3.894042968750000000e-01,3.436889648437500000e-01,8.140869140625000000e-01
7.000000000000000000e+00,-5.000000000000000000e+00,2.000000000000000000e+00,-2.000000000000000000e+00,-1.000000000000000000e+01,-3.000000000000000000e+00,1.000000000000000000e+00,1.000000000000000000e+00,-2.597656250000000000e-01,3.894042968750000000e-01,3.436889648437500000e-01,8.140869140625000000e-01
-1.800000000000000000e+01,0.000000000000000000e+00,7.000000000000000000e+00,5.000000000000000000e+00,9.000000000000000000e+00,1.000000000000000000e+00,-3.000000000000000000e+00,-6.000000000000000000e+00,-2.597656250000000000e-01,3.894042968750000000e-01,3.436889648437500000e-01,8.140869140625000000e-01
-1.000000000000000000e+00,2.000000000000000000e+00,-2.000000000000000000e+01,-6.000000000000000000e+00,6.000000000000000000e+00,1.000000000000000000e+00,-2.000000000000000000e+00,3.000000000000000000e+00,-2.597656250000000000e-01,3.894042968750000000e-01,3.436889648437500000e-01,8.140869140625000000e-01
9.000000000000000000e+00,0.000000000000000000e+00,1.500000000000000000e+01,5.000000000000000000e+00,-7.000000000000000000e+00,-3.000000000000000000e+00,2.000000000000000000e+00,2.000000000000000000e+00,-2.597045898437500000e-01,3.896484375000000000e-01,3.436889648437500000e-01,8.139648437500000000e-01
-3.000000000000000000e+00,-8.000000000000000000e+00,-3.000000000000000000e+00,5.000000000000000000e+00,1.400000000000000000e+01,2.000000000000000000e+00,-3.000000000000000000e+00,-3.000000000000000000e+00,-2.597045898437500000e-01,3.896484375000000000e-01,3.436889648437500000e-01,8.139648437500000000e-01
2.000000000000000000e+00,0.000000000000000000e+00,-1.100000000000000000e+01,-1.100000000000000000e+01,-9.000000000000000000e+00,-5.000000000000000000e+00,0.000000000000000000e+00,0.000000000000000000e+00,-2.597045898437500000e-01,3.896484375000000000e-01,3.436889648437500000e-01,8.139648437500000000e-01
0.000000000000000000e+00,-1.000000000000000000e+00,1.800000000000000000e+01,4.000000000000000000e+00,-5.000000000000000000e+00,-4.000000000000000000e+00,-3.000000000000000000e+00,-2.000000000000000000e+00,-2.597045898437500000e-01,3.896484375000000000e-01,3.436889648437500000e-01,8.139648437500000000e-01
-6.000000000000000000e+00,-3.000000000000000000e+00,-1.300000000000000000e+01,-3.000000000000000000e+00,2.000000000000000000e+00,1.000000000000000000e+00,-1.000000000000000000e+00,-3.000000000000000000e+00,-2.602539062500000000e-01,3.894042968750000000e-01,3.436279296875000000e-01,8.139038085937500000e-01
-2.000000000000000000e+00,3.000000000000000000e+00,8.000000000000000000e+00,1.000000000000000000e+00,-6.000000000000000000e+00,-3.000000000000000000e+00,-1.000000000000000000e+00,-1.000000000000000000e+00,-2.602539062500000000e-01,3.894042968750000000e-01,3.436279296875000000e-01,8.139038085937500000e-01
1.000000000000000000e+00,0.000000000000000000e+00,3.000000000000000000e+00,-3.000000000000000000e+00,-5.000000000000000000e+00,0.000000000000000000e+00,-1.000000000000000000e+00,0.000000000000000000e+00,-2.602539062500000000e-01,3.894042968750000000e-01,3.436279296875000000e-01,8.139038085937500000e-01
4.000000000000000000e+00,1.000000000000000000e+00,5.000000000000000000e+00,7.000000000000000000e+00,2.000000000000000000e+00,-2.000000000000000000e+00,-2.000000000000000000e+00,-3.000000000000000000e+00,-2.602539062500000000e-01,3.894042968750000000e-01,3.436279296875000000e-01,8.139038085937500000e-01
-9.000000000000000000e+00,-6.000000000000000000e+00,-2.900000000000000000e+01,-1.000000000000000000e+01,-3.000000000000000000e+00,-2.000000000000000000e+00,-1.000000000000000000e+00,-2.000000000000000000e+00,-2.610473632812500000e-01,3.890380859375000000e-01,3.435058593750000000e-01,8.139038085937500000e-01
1.000000000000000000e+00,3.000000000000000000e+00,1.600000000000000000e+01,-2.000000000000000000e+00,-2.000000000000000000e+00,-2.000000000000000000e+00,0.000000000000000000e+00,1.000000000000000000e+00,-2.610473632812500000e-01,3.890380859375000000e-01,3.435058593750000000e-01,8.139038085937500000e-01
-2.000000000000000000e+00,1.000000000000000000e+00,-3.000000000000000000e+00,0.000000000000000000e+00,1.000000000000000000e+00,-1.000000000000000000e+00,1.000000000000000000e+00,0.000000000000000000e+00,-2.610473632812500000e-01,3.890380859375000000e-01,3.435058593750000000e-01,8.139038085937500000e-01
0.000000000000000000e+00,-5.000000000000000000e+00,2.000000000000000000e+00,5.000000000000000000e+00,-1.000000000000000000e+00,-1.000000000000000000e+00,-3.000000000000000000e+00,1.000000000000000000e+00,-2.610473632812500000e-01,3.890380859375000000e-01,3.435058593750000000e-01,8.139038085937500000e-01
3.000000000000000000e+00,2.000000000000000000e+00,0.000000000000000000e+00,-8.000000000000000000e+00,-3.000000000000000000e+00,0.000000000000000000e+00,1.000000000000000000e+00,3.000000000000000000e+00,-2.617187500000000000e-01,3.886108398437500000e-01,3.435668945312500000e-01,8.139038085937500000e-01
-4.000000000000000000e+00,0.000000000000000000e+00,1.000000000000000000e+01,-2.000000000000000000e+00,1.000000000000000000e+00,-3.000000000000000000e+00,-8.000000000000000000e+00,-6.000000000000000000e+00,-2.617187500000000000e-01,3.886108398437500000e-01,3.435668945312500000e-01,8.139038085937500000e-01
1.100000000000000000e+01,2.000000000000000000e+00,-9.000000000000000000e+00,2.000000000000000000e+00,-1.000000000000000000e+00,0.000000000000000000e+00,-2.000000000000000000e+00,0.000000000000000000e+00,-2.617187500000000000e-01,3.886108398437500000e-01,3.435668945312500000e-01,8.139038085937500000e-01
-1.500000000000000000e+01,-1.400000000000000000e+01,-2.000000000000000000e+00,-7.000000000000000000e+00,-5.000000000000000000e+00,0.000000000000000000e+00,4.000000000000000000e+00,1.000000000000000000e+00,-2.617187500000000000e-01,3.886108398437500000e-01,3.435668945312500000e-01,8.139038085937500000e-01
-1.000000000000000000e+00,3.000000000000000000e+00,5.000000000000000000e+00,9.000000000000000000e+00,9.000000000000000000e+00,1.000000000000000000e+00,-2.000000000000000000e+00,1.000000000000000000e+00,-2.624511718750000000e-01,3.881225585937500000e-01,3.438110351562500000e-01,8.137817382812500000e-01
1.000000000000000000e+00,1.000000000000000000e+00,-6.000000000000000000e+00,3.000000000000000000e+00,1.000000000000000000e+00,0.000000000000000000e+00,4.000000000000000000e+00,3.000000000000000000e+00,-2.624511718750000000e-01,3.881225585937500000e-01,3.438110351562500000e-01,8.137817382812500000e-01
-3.000000000000000000e+00,-3.000000000000000000e+00,0.000000000000000000e+00,-1.000000000000000000e+00,0.000000000000000000e+00,0.000000000000000000e+00,0.000000000000000000e+00,0.000000000000000000e+00,-2.624511718750000000e-01,3.881225585937500000e-01,3.438110351562500000e-01,8.137817382812500000e-01
9.000000000000000000e+00,3.000000000000000000e+00,9.000000000000000000e+00,-1.400000000000000000e+01,-1.400000000000000000e+01,-5.000000000000000000e+00,-3.000000000000000000e+00,-6.000000000000000000e+00,-2.624511718750000000e-01,3.881225585937500000e-01,3.438110351562500000e-01,8.137817382812500000e-01
-7.000000000000000000e+00,-7.000000000000000000e+00,-1.200000000000000000e+01,7.000000000000000000e+00,3.000000000000000000e+00,-2.000000000000000000e+00,-2.000000000000000000e+00,-5.000000000000000000e+00,-2.626953125000000000e-01,3.878784179687500000e-01,3.441772460937500000e-01,8.136596679687500000e-01
-1.200000000000000000e+01,-2.000000000000000000e+00,-1.000000000000000000e+00,-3.000000000000000000e+00,3.000000000000000000e+00,-1.000000000000000000e+00,-2.000000000000000000e+00,-5.000000000000000000e+00,-2.626953125000000000e-01,3.878784179687500000e-01,3.441772460937500000e-01,8.136596679687500000e-01
1.500000000000000000e+01,2.000000000000000000e+00,9.000000000000000000e+00,6.000000000000000000e+00,1.000000000000000000e+00,-1.000000000000000000e+00,1.000000000000000000e+00,3.000000000000000000e+00,-2.626953125000000000e-01,3.878784179687500000e-01,3.441772460937500000e-01,8.136596679687500000e-01
-8.000000000000000000e+00,-5.000000000000000000e+00,2.000000000000000000e+00,-2.000000000000000000e+00,-4.000000000000000000e+00,0.000000000000000000e+00,0.000000000000000000e+00,-3.000000000000000000e+00,-2.626953125000000000e-01,3.878784179687500000e-01,3.441772460937500000e-01,8.136596679687500000e-01
-2.000000000000000000e+00,4.000000000000000000e+00,-1.400000000000000000e+01,-1.100000000000000000e+01,-4.000000000000000000e+00,-2.000000000000000000e+00,-3.000000000000000000e+00,-2.000000000000000000e+00,-2.626953125000000000e-01,3.878173828125000000e-01,3.441772460937500000e-01,8.136596679687500000e-01
-1.000000000000000000e+00,-4.000000000000000000e+00,-1.000000000000000000e+00,-1.000000000000000000e+00,-6.000000000000000000e+00,-2.000000000000000000e+00,0.000000000000000000e+00,-1.000000000000000000e+00,-2.626953125000000000e-01,3.878173828125000000e-01,3.441772460937500000e-01,8.136596679687500000e-01
-7.000000000000000000e+00,-4.000000000000000000e+00,-4.000000000000000000e+00,-4.000000000000000000e+00,-7.000000000000000000e+00,-3.000000000000000000e+00,0.000000000000000000e+00,-2.000000000000000000e+00,-2.626953125000000000e-01,3.878173828125000000e-01,3.441772460937500000e-01,8.136596679687500000e-01
1.000000000000000000e+00,2.000000000000000000e+00,-1.000000000000000000e+00,8.000000000000000000e+00,8.000000000000000000e+00,0.000000000000000000e+00,-3.000000000000000000e+00,-3.000000000000000000e+00,-2.626953125000000000e-01,3.878173828125000000e-01,3.441772460937500000e-01,8.136596679687500000e-01
1.000000000000000000e+00,-1.000000000000000000e+00,3.000000000000000000e+00,0.000000000000000000e+00,1.000000000000000000e+01,4.000000000000000000e+00,3.000000000000000000e+00,0.000000000000000000e+00,-2.626953125000000000e-01,3.878173828125000000e-01,3.441772460937500000e-01,8.136596679687500000e-01
2.000000000000000000e+00,-2.000000000000000000e+00,-3.000000000000000000e+00,5.000000000000000000e+00,-1.000000000000000000e+00,1.000000000000000000e+00,1.000000000000000000e+00,1.000000000000000000e+00,-2.626953125000000000e-01,3.878173828125000000e-01,3.441772460937500000e-01,8.136596679687500000e-01
-7.000000000000000000e+00,-4.000000000000000000e+00,-1.000000000000000000e+00,-1.000000000000000000e+00,0.000000000000000000e+00,1.000000000000000000e+00,-2.000000000000000000e+00,-2.000000000000000000e+00,-2.626953125000000000e-01,3.878173828125000000e-01,3.441772460937500000e-01,8.136596679687500000e-01
1.000000000000000000e+00,0.000000000000000000e+00,-6.000000000000000000e+00,0.000000000000000000e+00,-2.000000000000000000e+00,-2.000000000000000000e+00,-1.000000000000000000e+00,1.000000000000000000e+00,-2.626953125000000000e-01,3.878173828125000000e-01,3.441772460937500000e-01,8.136596679687500000e-01
3.000000000000000000e+00,1.000000000000000000e+00,-6.000000000000000000e+00,0.000000000000000000e+00,-6.000000000000000000e+00,-3.000000000000000000e+00,-6.000000000000000000e+00,0.000000000000000000e+00,-2.625122070312500000e-01,3.880004882812500000e-01,3.439331054687500000e-01,8.137207031250000000e-01
-1.000000000000000000e+00,-1.000000000000000000e+00,-8.000000000000000000e+00,0.000000000000000000e+00,0.000000000000000000e+00,0.000000000000000000e+00,4.000000000000000000e+00,2.000000000000000000e+00,-2.625122070312500000e-01,3.880004882812500000e-01,3.439331054687500000e-01,8.137207031250000000e-01
-1.000000000000000000e+00,-1.000000000000000000e+01,-8.000000000000000000e+00,-7.000000000000000000e+00,0.000000000000000000e+00,2.000000000000000000e+00,1.000000000000000000e+00,0.000000000000000000e+00,-2.625122070312500000e-01,3.880004882812500000e-01,3.439331054687500000e-01,8.137207031250000000e-01
-1.400000000000000000e+01,5.000000000000000000e+00,1.300000000000000000e+01,3.000000000000000000e+00,0.000000000000000000e+00,-2.000000000000000000e+00,-1.000000000000000000e+00,-4.000000000000000000e+00,-2.625122070312500000e-01,3.880004882812500000e-01,3.439331054687500000e-01,8.137207031250000000e-01
2.000000000000000000e+00,0.000000000000000000e+00,-1.000000000000000000e+00,0.000000000000000000e+00,-2.000000000000000000e+00,-3.000000000000000000e+00,-1.000000000000000000e+00,-1.000000000000000000e+00,-2.624511718750000000e-01,3.880004882812500000e-01,3.439331054687500000e-01,8.137207031250000000e-01
2.000000000000000000e+00,4.000000000000000000e+00,2.200000000000000000e+01,4.000000000000000000e+00,1.000000000000000000e+00,-3.000000000000000000e+00,-3.000000000000000000e+00,-1.000000000000000000e+00,-2.624511718750000000e-01,3.880004882812500000e-01,3.439331054687500000e-01,8.137207031250000000e-01
1.000000000000000000e+00,0.000000000000000000e+00,-9.000000000000000000e+00,0.000000000000000000e+00,-2.000000000000000000e+00,-3.000000000000000000e+00,-3.000000000000000000e+00,-2.000000000000000000e+00,-2.624511718750000000e-01,3.880004882812500000e-01,3.439331054687500000e-01,8.137207031250000000e-01
7.000000000000000000e+00,-2.000000000000000000e+00,-2.000000000000000000e+00,-3.000000000000000000e+00,-1.000000000000000000e+00,0.000000000000000000e+00,-4.000000000000000000e+00,1.000000000000000000e+00,-2.624511718750000000e-01,3.880004882812500000e-01,3.439331054687500000e-01,8.137207031250000000e-01
-1.200000000000000000e+01,-1.400000000000000000e+01,-1.200000000000000000e+01,-7.000000000000000000e+00,-9.000000000000000000e+00,-3.000000000000000000e+00,-1.000000000000000000e+00,-3.000000000000000000e+00,-2.628784179687500000e-01,3.877563476562500000e-01,3.441772460937500000e-01,8.136596679687500000e-01
-5.000000000000000000e+00,1.200000000000000000e+01,2.400000000000000000e+01,0.000000000000000000e+00,-5.000000000000000000e+00,0.000000000000000000e+00,0.000000000000000000e+00,-3.000000000000000000e+00,-2.628784179687500000e-01,3.877563476562500000e-01,3.441772460937500000e-01,8.136596679687500000e-01
2.000000000000000000e+00,3.000000000000000000e+00,-6.000000000000000000e+00,9.000000000000000000e+00,1.500000000000000000e+01,1.000000000000000000e+00,-2.000000000000000000e+00,1.000000000000000000e+00,-2.628784179687500000e-01,3.877563476562500000e-01,3.441772460937500000e-01,8.136596679687500000e-01
8.000000000000000000e+00,-2.000000000000000000e+00,-1.000000000000000000e+00,-4.000000000000000000e+00,-2.000000000000000000e+00,-4.000000000000000000e+00,-1.000000000000000000e+00,-2.000000000000000000e+00,-2.628784179687500000e-01,3.877563476562500000e-01,3.441772460937500000e-01,8.136596679687500000e-01
-1.000000000000000000e+00,-3.000000000000000000e+00,-7.000000000000000000e+00,-4.000000000000000000e+00,0.000000000000000000e+00,-2.000000000000000000e+00,0.000000000000000000e+00,0.000000000000000000e+00,-2.627563476562500000e-01,3.877563476562500000e-01,3.442382812500000000e-01,8.136596679687500000e-01
4.000000000000000000e+00,-3.000000000000000000e+00,-7.000000000000000000e+00,-3.000000000000000000e+00,-7.000000000000000000e+00,-2.000000000000000000e+00,-1.000000000000000000e+00,-2.000000000000000000e+00,-2.627563476562500000e-01,3.877563476562500000e-01,3.442382812500000000e-01,8.136596679687500000e-01
-6.000000000000000000e+00,-1.000000000000000000e+00,-4.000000000000000000e+00,-9.000000000000000000e+00,-1.000000000000000000e+00,-3.000000000000000000e+00,1.000000000000000000e+00,-3.000000000000000000e+00,-2.627563476562500000e-01,3.877563476562500000e-01,3.442382812500000000e-01,8.136596679687500000e-01
2.000000000000000000e+00,-1.000000000000000000e+00,-1.000000000000000000e+00,5.000000000000000000e+00,1.000000000000000000e+00,0.000000000000000000e+00,1.000000000000000000e+00,2.000000000000000000e+00,-2.627563476562500000e-01,3.877563476562500000e-01,3.442382812500000000e-01,8.136596679687500000e-01
5.000000000000000000e+00,0.000000000000000000e+00,9.000000000000000000e+00,-9.000000000000000000e+00,-2.000000000000000000e+00,-1.000000000000000000e+00,-1.000000000000000000e+00,1.000000000000000000e+00,-2.627563476562500000e-01,3.878173828125000000e-01,3.442382812500000000e-01,8.136596679687500000e-01
-8.000000000000000000e+00,-9.000000000000000000e+00,-2.800000000000000000e+01,-5.000000000000000000e+00,-1.000000000000000000e+00,-2.000000000000000000e+00,-4.000000000000000000e+00,-3.000000000000000000e+00,-2.627563476562500000e-01,3.878173828125000000e-01,3.442382812500000000e-01,8.136596679687500000e-01
-3.000000000000000000e+00,3.000000000000000000e+00,1.800000000000000000e+01,0.000000000000000000e+00,-5.000000000000000000e+00,-3.000000000000000000e+00,-2.000000000000000000e+00,0.000000000000000000e+00,-2.627563476562500000e-01,3.878173828125000000e-01,3.442382812500000000e-01,8.136596679687500000e-01
6.000000000000000000e+00,-1.000000000000000000e+00,-1.400000000000000000e+01,-5.000000000000000000e+00,0.000000000000000000e+00,-1.000000000000000000e+00,1.000000000000000000e+00,1.000000000000000000e+00,-2.627563476562500000e-01,3.878173828125000000e-01,3.442382812500000000e-01,8.136596679687500000e-01
-1.400000000000000000e+01,-7.000000000000000000e+00,6.000000000000000000e+00,2.000000000000000000e+00,-4.000000000000000000e+00,-2.000000000000000000e+00,0.000000000000000000e+00,-2.000000000000000000e+00,-2.627563476562500000e-01,3.878173828125000000e-01,3.442382812500000000e-01,8.135986328125000000e-01
4.000000000000000000e+00,1.000000000000000000e+00,-9.000000000000000000e+00,-2.000000000000000000e+00,7.000000000000000000e+00,5.000000000000000000e+00,4.000000000000000000e+00,4.000000000000000000e+00,-2.627563476562500000e-01,3.878173828125000000e-01,3.442382812500000000e-01,8.135986328125000000e-01
-3.000000000000000000e+00,4.000000000000000000e+00,2.000000000000000000e+00,-2.000000000000000000e+00,-2.000000000000000000e+00,-3.000000000000000000e+00,-2.000000000000000000e+00,-3.000000000000000000e+00,-2.627563476562500000e-01,3.878173828125000000e-01,3.442382812500000000e-01,8.135986328125000000e-01
3.000000000000000000e+00,-3.000000000000000000e+00,0.000000000000000000e+00,0.000000000000000000e+00,2.000000000000000000e+00,2.000000000000000000e+00,3.000000000000000000e+00,-1.000000000000000000e+00,-2.627563476562500000e-01,3.878173828125000000e-01,3.442382812500000000e-01,8.135986328125000000e-01
9.000000000000000000e+00,9.000000000000000000e+00,6.000000000000000000e+00,1.000000000000000000e+00,-3.000000000000000000e+00,-3.000000000000000000e+00,-4.000000000000000000e+00,0.000000000000000000e+00,-2.627563476562500000e-01,3.879394531250000000e-01,3.442382812500000000e-01,8.135375976562500000e-01
-6.000000000000000000e+00,-5.000000000000000000e+00,1.400000000000000000e+01,7.000000000000000000e+00,3.000000000000000000e+00,-1.000000000000000000e+00,-1.000000000000000000e+00,-2.000000000000000000e+00,-2.627563476562500000e-01,3.879394531250000000e-01,3.442382812500000000e-01,8.135375976562500000e-01
-3.000000000000000000e+00,-8.000000000000000000e+00,-2.100000000000000000e+01,-1.300000000000000000e+01,-9.000000000000000000e+00,-4.000000000000000000e+00,1.000000000000000000e+00,-1.000000000000000000e+00,-2.627563476562500000e-01,3.879394531250000000e-01,3.442382812500000000e-01,8.135375976562500000e-01
4.000000000000000000e+00,-1.000000000000000000e+00,7.000000000000000000e+00,1.000000000000000000e+00,2.000000000000000000e+00,-2.000000000000000000e+00,-2.000000000000000000e+00,-2.000000000000000000e+00,-2.627563476562500000e-01,3.879394531250000000e-01,3.442382812500000000e-01,8.135375976562500000e-01
-1.200000000000000000e+01,6.000000000000000000e+00,5.000000000000000000e+00,6.000000000000000000e+00,1.000000000000000000e+00,2.000000000000000000e+00,0.000000000000000000e+00,-3.000000000000000000e+00,-2.628173828125000000e-01,3.881835937500000000e-01,3.442993164062500000e-01,8.133544921875000000e-01
4.000000000000000000e+00,-3.000000000000000000e+00,-7.000000000000000000e+00,-4.000000000000000000e+00,-5.000000000000000000e+00,-2.000000000000000000e+00,-1.000000000000000000e+00,-1.000000000000000000e+00,-2.628173828125000000e-01,3.881835937500000000e-01,3.442993164062500000e-01,8.133544921875000000e-01
0.000000000000000000e+00,0.000000000000000000e+00,4.000000000000000000e+00,0.000000000000000000e+00,1.000000000000000000e+00,0.000000000000000000e+00,0.000000000000000000e+00,0.000000000000000000e+00,-2.628173828125000000e-01,3.881835937500000000e-01,3.442993164062500000e-01,8.133544921875000000e-01
-3.000000000000000000e+00,-1.000000000000000000e+00,-8.000000000000000000e+00,-6.000000000000000000e+00,-3.000000000000000000e+00,-3.000000000000000000e+00,-5.000000000000000000e+00,-4.000000000000000000e+00,-2.628173828125000000e-01,3.881835937500000000e-01,3.442993164062500000e-01,8.133544921875000000e-01
1.100000000000000000e+01,2.000000000000000000e+00,1.100000000000000000e+01,0.000000000000000000e+00,-4.000000000000000000e+00,-1.000000000000000000e+00,1.000000000000000000e+00,1.000000000000000000e+00,-2.627563476562500000e-01,3.884277343750000000e-01,3.444824218750000000e-01,8.132324218750000000e-01
-4.000000000000000000e+00,-2.000000000000000000e+00,-4.000000000000000000e+00,1.200000000000000000e+01,1.000000000000000000e+01,1.000000000000000000e+00,2.000000000000000000e+00,3.000000000000000000e+00,-2.627563476562500000e-01,3.884277343750000000e-01,3.444824218750000000e-01,8.132324218750000000e-01
9.000000000000000000e+00,2.000000000000000000e+00,-7.000000000000000000e+00,-4.000000000000000000e+00,-1.000000000000000000e+00,-1.000000000000000000e+00,-4.000000000000000000e+00,-3.000000000000000000e+00,-2.627563476562500000e-01,3.884277343750000000e-01,3.444824218750000000e-01,8.132324218750000000e-01
-2.000000000000000000e+01,-7.000000000000000000e+00,-8.000000000000000000e+00,-3.000000000000000000e+00,-1.000000000000000000e+00,4.000000000000000000e+00,1.000000000000000000e+00,0.000000000000000000e+00,-2.627563476562500000e-01,3.884277343750000000e-01,3.444824218750000000e-01,8.132324218750000000e-01
7.000000000000000000e+00,2.000000000000000000e+00,-7.000000000000000000e+00,-9.000000000000000000e+00,-2.000000000000000000e+00,-3.000000000000000000e+00,-2.000000000000000000e+00,-1.000000000000000000e+00,-2.625732421875000000e-01,3.887939453125000000e-01,3.444824218750000000e-01,8.131103515625000000e-01
-1.000000000000000000e+00,-1.000000000000000000e+00,4.000000000000000000e+00,2.000000000000000000e+00,-9.000000000000000000e+00,-5.000000000000000000e+00,-2.000000000000000000e+00,1.000000000000000000e+00,-2.625732421875000000e-01,3.887939453125000000e-01,3.444824218750000000e-01,8.131103515625000000e-01
-7.000000000000000000e+00,-1.000000000000000000e+00,1.200000000000000000e+01,9.000000000000000000e+00,4.000000000000000000e+00,-1.000000000000000000e+00,1.000000000000000000e+00,-3.000000000000000000e+00,-2.625732421875000000e-01,3.887939453125000000e-01,3.444824218750000000e-01,8.131103515625000000e-01
2.000000000000000000e+00,1.000000000000000000e+00,0.000000000000000000e+00,0.000000000000000000e+00,1.000000000000000000e+00,0.000000000000000000e+00,-2.000000000000000000e+00,0.000000000000000000e+00,-2.625732421875000000e-01,3.887939453125000000e-01,3.444824218750000000e-01,8.131103515625000000e-01
2.000000000000000000e+00,0.000000000000000000e+00,-2.000000000000000000e+00,-1.000000000000000000e+00,-1.000000000000000000e+00,0.000000000000000000e+00,-2.000000000000000000e+00,-2.000000000000000000e+00,-2.628173828125000000e-01,3.889770507812500000e-01,3.446655273437500000e-01,8.128662109375000000e-01
2.000000000000000000e+00,-1.000000000000000000e+00,-6.000000000000000000e+00,-7.000000000000000000e+00,-1.000000000000000000e+00,-2.000000000000000000e+00,-2.000000000000000000e+00,0.000000000000000000e+00,-2.628173828125000000e-01,3.889770507812500000e-01,3.446655273437500000e-01,8.128662109375000000e-01
-5.000000000000000000e+00,-3.000000000000000000e+00,-1.500000000000000000e+01,-5.000000000000000000e+00,-2.000000000000000000e+00,0.000000000000000000e+00,-3.000000000000000000e+00,-1.000000000000000000e+00,-2.628173828125000000e-01,3.889770507812500000e-01,3.446655273437500000e-01,8.128662109375000000e-01
2.000000000000000000e+00,-4.000000000000000000e+00,1.000000000000000000e+01,4.000000000000000000e+00,-3.000000000000000000e+00,-1.000000000000000000e+00,-2.000000000000000000e+00,0.000000000000000000e+00,-2.628173828125000000e-01,3.889770507812500000e-01,3.446655273437500000e-01,8.128662109375000000e-01
2.000000000000000000e+00,0.000000000000000000e+00,-4.000000000000000000e+00,-1.000000000000000000e+00,-2.000000000000000000e+00,0.000000000000000000e+00,-2.000000000000000000e+00,-1.000000000000000000e+00,-2.630615234375000000e-01,3.889160156250000000e-01,3.449096679687500000e-01,8.127441406250000000e-01
-1.100000000000000000e+01,-5.000000000000000000e+00,-1.400000000000000000e+01,-5.000000000000000000e+00,-1.000000000000000000e+00,1.000000000000000000e+00,-2.000000000000000000e+00,-1.000000000000000000e+00,-2.630615234375000000e-01,3.889160156250000000e-01,3.449096679687500000e-01,8.127441406250000000e-01
-3.000000000000000000e+00,1.000000000000000000e+00,6.000000000000000000e+00,-1.000000000000000000e+00,0.000000000000000000e+00,0.000000000000000000e+00,0.000000000000000000e+00,0.000000000000000000e+00,-2.630615234375000000e-01,3.889160156250000000e-01,3.449096679687500000e-01,8.127441406250000000e-01
-2.000000000000000000e+00,7.000000000000000000e+00,1.000000000000000000e+01,4.000000000000000000e+00,1.000000000000000000e+00,-1.000000000000000000e+00,1.000000000000000000e+00,-2.000000000000000000e+00,-2.630615234375000000e-01,3.889160156250000000e-01,3.449096679687500000e-01,8.127441406250000000e-01
-2.000000000000000000e+00,-8.000000000000000000e+00,-1.300000000000000000e+01,-5.000000000000000000e+00,-4.000000000000000000e+00,-1.000000000000000000e+00,-2.000000000000000000e+00,-4.000000000000000000e+00,-2.632446289062500000e-01,3.889770507812500000e-01,3.449707031250000000e-01,8.126220703125000000e-01
3.000000000000000000e+00,-2.000000000000000000e+00,3.000000000000000000e+00,3.000000000000000000e+00,0.000000000000000000e+00,-2.000000000000000000e+00,0.000000000000000000e+00,-4.000000000000000000e+00,-2.632446289062500000e-01,3.889770507812500000e-01,3.449707031250000000e-01,8.126220703125000000e-01
2.000000000000000000e+01,9.000000000000000000e+00,1.500000000000000000e+01,1.000000000000000000e+00,2.000000000000000000e+00,3.000000000000000000e+00,-1.000000000000000000e+00,2.000000000000000000e+00,-2.632446289062500000e-01,3.889770507812500000e-01,3.449707031250000000e-01,8.126220703125000000e-01
-3.500000000000000000e+01,-2.100000000000000000e+01,-5.300000000000000000e+01,-1.900000000000000000e+01,-8.000000000000000000e+00,-2.000000000000000000e+00,0.000000000000000000e+00,-1.000000000000000000e+00,-2.632446289062500000e-01,3.889770507812500000e-01,3.449707031250000000e-01,8.126220703125000000e-01
2.000000000000000000e+00,1.000000000000000000e+00,-1.000000000000000000e+00,8.000000000000000000e+00,5.000000000000000000e+00,1.000000000000000000e+00,0.000000000000000000e+00,-1.000000000000000000e+00,-2.631225585937500000e-01,3.890991210937500000e-01,3.449096679687500000e-01,8.126220703125000000e-01
-1.000000000000000000e+00,0.000000000000000000e+00,1.300000000000000000e+01,-5.000000000000000000e+00,-5.000000000000000000e+00,-3.000000000000000000e+00,-1.000000000000000000e+00,0.000000000000000000e+00,-2.631225585937500000e-01,3.890991210937500000e-01,3.449096679687500000e-01,8.126220703125000000e-01
-2.000000000000000000e+00,-5.000000000000000000e+00,-2.000000000000000000e+00,-3.000000000000000000e+00,-9.000000000000000000e+00,-4.000000000000000000e+00,0.000000000000000000e+00,0.000000000000000000e+00,-2.631225585937500000e-01,3.890991210937500000e-01,3.449096679687500000e-01,8.126220703125000000e-01
1.800000000000000000e+01,1.000000000000000000e+01,6.000000000000000000e+00,1.000000000000000000e+01,3.000000000000000000e+00,1.000000000000000000e+00,-1.000000000000000000e+00,1.000000000000000000e+00,-2.631225585937500000e-01,3.890991210937500000e-01,3.449096679687500000e-01,8.126220703125000000e-01
-5.000000000000000000e+00,-9.000000000000000000e+00,-1.100000000000000000e+01,-2.000000000000000000e+00,8.000000000000000000e+00,1.000000000000000000e+00,0.000000000000000000e+00,-1.000000000000000000e+00,-2.626953125000000000e-01,3.890991210937500000e-01,3.447875976562500000e-01,8.128051757812500000e-01
0.000000000000000000e+00,4.000000000000000000e+00,-3.000000000000000000e+00,1.000000000000000000e+00,0.000000000000000000e+00,-1.000000000000000000e+00,-1.000000000000000000e+00,-2.000000000000000000e+00,-2.626953125000000000e-01,3.890991210937500000e-01,3.447875976562500000e-01,8.128051757812500000e-01
-7.000000000000000000e+00,-3.000000000000000000e+00,-3.000000000000000000e+00,-5.000000000000000000e+00,-4.000000000000000000e+00,-2.000000000000000000e+00,-2.000000000000000000e+00,-1.000000000000000000e+00,-2.626953125000000000e-01,3.890991210937500000e-01,3.447875976562500000e-01,8.128051757812500000e-01
3.000000000000000000e+00,2.000000000000000000e+00,1.300000000000000000e+01,-1.000000000000000000e+00,-3.000000000000000000e+00,0.000000000000000000e+00,-3.000000000000000000e+00,-2.000000000000000000e+00,-2.626953125000000000e-01,3.890991210937500000e-01,3.447875976562500000e-01,8.128051757812500000e-01
-1.000000000000000000e+00,2.000000000000000000e+00,-1.300000000000000000e+01,-1.200000000000000000e+01,-7.000000000000000000e+00,-4.000000000000000000e+00,-3.000000000000000000e+00,-2.000000000000000000e+00,-2.626342773437500000e-01,3.890991210937500000e-01,3.448486328125000000e-01,8.128051757812500000e-01
-2.000000000000000000e+00,-2.000000000000000000e+00,3.100000000000000000e+01,2.400000000000000000e+01,8.000000000000000000e+00,3.000000000000000000e+00,-2.000000000000000000e+00,-2.000000000000000000e+00,-2.626342773437500000e-01,3.890991210937500000e-01,3.448486328125000000e-01,8.128051757812500000e-01
-5.000000000000000000e+00,-4.000000000000000000e+00,-1.000000000000000000e+01,-1.000000000000000000e+00,-1.000000000000000000e+00,-1.000000000000000000e+00,1.000000000000000000e+00,1.000000000000000000e+00,-2.626342773437500000e-01,3.890991210937500000e-01,3.448486328125000000e-01,8.128051757812500000e-01
0.000000000000000000e+00,2.000000000000000000e+00,5.000000000000000000e+00,1.000000000000000000e+00,-1.000000000000000000e+00,0.000000000000000000e+00,-2.000000000000000000e+00,-2.000000000000000000e+00,-2.626342773437500000e-01,3.890991210937500000e-01,3.448486328125000000e-01,8.128051757812500000e-01
4.000000000000000000e+00,0.000000000000000000e+00,1.000000000000000000e+01,5.000000000000000000e+00,-2.000000000000000000e+00,-3.000000000000000000e+00,-1.000000000000000000e+00,2.000000000000000000e+00,-2.628173828125000000e-01,3.887939453125000000e-01,3.452758789062500000e-01,8.126831054687500000e-01
1.000000000000000000e+00,-3.000000000000000000e+00,-9.000000000000000000e+00,-8.000000000000000000e+00,-1.000000000000000000e+00,-1.000000000000000000e+00,-3.000000000000000000e+00,-1.000000000000000000e+00,-2.628173828125000000e-01,3.887939453125000000e-01,3.452758789062500000e-01,8.126831054687500000e-01
-2.000000000000000000e+00,1.000000000000000000e+00,1.600000000000000000e+01,0.000000000000000000e+00,0.000000000000000000e+00,1.000000000000000000e+00,1.000000000000000000e+00,2.000000000000000000e+00,-2.628173828125000000e-01,3.887939453125000000e-01,3.452758789062500000e-01,8.126831054687500000e-01
3.000000000000000000e+00,-2.000000000000000000e+00,-2.900000000000000000e+01,-5.000000000000000000e+00,1.000000000000000000e+00,-1.000000000000000000e+00,-1.000000000000000000e+00,1.000000000000000000e+00,-2.628173828125000000e-01,3.887939453125000000e-01,3.452758789062500000e-01,8.126831054687500000e-01
-3.000000000000000000e+00,2.000000000000000000e+00,1.000000000000000000e+00,-3.000000000000000000e+00,-1.000000000000000000e+00,-1.000000000000000000e+00,-1.000000000000000000e+00,-1.000000000000000000e+00,-2.630004882812500000e-01,3.884887695312500000e-01,3.455810546875000000e-01,8.126831054687500000e-01
1.000000000000000000e+00,-1.000000000000000000e+00,1.000000000000000000e+00,-2.000000000000000000e+00,-1.000000000000000000e+00,1.000000000000000000e+00,0.000000000000000000e+00,-1.000000000000000000e+00,-2.630004882812500000e-01,3.884887695312500000e-01,3.455810546875000000e-01,8.126831054687500000e-01
-8.000000000000000000e+00,-5.000000000000000000e+00,2.000000000000000000e+00,-1.000000000000000000e+00,-4.000000000000000000e+00,-2.000000000000000000e+00,2.000000000000000000e+00,0.000000000000000000e+00,-2.630004882812500000e-01,3.884887695312500000e-01,3.455810546875000000e-01,8.126831054687500000e-01
1.500000000000000000e+01,6.000000000000000000e+00,-4.000000000000000000e+00,0.000000000000000000e+00,2.000000000000000000e+00,-2.000000000000000000e+00,-1.000000000000000000e+00,-1.000000000000000000e+00,-2.630004882812500000e-01,3.884887695312500000e-01,3.455810546875000000e-01,8.126831054687500000e-01
-2.200000000000000000e+01,-6.000000000000000000e+00,4.000000000000000000e+00,-1.000000000000000000e+00,-3.000000000000000000e+00,-3.000000000000000000e+00,-1.000000000000000000e+00,-3.000000000000000000e+00,-2.630004882812500000e-01,3.884887695312500000e-01,3.455810546875000000e-01,8.126831054687500000e-01
6.000000000000000000e+00,5.000000000000000000e+00,1.000000000000000000e+00,8.000000000000000000e+00,1.000000000000000000e+01,2.000000000000000000e+00,3.000000000000000000e+00,2.000000000000000000e+00,-2.630004882812500000e-01,3.884887695312500000e-01,3.455810546875000000e-01,8.126831054687500000e-01
2.000000000000000000e+00,1.000000000000000000e+00,9.000000000000000000e+00,4.000000000000000000e+00,1.000000000000000000e+00,0.000000000000000000e+00,-2.000000000000000000e+00,-1.000000000000000000e+00,-2.630004882812500000e-01,3.884887695312500000e-01,3.455810546875000000e-01,8.126831054687500000e-01
-5.000000000000000000e+00,-3.000000000000000000e+00,2.000000000000000000e+00,-8.000000000000000000e+00,-7.000000000000000000e+00,-3.000000000000000000e+00,-3.000000000000000000e+00,-3.000000000000000000e+00,-2.630004882812500000e-01,3.884887695312500000e-01,3.455810546875000000e-01,8.126831054687500000e-01
1.000000000000000000e+01,3.000000000000000000e+00,-2.000000000000000000e+00,-8.000000000000000000e+00,-8.000000000000000000e+00,-3.000000000000000000e+00,-2.000000000000000000e+00,2.000000000000000000e+00,-2.626953125000000000e-01,3.884887695312500000e-01,3.453979492187500000e-01,8.128051757812500000e-01
-3.000000000000000000e+00,-7.000000000000000000e+00,-4.000000000000000000e+00,-4.000000000000000000e+00,-8.000000000000000000e+00,-1.000000000000000000e+00,-2.000000000000000000e+00,-3.000000000000000000e+00,-2.626953125000000000e-01,3.884887695312500000e-01,3.453979492187500000e-01,8.128051757812500000e-01
-5.000000000000000000e+00,5.000000000000000000e+00,4.000000000000000000e+00,0.000000000000000000e+00,6.000000000000000000e+00,3.000000000000000000e+00,-1.000000000000000000e+00,-1.000000000000000000e+00,-2.626953125000000000e-01,3.884887695312500000e-01,3.453979492187500000e-01,8.128051757812500000e-01
-5.000000000000000000e+00,-2.000000000000000000e+00,1.100000000000000000e+01,9.000000000000000000e+00,1.000000000000000000e+00,-1.000000000000000000e+00,-2.000000000000000000e+00,-3.000000000000000000e+00,-2.626953125000000000e-01,3.884887695312500000e-01,3.453979492187500000e-01,8.128051757812500000e-01
2.000000000000000000e+00,-3.000000000000000000e+00,4.000000000000000000e+00,-1.000000000000000000e+00,-1.000000000000000000e+00,0.000000000000000000e+00,0.000000000000000000e+00,-1.000000000000000000e+00,-2.622680664062500000e-01,3.887939453125000000e-01,3.453369140625000000e-01,8.128051757812500000e-01
-4.000000000000000000e+00,0.000000000000000000e+00,-9.000000000000000000e+00,-8.000000000000000000e+00,-3.000000000000000000e+00,-2.000000000000000000e+00,0.000000000000000000e+00,1.000000000000000000e+00,-2.622680664062500000e-01,3.887939453125000000e-01,3.453369140625000000e-01,8.128051757812500000e-01
1.000000000000000000e+00,-3.000000000000000000e+00,-7.000000000000000000e+00,-1.400000000000000000e+01,-7.000000000000000000e+00,-5.000000000000000000e+00,-4.000000000000000000e+00,-2.000000000000000000e+00,-2.622680664062500000e-01,3.887939453125000000e-01,3.453369140625000000e-01,8.128051757812500000e-01
-1.000000000000000000e+00,-3.000000000000000000e+00,-9.000000000000000000e+00,3.000000000000000000e+00,0.000000000000000000e+00,1.000000000000000000e+00,3.000000000000000000e+00,0.000000000000000000e+00,-2.622680664062500000e-01,3.887939453125000000e-01,3.453369140625000000e-01,8.128051757812500000e-01
-1.000000000000000000e+00,-1.000000000000000000e+00,0.000000000000000000e+00,2.000000000000000000e+00,2.000000000000000000e+00,1.000000000000000000e+00,-1.000000000000000000e+00,-1.000000000000000000e+00,-2.624511718750000000e-01,3.887329101562500000e-01,3.454589843750000000e-01,8.128051757812500000e-01
1.000000000000000000e+00,0.000000000000000000e+00,-1.200000000000000000e+01,-6.000000000000000000e+00,-3.000000000000000000e+00,-2.000000000000000000e+00,0.000000000000000000e+00,-1.000000000000000000e+00,-2.624511718750000000e-01,3.887329101562500000e-01,3.454589843750000000e-01,8.128051757812500000e-01
-2.000000000000000000e+00,-4.000000000000000000e+00,-1.000000000000000000e+00,5.000000000000000000e+00,2.000000000000000000e+00,0.000000000000000000e+00,0.000000000000000000e+00,-3.000000000000000000e+00,-2.624511718750000000e-01,3.887329101562500000e-01,3.454589843750000000e-01,8.128051757812500000e-01
-5.000000000000000000e+00,0.000000000000000000e+00,8.000000000000000000e+00,1.000000000000000000e+00,3.000000000000000000e+00,3.000000000000000000e+00,1.000000000000000000e+00,-1.000000000000000000e+00,-2.624511718750000000e-01,3.887329101562500000e-01,3.454589843750000000e-01,8.128051757812500000e-01
2.000000000000000000e+01,1.100000000000000000e+01,-4.000000000000000000e+00,1.000000000000000000e+01,0.000000000000000000e+00,-1.000000000000000000e+00,0.000000000000000000e+00,1.000000000000000000e+00,-2.625732421875000000e-01,3.886108398437500000e-01,3.456420898437500000e-01,8.127441406250000000e-01
-2.900000000000000000e+01,-1.700000000000000000e+01,4.000000000000000000e+00,-2.000000000000000000e+00,-1.000000000000000000e+00,-2.000000000000000000e+00,-2.000000000000000000e+00,-1.000000000000000000e+00,-2.625732421875000000e-01,3.886108398437500000e-01,3.456420898437500000e-01,8.127441406250000000e-01
