3.000000000000000000e+00,-6.000000000000000000e+00,-3.000000000000000000e+00,1.000000000000000000e+00,-3.000000000000000000e+00,-1.300000000000000000e+01,2.000000000000000000e+00,3.000000000000000000e+00,-4.069824218750000000e-01,2.304687500000000000e-01,6.434326171875000000e-01,6.059570312500000000e-01
4.000000000000000000e+00,4.000000000000000000e+00,9.000000000000000000e+00,4.000000000000000000e+00,-1.000000000000000000e+00,0.000000000000000000e+00,-9.000000000000000000e+00,-2.000000000000000000e+00,-4.069824218750000000e-01,2.304687500000000000e-01,6.434326171875000000e-01,6.059570312500000000e-01
-3.000000000000000000e+00,-1.000000000000000000e+01,-5.000000000000000000e+00,-6.000000000000000000e+00,-1.000000000000000000e+00,-1.000000000000000000e+00,-1.000000000000000000e+01,2.000000000000000000e+00,-4.069824218750000000e-01,2.304687500000000000e-01,6.434326171875000000e-01,6.059570312500000000e-01
-6.000000000000000000e+00,-3.000000000000000000e+00,-5.000000000000000000e+00,1.000000000000000000e+00,-2.000000000000000000e+00,1.300000000000000000e+01,1.000000000000000000e+01,-3.000000000000000000e+00,-4.069824218750000000e-01,2.304687500000000000e-01,6.434326171875000000e-01,6.059570312500000000e-01
4.000000000000000000e+00,4.000000000000000000e+00,-5.000000000000000000e+00,-1.000000000000000000e+00,-3.000000000000000000e+00,-2.000000000000000000e+00,-7.000000000000000000e+00,-3.000000000000000000e+00,-4.083251953125000000e-01,2.301025390625000000e-01,6.429443359375000000e-01,6.057128906250000000e-01
-6.000000000000000000e+00,-5.000000000000000000e+00,-5.000000000000000000e+00,-1.000000000000000000e+00,1.000000000000000000e+00,-1.700000000000000000e+01,0.000000000000000000e+00,-3.000000000000000000e+00,-4.083251953125000000e-01,2.301025390625000000e-01,6.429443359375000000e-01,6.057128906250000000e-01
-8.000000000000000000e+00,-9.000000000000000000e+00,-6.000000000000000000e+00,-9.000000000000000000e+00,-4.000000000000000000e+00,-3.000000000000000000e+00,0.000000000000000000e+00,-2.000000000000000000e+00,-4.083251953125000000e-01,2.301025390625000000e-01,6.429443359375000000e-01,6.057128906250000000e-01
3.000000000000000000e+00,2.000000000000000000e+00,5.000000000000000000e+00,0.000000000000000000e+00,2.000000000000000000e+00,5.000000000000000000e+00,-7.000000000000000000e+00,1.000000000000000000e+00,-4.083251953125000000e-01,2.301025390625000000e-01,6.429443359375000000e-01,6.057128906250000000e-01
1.000000000000000000e+00,-3.000000000000000000e+00,-1.000000000000000000e+00,0.000000000000000000e+00,-2.000000000000000000e+00,-2.000000000000000000e+00,1.200000000000000000e+01,2.000000000000000000e+00,-4.097900390625000000e-01,2.306518554687500000e-01,6.428222656250000000e-01,6.046752929687500000e-01
-1.000000000000000000e+00,-4.000000000000000000e+00,2.000000000000000000e+00,3.000000000000000000e+00,-2.000000000000000000e+00,5.000000000000000000e+00,-1.000000000000000000e+00,2.000000000000000000e+00,-4.097900390625000000e-01,2.306518554687500000e-01,6.428222656250000000e-01,6.046752929687500000e-01
-4.000000000000000000e+00,4.000000000000000000e+00,-5.000000000000000000e+00,-4.000000000000000000e+00,-1.000000000000000000e+00,-4.000000000000000000e+00,-3.000000000000000000e+00,0.000000000000000000e+00,-4.097900390625000000e-01,2.306518554687500000e-01,6.428222656250000000e-01,6.046752929687500000e-01
4.000000000000000000e+00,4.000000000000000000e+00,5.000000000000000000e+00,6.000000000000000000e+00,0.000000000000000000e+00,0.000000000000000000e+00,3.000000000000000000e+00,-3.000000000000000000e+00,-4.097900390625000000e-01,2.306518554687500000e-01,6.428222656250000000e-01,6.046752929687500000e-01
-3.000000000000000000e+00,-3.000000000000000000e+00,0.000000000000000000e+00,1.000000000000000000e+00,4.000000000000000000e+00,2.000000000000000000e+00,-3.000000000000000000e+00,-2.000000000000000000e+00,-4.110717773437500000e-01,2.307128906250000000e-01,6.438598632812500000e-01,6.026000976562500000e-01
4.000000000000000000e+00,1.800000000000000000e+01,4.000000000000000000e+00,-1.400000000000000000e+01,-6.000000000000000000e+00,-6.000000000000000000e+00,-1.000000000000000000e+00,-1.000000000000000000e+00,-4.110717773437500000e-01,2.307128906250000000e-01,6.438598632812500000e-01,6.026000976562500000e-01
0.000000000000000000e+00,-9.000000000000000000e+00,-8.000000000000000000e+00,5.000000000000000000e+00,1.000000000000000000e+00,-4.000000000000000000e+00,-5.000000000000000000e+00,0.000000000000000000e+00,-4.110717773437500000e-01,2.307128906250000000e-01,6.438598632812500000e-01,6.026000976562500000e-01
-5.000000000000000000e+00,-4.000000000000000000e+00,-3.000000000000000000e+00,1.000000000000000000e+00,2.000000000000000000e+00,0.000000000000000000e+00,3.000000000000000000e+00,-1.000000000000000000e+00,-4.110717773437500000e-01,2.307128906250000000e-01,6.438598632812500000e-01,6.026000976562500000e-01
2.000000000000000000e+00,-5.000000000000000000e+00,2.000000000000000000e+00,-7.000000000000000000e+00,-5.000000000000000000e+00,-7.000000000000000000e+00,-3.000000000000000000e+00,-2.000000000000000000e+00,-4.128417968750000000e-01,2.302246093750000000e-01,6.449584960937500000e-01,6.004028320312500000e-01
-2.000000000000000000e+00,-4.000000000000000000e+00,-1.000000000000000000e+01,6.000000000000000000e+00,3.000000000000000000e+00,0.000000000000000000e+00,-3.000000000000000000e+00,1.000000000000000000e+00,-4.128417968750000000e-01,2.302246093750000000e-01,6.449584960937500000e-01,6.004028320312500000e-01
3.000000000000000000e+00,5.000000000000000000e+00,6.000000000000000000e+00,-9.000000000000000000e+00,-6.000000000000000000e+00,-1.000000000000000000e+01,2.400000000000000000e+01,-1.000000000000000000e+00,-4.128417968750000000e-01,2.302246093750000000e-01,6.449584960937500000e-01,6.004028320312500000e-01
1.000000000000000000e+00,1.000000000000000000e+00,-3.000000000000000000e+00,-8.000000000000000000e+00,-1.000000000000000000e+00,0.000000000000000000e+00,-1.800000000000000000e+01,0.000000000000000000e+00,-4.128417968750000000e-01,2.302246093750000000e-01,6.449584960937500000e-01,6.004028320312500000e-01
-2.000000000000000000e+00,-2.000000000000000000e+00,6.000000000000000000e+00,9.000000000000000000e+00,4.000000000000000000e+00,1.000000000000000000e+01,1.300000000000000000e+01,3.000000000000000000e+00,-4.135131835937500000e-01,2.305908203125000000e-01,6.452636718750000000e-01,5.994873046875000000e-01
-4.000000000000000000e+00,-5.000000000000000000e+00,-7.000000000000000000e+00,-2.300000000000000000e+01,-9.000000000000000000e+00,-1.000000000000000000e+01,-3.000000000000000000e+00,-6.000000000000000000e+00,-4.135131835937500000e-01,2.305908203125000000e-01,6.452636718750000000e-01,5.994873046875000000e-01
-5.000000000000000000e+00,-4.000000000000000000e+00,1.000000000000000000e+00,1.900000000000000000e+01,2.000000000000000000e+00,-1.100000000000000000e+01,-1.000000000000000000e+01,-4.000000000000000000e+00,-4.135131835937500000e-01,2.305908203125000000e-01,6.452636718750000000e-01,5.994873046875000000e-01
0.000000000000000000e+00,-4.000000000000000000e+00,1.100000000000000000e+01,0.000000000000000000e+00,-2.000000000000000000e+00,-6.000000000000000000e+00,0.000000000000000000e+00,0.000000000000000000e+00,-4.135131835937500000e-01,2.305908203125000000e-01,6.452636718750000000e-01,5.994873046875000000e-01
-2.000000000000000000e+00,2.000000000000000000e+00,-5.000000000000000000e+00,-3.000000000000000000e+00,3.000000000000000000e+00,-1.000000000000000000e+00,-4.000000000000000000e+00,-2.000000000000000000e+00,-4.128417968750000000e-01,2.322387695312500000e-01,6.440429687500000000e-01,6.007080078125000000e-01
2.000000000000000000e+00,-1.000000000000000000e+00,-3.000000000000000000e+00,-6.000000000000000000e+00,-4.000000000000000000e+00,1.000000000000000000e+00,1.200000000000000000e+01,0.000000000000000000e+00,-4.128417968750000000e-01,2.322387695312500000e-01,6.440429687500000000e-01,6.007080078125000000e-01
1.000000000000000000e+00,0.000000000000000000e+00,-2.000000000000000000e+00,7.000000000000000000e+00,4.000000000000000000e+00,1.400000000000000000e+01,2.000000000000000000e+00,-1.000000000000000000e+00,-4.128417968750000000e-01,2.322387695312500000e-01,6.440429687500000000e-01,6.007080078125000000e-01
-3.000000000000000000e+00,1.000000000000000000e+00,-4.000000000000000000e+00,-6.000000000000000000e+00,-6.000000000000000000e+00,-7.000000000000000000e+00,-2.400000000000000000e+01,-3.000000000000000000e+00,-4.128417968750000000e-01,2.322387695312500000e-01,6.440429687500000000e-01,6.007080078125000000e-01
0.000000000000000000e+00,3.000000000000000000e+00,-3.000000000000000000e+00,2.000000000000000000e+00,0.000000000000000000e+00,2.000000000000000000e+00,-4.000000000000000000e+00,-2.000000000000000000e+00,-4.109497070312500000e-01,2.351684570312500000e-01,6.421508789062500000e-01,6.028442382812500000e-01
-5.000000000000000000e+00,-9.000000000000000000e+00,5.000000000000000000e+00,-1.000000000000000000e+00,-2.000000000000000000e+00,4.000000000000000000e+00,6.000000000000000000e+00,-2.000000000000000000e+00,-4.109497070312500000e-01,2.351684570312500000e-01,6.421508789062500000e-01,6.028442382812500000e-01
0.000000000000000000e+00,0.000000000000000000e+00,1.000000000000000000e+00,-1.000000000000000000e+01,-3.000000000000000000e+00,-4.000000000000000000e+00,-8.000000000000000000e+00,-1.000000000000000000e+00,-4.109497070312500000e-01,2.351684570312500000e-01,6.421508789062500000e-01,6.028442382812500000e-01
3.000000000000000000e+00,8.000000000000000000e+00,-4.000000000000000000e+00,1.500000000000000000e+01,5.000000000000000000e+00,2.000000000000000000e+00,1.100000000000000000e+01,2.000000000000000000e+00,-4.109497070312500000e-01,2.351684570312500000e-01,6.421508789062500000e-01,6.028442382812500000e-01
-6.000000000000000000e+00,-1.000000000000000000e+01,-5.000000000000000000e+00,-1.000000000000000000e+01,-7.000000000000000000e+00,-1.200000000000000000e+01,-2.000000000000000000e+00,-2.000000000000000000e+00,-4.093627929687500000e-01,2.377319335937500000e-01,6.416015625000000000e-01,6.034545898437500000e-01
-3.000000000000000000e+00,-8.000000000000000000e+00,-3.000000000000000000e+00,1.000000000000000000e+00,6.000000000000000000e+00,2.800000000000000000e+01,1.300000000000000000e+01,-1.000000000000000000e+00,-4.093627929687500000e-01,2.377319335937500000e-01,6.416015625000000000e-01,6.034545898437500000e-01
0.000000000000000000e+00,3.000000000000000000e+00,-1.000000000000000000e+00,1.000000000000000000e+00,0.000000000000000000e+00,-8.000000000000000000e+00,-1.100000000000000000e+01,-3.000000000000000000e+00,-4.093627929687500000e-01,2.377319335937500000e-01,6.416015625000000000e-01,6.034545898437500000e-01
-1.000000000000000000e+00,3.000000000000000000e+00,-1.000000000000000000e+00,3.000000000000000000e+00,-3.000000000000000000e+00,-4.000000000000000000e+00,7.000000000000000000e+00,1.000000000000000000e+00,-4.093627929687500000e-01,2.377319335937500000e-01,6.416015625000000000e-01,6.034545898437500000e-01
0.000000000000000000e+00,1.000000000000000000e+00,3.000000000000000000e+00,3.000000000000000000e+00,0.000000000000000000e+00,6.000000000000000000e+00,-1.000000000000000000e+00,-1.000000000000000000e+00,-4.097900390625000000e-01,2.376708984375000000e-01,6.425781250000000000e-01,6.021728515625000000e-01
-2.000000000000000000e+00,-3.000000000000000000e+00,-5.000000000000000000e+00,-5.000000000000000000e+00,-3.000000000000000000e+00,-7.000000000000000000e+00,0.000000000000000000e+00,0.000000000000000000e+00,-4.097900390625000000e-01,2.376708984375000000e-01,6.425781250000000000e-01,6.021728515625000000e-01
-3.000000000000000000e+00,-5.000000000000000000e+00,-1.200000000000000000e+01,0.000000000000000000e+00,-3.000000000000000000e+00,1.000000000000000000e+00,-2.000000000000000000e+00,-1.000000000000000000e+00,-4.097900390625000000e-01,2.376708984375000000e-01,6.425781250000000000e-01,6.021728515625000000e-01
0.000000000000000000e+00,3.000000000000000000e+00,1.600000000000000000e+01,9.000000000000000000e+00,2.000000000000000000e+00,0.000000000000000000e+00,-7.000000000000000000e+00,-1.000000000000000000e+00,-4.097900390625000000e-01,2.376708984375000000e-01,6.425781250000000000e-01,6.021728515625000000e-01
-3.000000000000000000e+00,-5.000000000000000000e+00,-8.000000000000000000e+00,2.000000000000000000e+00,0.000000000000000000e+00,-1.000000000000000000e+00,2.000000000000000000e+00,-1.000000000000000000e+00,-4.119262695312500000e-01,2.352905273437500000e-01,6.435546875000000000e-01,6.005859375000000000e-01
-2.000000000000000000e+00,3.000000000000000000e+00,3.000000000000000000e+00,-1.000000000000000000e+00,-1.000000000000000000e+00,-3.000000000000000000e+00,-7.000000000000000000e+00,-1.000000000000000000e+00,-4.119262695312500000e-01,2.352905273437500000e-01,6.435546875000000000e-01,6.005859375000000000e-01
0.000000000000000000e+00,-3.000000000000000000e+00,-4.000000000000000000e+00,-1.000000000000000000e+00,-2.000000000000000000e+00,1.000000000000000000e+00,-1.000000000000000000e+00,-1.000000000000000000e+00,-4.119262695312500000e-01,2.352905273437500000e-01,6.435546875000000000e-01,6.005859375000000000e-01
0.000000000000000000e+00,-1.000000000000000000e+00,2.000000000000000000e+00,-8.000000000000000000e+00,-6.000000000000000000e+00,-8.000000000000000000e+00,-2.000000000000000000e+00,-4.000000000000000000e+00,-4.119262695312500000e-01,2.352905273437500000e-01,6.435546875000000000e-01,6.005859375000000000e-01
1.000000000000000000e+00,5.000000000000000000e+00,6.000000000000000000e+00,1.100000000000000000e+01,1.000000000000000000e+00,-1.900000000000000000e+01,-1.000000000000000000e+00,0.000000000000000000e+00,-4.132080078125000000e-01,2.348632812500000000e-01,6.433715820312500000e-01,6.000976562500000000e-01
1.000000000000000000e+00,4.000000000000000000e+00,1.000000000000000000e+00,8.000000000000000000e+00,8.000000000000000000e+00,2.600000000000000000e+01,2.000000000000000000e+01,5.000000000000000000e+00,-4.132080078125000000e-01,2.348632812500000000e-01,6.433715820312500000e-01,6.000976562500000000e-01
-1.000000000000000000e+00,-8.000000000000000000e+00,-6.000000000000000000e+00,-1.200000000000000000e+01,-1.000000000000000000e+01,-7.000000000000000000e+00,-4.000000000000000000e+00,-3.000000000000000000e+00,-4.132080078125000000e-01,2.348632812500000000e-01,6.433715820312500000e-01,6.000976562500000000e-01
-1.400000000000000000e+01,-2.000000000000000000e+00,6.000000000000000000e+00,-3.000000000000000000e+00,1.000000000000000000e+00,1.800000000000000000e+01,-3.000000000000000000e+00,-4.000000000000000000e+00,-4.132080078125000000e-01,2.348632812500000000e-01,6.433715820312500000e-01,6.000976562500000000e-01
7.000000000000000000e+00,-1.000000000000000000e+00,6.000000000000000000e+00,3.000000000000000000e+00,-1.000000000000000000e+00,-3.000000000000000000e+00,-7.000000000000000000e+00,1.000000000000000000e+00,-4.135742187500000000e-01,2.360839843750000000e-01,6.425781250000000000e-01,6.002197265625000000e-01
6.000000000000000000e+00,0.000000000000000000e+00,2.000000000000000000e+00,2.000000000000000000e+00,2.000000000000000000e+00,6.000000000000000000e+00,-1.000000000000000000e+00,1.000000000000000000e+00,-4.135742187500000000e-01,2.360839843750000000e-01,6.425781250000000000e-01,6.002197265625000000e-01
-1.000000000000000000e+00,-1.000000000000000000e+00,-5.000000000000000000e+00,-2.000000000000000000e+00,-4.000000000000000000e+00,-4.000000000000000000e+00,-1.000000000000000000e+00,-3.000000000000000000e+00,-4.135742187500000000e-01,2.360839843750000000e-01,6.425781250000000000e-01,6.002197265625000000e-01
-3.000000000000000000e+00,-6.000000000000000000e+00,-2.000000000000000000e+00,-6.000000000000000000e+00,3.000000000000000000e+00,-2.000000000000000000e+00,-1.000000000000000000e+01,-3.000000000000000000e+00,-4.135742187500000000e-01,2.360839843750000000e-01,6.425781250000000000e-01,6.002197265625000000e-01
-7.000000000000000000e+00,-3.000000000000000000e+00,-2.000000000000000000e+00,-1.000000000000000000e+00,0.000000000000000000e+00,6.000000000000000000e+00,2.000000000000000000e+00,-1.000000000000000000e+00,-4.138183593750000000e-01,2.377319335937500000e-01,6.409912109375000000e-01,6.010742187500000000e-01
6.000000000000000000e+00,-4.000000000000000000e+00,-1.200000000000000000e+01,-7.000000000000000000e+00,-1.200000000000000000e+01,-2.900000000000000000e+01,-4.000000000000000000e+01,-5.000000000000000000e+00,-4.138183593750000000e-01,2.377319335937500000e-01,6.409912109375000000e-01,6.010742187500000000e-01
0.000000000000000000e+00,-1.000000000000000000e+00,7.000000000000000000e+00,0.000000000000000000e+00,3.000000000000000000e+00,1.800000000000000000e+01,8.000000000000000000e+00,2.000000000000000000e+00,-4.138183593750000000e-01,2.377319335937500000e-01,6.409912109375000000e-01,6.010742187500000000e-01
3.000000000000000000e+00,0.000000000000000000e+00,-7.000000000000000000e+00,-1.000000000000000000e+00,0.000000000000000000e+00,-4.000000000000000000e+00,4.000000000000000000e+00,3.000000000000000000e+00,-4.138183593750000000e-01,2.377319335937500000e-01,6.409912109375000000e-01,6.010742187500000000e-01
-4.000000000000000000e+00,-7.000000000000000000e+00,0.000000000000000000e+00,-7.000000000000000000e+00,-1.000000000000000000e+00,1.000000000000000000e+00,-4.000000000000000000e+00,-5.000000000000000000e+00,-4.131469726562500000e-01,2.402954101562500000e-01,6.389770507812500000e-01,6.026611328125000000e-01
-1.000000000000000000e+00,-1.000000000000000000e+00,-1.000000000000000000e+00,-1.000000000000000000e+00,-3.000000000000000000e+00,-6.000000000000000000e+00,5.000000000000000000e+00,1.000000000000000000e+00,-4.131469726562500000e-01,2.402954101562500000e-01,6.389770507812500000e-01,6.026611328125000000e-01
2.000000000000000000e+00,-5.000000000000000000e+00,-6.000000000000000000e+00,4.000000000000000000e+00,0.000000000000000000e+00,-2.000000000000000000e+00,-4.000000000000000000e+00,-2.000000000000000000e+00,-4.131469726562500000e-01,2.402954101562500000e-01,6.389770507812500000e-01,6.026611328125000000e-01
-1.000000000000000000e+00,-1.000000000000000000e+00,0.000000000000000000e+00,-6.000000000000000000e+00,-2.000000000000000000e+00,-3.000000000000000000e+00,3.000000000000000000e+00,-2.000000000000000000e+00,-4.131469726562500000e-01,2.402954101562500000e-01,6.389770507812500000e-01,6.026611328125000000e-01
2.000000000000000000e+00,3.000000000000000000e+00,-1.000000000000000000e+00,0.000000000000000000e+00,0.000000000000000000e+00,5.000000000000000000e+00,3.000000000000000000e+00,1.000000000000000000e+00,-4.122924804687500000e-01,2.433471679687500000e-01,6.375122070312500000e-01,6.035766601562500000e-01
-5.000000000000000000e+00,2.000000000000000000e+00,4.000000000000000000e+00,-8.000000000000000000e+00,-2.000000000000000000e+00,-2.000000000000000000e+00,4.000000000000000000e+00,-3.000000000000000000e+00,-4.122924804687500000e-01,2.433471679687500000e-01,6.375122070312500000e-01,6.035766601562500000e-01
-5.000000000000000000e+00,1.000000000000000000e+00,-5.000000000000000000e+00,-5.000000000000000000e+00,-5.000000000000000000e+00,-3.000000000000000000e+00,-6.000000000000000000e+00,-3.000000000000000000e+00,-4.122924804687500000e-01,2.433471679687500000e-01,6.375122070312500000e-01,6.035766601562500000e-01
0.000000000000000000e+00,-4.000000000000000000e+00,0.000000000000000000e+00,1.000000000000000000e+00,0.000000000000000000e+00,0.000000000000000000e+00,1.100000000000000000e+01,2.000000000000000000e+00,-4.122924804687500000e-01,2.433471679687500000e-01,6.375122070312500000e-01,6.035766601562500000e-01
2.000000000000000000e+00,0.000000000000000000e+00,0.000000000000000000e+00,0.000000000000000000e+00,-2.000000000000000000e+00,4.000000000000000000e+00,-3.000000000000000000e+00,2.000000000000000000e+00,-4.120483398437500000e-01,2.454833984375000000e-01,6.369628906250000000e-01,6.034545898437500000e-01
0.000000000000000000e+00,1.000000000000000000e+00,6.000000000000000000e+00,-9.000000000000000000e+00,-7.000000000000000000e+00,-2.700000000000000000e+01,-2.100000000000000000e+01,-4.000000000000000000e+00,-4.120483398437500000e-01,2.454833984375000000e-01,6.369628906250000000e-01,6.034545898437500000e-01
-2.000000000000000000e+00,0.000000000000000000e+00,1.000000000000000000e+01,9.000000000000000000e+00,8.000000000000000000e+00,1.500000000000000000e+01,1.300000000000000000e+01,4.000000000000000000e+00,-4.120483398437500000e-01,2.454833984375000000e-01,6.369628906250000000e-01,6.034545898437500000e-01
-2.000000000000000000e+00,-1.000000000000000000e+01,-3.000000000000000000e+01,-2.100000000000000000e+01,-8.000000000000000000e+00,0.000000000000000000e+00,8.000000000000000000e+00,-2.000000000000000000e+00,-4.120483398437500000e-01,2.454833984375000000e-01,6.369628906250000000e-01,6.034545898437500000e-01
1.000000000000000000e+00,7.000000000000000000e+00,1.300000000000000000e+01,-3.000000000000000000e+00,0.000000000000000000e+00,-4.000000000000000000e+00,-2.900000000000000000e+01,-3.000000000000000000e+00,-4.123535156250000000e-01,2.456665039062500000e-01,6.372070312500000000e-01,6.029663085937500000e-01
-4.000000000000000000e+00,-3.000000000000000000e+00,-4.000000000000000000e+00,2.000000000000000000e+00,2.000000000000000000e+00,-6.000000000000000000e+00,-1.800000000000000000e+01,-2.000000000000000000e+00,-4.123535156250000000e-01,2.456665039062500000e-01,6.372070312500000000e-01,6.029663085937500000e-01
-3.000000000000000000e+00,-2.000000000000000000e+00,8.000000000000000000e+00,-3.000000000000000000e+00,0.000000000000000000e+00,6.000000000000000000e+00,-4.000000000000000000e+00,-2.000000000000000000e+00,-4.123535156250000000e-01,2.456665039062500000e-01,6.372070312500000000e-01,6.029663085937500000e-01
3.000000000000000000e+00,1.000000000000000000e+00,2.000000000000000000e+00,-3.000000000000000000e+00,-3.000000000000000000e+00,-2.000000000000000000e+00,1.400000000000000000e+01,0.000000000000000000e+00,-4.123535156250000000e-01,2.456665039062500000e-01,6.372070312500000000e-01,6.029663085937500000e-01
-1.000000000000000000e+00,7.000000000000000000e+00,1.600000000000000000e+01,-2.000000000000000000e+00,-3.000000000000000000e+00,-1.800000000000000000e+01,-4.000000000000000000e+00,0.000000000000000000e+00,-4.125976562500000000e-01,2.442626953125000000e-01,6.382446289062500000e-01,6.022338867187500000e-01
-4.000000000000000000e+00,-7.000000000000000000e+00,-1.800000000000000000e+01,2.000000000000000000e+00,0.000000000000000000e+00,1.000000000000000000e+00,3.000000000000000000e+00,0.000000000000000000e+00,-4.125976562500000000e-01,2.442626953125000000e-01,6.382446289062500000e-01,6.022338867187500000e-01
-3.000000000000000000e+00,1.000000000000000000e+00,7.000000000000000000e+00,1.000000000000000000e+00,1.000000000000000000e+00,2.000000000000000000e+00,-8.000000000000000000e+00,1.000000000000000000e+00,-4.125976562500000000e-01,2.442626953125000000e-01,6.382446289062500000e-01,6.022338867187500000e-01
9.000000000000000000e+00,6.000000000000000000e+00,0.000000000000000000e+00,8.000000000000000000e+00,2.000000000000000000e+00,1.600000000000000000e+01,9.000000000000000000e+00,3.000000000000000000e+00,-4.125976562500000000e-01,2.442626953125000000e-01,6.382446289062500000e-01,6.022338867187500000e-01
-4.000000000000000000e+00,-9.000000000000000000e+00,3.000000000000000000e+00,-6.000000000000000000e+00,-6.000000000000000000e+00,-7.000000000000000000e+00,-8.000000000000000000e+00,-5.000000000000000000e+00,-4.135742187500000000e-01,2.424926757812500000e-01,6.389770507812500000e-01,6.015014648437500000e-01
5.000000000000000000e+00,2.000000000000000000e+00,0.000000000000000000e+00,1.100000000000000000e+01,2.000000000000000000e+00,-2.000000000000000000e+00,1.400000000000000000e+01,3.000000000000000000e+00,-4.135742187500000000e-01,2.424926757812500000e-01,6.389770507812500000e-01,6.015014648437500000e-01
-2.000000000000000000e+00,0.000000000000000000e+00,-9.000000000000000000e+00,-1.100000000000000000e+01,-4.000000000000000000e+00,-1.000000000000000000e+01,-6.000000000000000000e+00,-2.000000000000000000e+00,-4.135742187500000000e-01,2.424926757812500000e-01,6.389770507812500000e-01,6.015014648437500000e-01
-5.000000000000000000e+00,-6.000000000000000000e+00,-5.000000000000000000e+00,-2.000000000000000000e+00,-1.000000000000000000e+00,-7.000000000000000000e+00,-3.000000000000000000e+00,-3.000000000000000000e+00,-4.135742187500000000e-01,2.424926757812500000e-01,6.389770507812500000e-01,6.015014648437500000e-01
-1.000000000000000000e+00,1.000000000000000000e+01,-6.000000000000000000e+00,4.000000000000000000e+00,1.000000000000000000e+00,9.000000000000000000e+00,7.000000000000000000e+00,1.000000000000000000e+00,-4.140625000000000000e-01,2.426757812500000000e-01,6.386718750000000000e-01,6.013793945312500000e-01
-4.000000000000000000e+00,-3.000000000000000000e+00,1.000000000000000000e+00,-9.000000000000000000e+00,0.000000000000000000e+00,3.000000000000000000e+00,1.000000000000000000e+00,-2.000000000000000000e+00,-4.140625000000000000e-01,2.426757812500000000e-01,6.386718750000000000e-01,6.013793945312500000e-01
1.000000000000000000e+00,1.000000000000000000e+00,-4.000000000000000000e+00,4.000000000000000000e+00,-4.000000000000000000e+00,-3.000000000000000000e+00,2.000000000000000000e+00,1.000000000000000000e+00,-4.140625000000000000e-01,2.426757812500000000e-01,6.386718750000000000e-01,6.013793945312500000e-01
-6.000000000000000000e+00,-7.000000000000000000e+00,-3.000000000000000000e+00,0.000000000000000000e+00,4.000000000000000000e+00,-1.000000000000000000e+00,-6.000000000000000000e+00,-2.000000000000000000e+00,-4.140625000000000000e-01,2.426757812500000000e-01,6.386718750000000000e-01,6.013793945312500000e-01
0.000000000000000000e+00,-4.000000000000000000e+00,-6.000000000000000000e+00,-1.100000000000000000e+01,-3.000000000000000000e+00,2.000000000000000000e+00,8.000000000000000000e+00,-2.000000000000000000e+00,-4.125976562500000000e-01,2.446899414062500000e-01,6.378173828125000000e-01,6.024780273437500000e-01
-2.000000000000000000e+00,-1.000000000000000000e+00,-3.000000000000000000e+00,2.000000000000000000e+00,0.000000000000000000e+00,7.000000000000000000e+00,8.000000000000000000e+00,2.000000000000000000e+00,-4.125976562500000000e-01,2.446899414062500000e-01,6.378173828125000000e-01,6.024780273437500000e-01
-2.000000000000000000e+00,-4.000000000000000000e+00,-5.000000000000000000e+00,-4.000000000000000000e+00,-4.000000000000000000e+00,-1.200000000000000000e+01,-4.000000000000000000e+00,-2.000000000000000000e+00,-4.125976562500000000e-01,2.446899414062500000e-01,6.378173828125000000e-01,6.024780273437500000e-01
5.000000000000000000e+00,6.000000000000000000e+00,1.000000000000000000e+01,6.000000000000000000e+00,0.000000000000000000e+00,-3.000000000000000000e+00,-1.900000000000000000e+01,-3.000000000000000000e+00,-4.125976562500000000e-01,2.446899414062500000e-01,6.378173828125000000e-01,6.024780273437500000e-01
-4.000000000000000000e+00,-9.000000000000000000e+00,-9.000000000000000000e+00,-4.000000000000000000e+00,-4.000000000000000000e+00,-4.000000000000000000e+00,2.200000000000000000e+01,1.000000000000000000e+00,-4.111328125000000000e-01,2.465820312500000000e-01,6.375122070312500000e-01,6.030883789062500000e-01
0.000000000000000000e+00,4.000000000000000000e+00,4.000000000000000000e+00,2.000000000000000000e+00,1.000000000000000000e+00,0.000000000000000000e+00,-3.000000000000000000e+00,0.000000000000000000e+00,-4.111328125000000000e-01,2.465820312500000000e-01,6.375122070312500000e-01,6.030883789062500000e-01
3.000000000000000000e+00,-2.000000000000000000e+00,3.000000000000000000e+00,5.000000000000000000e+00,3.000000000000000000e+00,2.400000000000000000e+01,1.500000000000000000e+01,4.000000000000000000e+00,-4.111328125000000000e-01,2.465820312500000000e-01,6.375122070312500000e-01,6.030883789062500000e-01
0.000000000000000000e+00,4.000000000000000000e+00,-1.000000000000000000e+00,-4.000000000000000000e+00,-2.000000000000000000e+00,1.000000000000000000e+00,1.200000000000000000e+01,3.000000000000000000e+00,-4.111328125000000000e-01,2.465820312500000000e-01,6.375122070312500000e-01,6.030883789062500000e-01
-1.000000000000000000e+00,-3.000000000000000000e+00,-1.300000000000000000e+01,1.000000000000000000e+00,-3.000000000000000000e+00,-1.100000000000000000e+01,-2.400000000000000000e+01,-2.000000000000000000e+00,-4.108886718750000000e-01,2.465820312500000000e-01,6.378173828125000000e-01,6.028442382812500000e-01
-2.000000000000000000e+00,0.000000000000000000e+00,6.000000000000000000e+00,4.000000000000000000e+00,5.000000000000000000e+00,1.700000000000000000e+01,1.200000000000000000e+01,1.000000000000000000e+00,-4.108886718750000000e-01,2.465820312500000000e-01,6.378173828125000000e-01,6.028442382812500000e-01
-9.000000000000000000e+00,0.000000000000000000e+00,0.000000000000000000e+00,0.000000000000000000e+00,-1.000000000000000000e+00,-1.100000000000000000e+01,0.000000000000000000e+00,-5.000000000000000000e+00,-4.108886718750000000e-01,2.465820312500000000e-01,6.378173828125000000e-01,6.028442382812500000e-01
-1.000000000000000000e+00,-1.000000000000000000e+01,-5.000000000000000000e+00,-6.000000000000000000e+00,-6.000000000000000000e+00,-4.000000000000000000e+00,-1.000000000000000000e+00,1.000000000000000000e+00,-4.108886718750000000e-01,2.465820312500000000e-01,6.378173828125000000e-01,6.028442382812500000e-01
1.100000000000000000e+01,9.000000000000000000e+00,-1.000000000000000000e+00,-3.000000000000000000e+00,2.000000000000000000e+00,9.000000000000000000e+00,1.000000000000000000e+00,0.000000000000000000e+00,-4.116210937500000000e-01,2.457275390625000000e-01,6.380615234375000000e-01,6.024780273437500000e-01
1.000000000000000000e+00,-3.000000000000000000e+00,-1.000000000000000000e+01,-2.000000000000000000e+00,-5.000000000000000000e+00,-6.000000000000000000e+00,-7.000000000000000000e+00,-1.000000000000000000e+00,-4.116210937500000000e-01,2.457275390625000000e-01,6.380615234375000000e-01,6.024780273437500000e-01
-9.000000000000000000e+00,-2.000000000000000000e+00,4.000000000000000000e+00,-1.000000000000000000e+00,2.000000000000000000e+00,-5.000000000000000000e+00,-8.000000000000000000e+00,-2.000000000000000000e+00,-4.116210937500000000e-01,2.457275390625000000e-01,6.380615234375000000e-01,6.024780273437500000e-01
-2.000000000000000000e+00,6.000000000000000000e+00,-3.000000000000000000e+00,-1.000000000000000000e+00,0.000000000000000000e+00,-1.000000000000000000e+00,1.000000000000000000e+00,-2.000000000000000000e+00,-4.116210937500000000e-01,2.457275390625000000e-01,6.380615234375000000e-01,6.024780273437500000e-01
0.000000000000000000e+00,-1.000000000000000000e+00,-1.000000000000000000e+00,5.000000000000000000e+00,2.000000000000000000e+00,0.000000000000000000e+00,0.000000000000000000e+00,3.000000000000000000e+00,-4.118041992187500000e-01,2.454223632812500000e-01,6.385498046875000000e-01,6.019897460937500000e-01
-1.000000000000000000e+00,1.000000000000000000e+00,7.000000000000000000e+00,-5.000000000000000000e+00,-6.000000000000000000e+00,-2.000000000000000000e+00,-3.000000000000000000e+00,-3.000000000000000000e+00,-4.118041992187500000e-01,2.454223632812500000e-01,6.385498046875000000e-01,6.019897460937500000e-01
1.000000000000000000e+00,-2.000000000000000000e+00,-4.000000000000000000e+00,-1.000000000000000000e+00,0.000000000000000000e+00,-3.000000000000000000e+00,3.000000000000000000e+00,-1.000000000000000000e+00,-4.118041992187500000e-01,2.454223632812500000e-01,6.385498046875000000e-01,6.019897460937500000e-01
-7.000000000000000000e+00,-7.000000000000000000e+00,-5.000000000000000000e+00,0.000000000000000000e+00,-1.000000000000000000e+00,-8.000000000000000000e+00,-6.000000000000000000e+00,-3.000000000000000000e+00,-4.118041992187500000e-01,2.454223632812500000e-01,6.385498046875000000e-01,6.019897460937500000e-01
-3.000000000000000000e+00,-1.000000000000000000e+00,2.000000000000000000e+00,0.000000000000000000e+00,1.000000000000000000e+00,2.000000000000000000e+00,2.000000000000000000e+00,-3.000000000000000000e+00,-4.114990234375000000e-01,2.459106445312500000e-01,6.395874023437500000e-01,6.008300781250000000e-01
2.000000000000000000e+00,1.000000000000000000e+00,4.000000000000000000e+00,0.000000000000000000e+00,0.000000000000000000e+00,-1.000000000000000000e+00,1.000000000000000000e+00,1.000000000000000000e+00,-4.114990234375000000e-01,2.459106445312500000e-01,6.395874023437500000e-01,6.008300781250000000e-01
4.000000000000000000e+00,2.000000000000000000e+00,-2.000000000000000000e+00,2.000000000000000000e+00,2.000000000000000000e+00,-1.000000000000000000e+00,1.000000000000000000e+00,1.000000000000000000e+00,-4.114990234375000000e-01,2.459106445312500000e-01,6.395874023437500000e-01,6.008300781250000000e-01
-5.000000000000000000e+00,-8.000000000000000000e+00,-4.000000000000000000e+00,-5.000000000000000000e+00,-4.000000000000000000e+00,-6.000000000000000000e+00,-1.000000000000000000e+01,-8.000000000000000000e+00,-4.114990234375000000e-01,2.459106445312500000e-01,6.395874023437500000e-01,6.008300781250000000e-01
0.000000000000000000e+00,1.000000000000000000e+00,1.000000000000000000e+00,-4.000000000000000000e+00,-1.000000000000000000e+00,5.000000000000000000e+00,1.000000000000000000e+00,1.000000000000000000e+00,-4.110717773437500000e-01,2.467651367187500000e-01,6.410522460937500000e-01,5.992431640625000000e-01
-3.000000000000000000e+00,-3.000000000000000000e+00,-1.000000000000000000e+00,5.000000000000000000e+00,-1.000000000000000000e+00,-1.000000000000000000e+00,-2.000000000000000000e+00,-2.000000000000000000e+00,-4.110717773437500000e-01,2.467651367187500000e-01,6.410522460937500000e-01,5.992431640625000000e-01
4.000000000000000000e+00,0.000000000000000000e+00,0.000000000000000000e+00,-1.100000000000000000e+01,-3.000000000000000000e+00,-5.000000000000000000e+00,-5.000000000000000000e+00,1.000000000000000000e+00,-4.110717773437500000e-01,2.467651367187500000e-01,6.410522460937500000e-01,5.992431640625000000e-01
2.000000000000000000e+00,4.000000000000000000e+00,0.000000000000000000e+00,2.000000000000000000e+00,0.000000000000000000e+00,1.000000000000000000e+00,2.000000000000000000e+00,1.000000000000000000e+00,-4.110717773437500000e-01,2.467651367187500000e-01,6.410522460937500000e-01,5.992431640625000000e-01
-7.000000000000000000e+00,-5.000000000000000000e+00,-6.000000000000000000e+00,-1.200000000000000000e+01,-7.000000000000000000e+00,-1.000000000000000000e+00,-1.000000000000000000e+00,-8.000000000000000000e+00,-4.116821289062500000e-01,2.463989257812500000e-01,6.420898437500000000e-01,5.979003906250000000e-01
-3.000000000000000000e+00,1.000000000000000000e+00,-2.000000000000000000e+00,1.900000000000000000e+01,0.000000000000000000e+00,-6.000000000000000000e+00,-2.000000000000000000e+00,0.000000000000000000e+00,-4.116821289062500000e-01,2.463989257812500000e-01,6.420898437500000000e-01,5.979003906250000000e-01
-2.000000000000000000e+00,-7.000000000000000000e+00,-9.000000000000000000e+00,-1.300000000000000000e+01,-5.000000000000000000e+00,-1.400000000000000000e+01,-1.800000000000000000e+01,-3.000000000000000000e+00,-4.116821289062500000e-01,2.463989257812500000e-01,6.420898437500000000e-01,5.979003906250000000e-01
2.000000000000000000e+00,6.000000000000000000e+00,1.300000000000000000e+01,7.000000000000000000e+00,-2.000000000000000000e+00,-1.000000000000000000e+01,-3.000000000000000000e+00,2.000000000000000000e+00,-4.116821289062500000e-01,2.463989257812500000e-01,6.420898437500000000e-01,5.979003906250000000e-01
-3.000000000000000000e+00,-7.000000000000000000e+00,-1.200000000000000000e+01,-3.000000000000000000e+00,8.000000000000000000e+00,2.800000000000000000e+01,-4.000000000000000000e+00,3.000000000000000000e+00,-4.119873046875000000e-01,2.460937500000000000e-01,6.425781250000000000e-01,5.972290039062500000e-01
-1.000000000000000000e+00,0.000000000000000000e+00,-1.000000000000000000e+00,-1.400000000000000000e+01,-1.000000000000000000e+00,-5.000000000000000000e+00,1.000000000000000000e+00,0.000000000000000000e+00,-4.119873046875000000e-01,2.460937500000000000e-01,6.425781250000000000e-01,5.972290039062500000e-01
5.000000000000000000e+00,5.000000000000000000e+00,1.000000000000000000e+01,1.200000000000000000e+01,-1.000000000000000000e+00,-4.000000000000000000e+00,-5.000000000000000000e+00,-4.000000000000000000e+00,-4.119873046875000000e-01,2.460937500000000000e-01,6.425781250000000000e-01,5.972290039062500000e-01
-5.000000000000000000e+00,-8.000000000000000000e+00,-1.000000000000000000e+01,-6.000000000000000000e+00,-5.000000000000000000e+00,3.000000000000000000e+00,3.000000000000000000e+00,0.000000000000000000e+00,-4.119873046875000000e-01,2.460937500000000000e-01,6.425781250000000000e-01,5.972290039062500000e-01
-4.000000000000000000e+00,0.000000000000000000e+00,1.500000000000000000e+01,9.000000000000000000e+00,-4.000000000000000000e+00,-1.100000000000000000e+01,-4.000000000000000000e+00,-4.000000000000000000e+00,-4.120483398437500000e-01,2.467041015625000000e-01,6.425781250000000000e-01,5.969848632812500000e-01
-1.800000000000000000e+01,-7.000000000000000000e+00,-1.700000000000000000e+01,-7.000000000000000000e+00,-3.000000000000000000e+00,0.000000000000000000e+00,-8.000000000000000000e+00,-4.000000000000000000e+00,-4.120483398437500000e-01,2.467041015625000000e-01,6.425781250000000000e-01,5.969848632812500000e-01
6.000000000000000000e+00,-2.000000000000000000e+00,0.000000000000000000e+00,-1.000000000000000000e+01,1.000000000000000000e+00,6.000000000000000000e+00,1.300000000000000000e+01,2.000000000000000000e+00,-4.120483398437500000e-01,2.467041015625000000e-01,6.425781250000000000e-01,5.969848632812500000e-01
3.000000000000000000e+00,4.000000000000000000e+00,-2.000000000000000000e+00,-4.000000000000000000e+00,1.000000000000000000e+00,-2.000000000000000000e+00,-1.000000000000000000e+00,-6.000000000000000000e+00,-4.120483398437500000e-01,2.467041015625000000e-01,6.425781250000000000e-01,5.969848632812500000e-01
0.000000000000000000e+00,1.000000000000000000e+00,5.000000000000000000e+00,1.000000000000000000e+00,-2.000000000000000000e+00,0.000000000000000000e+00,6.000000000000000000e+00,2.000000000000000000e+00,-4.125976562500000000e-01,2.473754882812500000e-01,6.415405273437500000e-01,5.974731445312500000e-01
-1.000000000000000000e+00,-2.000000000000000000e+00,-4.000000000000000000e+00,-1.000000000000000000e+01,-3.000000000000000000e+00,-1.000000000000000000e+00,0.000000000000000000e+00,-4.000000000000000000e+00,-4.125976562500000000e-01,2.473754882812500000e-01,6.415405273437500000e-01,5.974731445312500000e-01
-5.000000000000000000e+00,-1.000000000000000000e+00,-6.000000000000000000e+00,3.000000000000000000e+00,-2.000000000000000000e+00,-8.000000000000000000e+00,-3.000000000000000000e+00,-1.000000000000000000e+00,-4.125976562500000000e-01,2.473754882812500000e-01,6.415405273437500000e-01,5.974731445312500000e-01
1.000000000000000000e+00,3.000000000000000000e+00,9.000000000000000000e+00,2.000000000000000000e+00,5.000000000000000000e+00,1.400000000000000000e+01,1.400000000000000000e+01,6.000000000000000000e+00,-4.125976562500000000e-01,2.473754882812500000e-01,6.415405273437500000e-01,5.974731445312500000e-01
4.000000000000000000e+00,-3.000000000000000000e+00,-9.000000000000000000e+00,-1.000000000000000000e+00,-1.000000000000000000e+00,-2.000000000000000000e+00,-1.200000000000000000e+01,-2.000000000000000000e+00,-4.122314453125000000e-01,2.498168945312500000e-01,6.400756835937500000e-01,5.982666015625000000e-01
-2.000000000000000000e+00,-1.000000000000000000e+00,6.000000000000000000e+00,4.000000000000000000e+00,0.000000000000000000e+00,-4.000000000000000000e+00,-6.000000000000000000e+00,0.000000000000000000e+00,-4.122314453125000000e-01,2.498168945312500000e-01,6.400756835937500000e-01,5.982666015625000000e-01
1.000000000000000000e+00,-3.000000000000000000e+00,-1.500000000000000000e+01,-1.000000000000000000e+00,-2.000000000000000000e+00,6.000000000000000000e+00,4.000000000000000000e+00,-1.000000000000000000e+00,-4.122314453125000000e-01,2.498168945312500000e-01,6.400756835937500000e-01,5.982666015625000000e-01
1.000000000000000000e+00,0.000000000000000000e+00,5.000000000000000000e+00,9.000000000000000000e+00,2.000000000000000000e+00,-1.000000000000000000e+00,-4.000000000000000000e+00,0.000000000000000000e+00,-4.122314453125000000e-01,2.498168945312500000e-01,6.400756835937500000e-01,5.982666015625000000e-01
-8.000000000000000000e+00,-6.000000000000000000e+00,-6.000000000000000000e+00,-1.000000000000000000e+01,-2.000000000000000000e+00,-6.000000000000000000e+00,1.600000000000000000e+01,1.000000000000000000e+00,-4.120483398437500000e-01,2.521972656250000000e-01,6.393432617187500000e-01,5.981445312500000000e-01
4.000000000000000000e+00,1.000000000000000000e+00,-2.000000000000000000e+00,-3.000000000000000000e+00,-3.000000000000000000e+00,-3.000000000000000000e+00,3.000000000000000000e+00,1.000000000000000000e+00,-4.120483398437500000e-01,2.521972656250000000e-01,6.393432617187500000e-01,5.981445312500000000e-01
1.000000000000000000e+00,4.000000000000000000e+00,5.000000000000000000e+00,1.000000000000000000e+01,4.000000000000000000e+00,1.700000000000000000e+01,7.000000000000000000e+00,0.000000000000000000e+00,-4.120483398437500000e-01,2.521972656250000000e-01,6.393432617187500000e-01,5.981445312500000000e-01
-1.000000000000000000e+00,0.000000000000000000e+00,0.000000000000000000e+00,0.000000000000000000e+00,0.000000000000000000e+00,-5.000000000000000000e+00,-7.000000000000000000e+00,-3.000000000000000000e+00,-4.120483398437500000e-01,2.521972656250000000e-01,6.393432617187500000e-01,5.981445312500000000e-01
0.000000000000000000e+00,3.000000000000000000e+00,3.000000000000000000e+00,-1.000000000000000000e+00,-3.000000000000000000e+00,-3.000000000000000000e+00,3.000000000000000000e+00,-2.000000000000000000e+00,-4.137573242187500000e-01,2.525634765625000000e-01,6.398925781250000000e-01,5.962524414062500000e-01
0.000000000000000000e+00,-3.000000000000000000e+00,-1.000000000000000000e+01,-1.000000000000000000e+00,4.000000000000000000e+00,3.000000000000000000e+00,1.000000000000000000e+00,0.000000000000000000e+00,-4.137573242187500000e-01,2.525634765625000000e-01,6.398925781250000000e-01,5.962524414062500000e-01
-3.000000000000000000e+00,0.000000000000000000e+00,5.000000000000000000e+00,-2.000000000000000000e+00,-1.000000000000000000e+00,-8.000000000000000000e+00,-5.000000000000000000e+00,-2.000000000000000000e+00,-4.137573242187500000e-01,2.525634765625000000e-01,6.398925781250000000e-01,5.962524414062500000e-01
2.000000000000000000e+00,-3.000000000000000000e+00,-7.000000000000000000e+00,-2.000000000000000000e+00,-1.000000000000000000e+00,3.000000000000000000e+00,0.000000000000000000e+00,1.000000000000000000e+00,-4.137573242187500000e-01,2.525634765625000000e-01,6.398925781250000000e-01,5.962524414062500000e-01
-2.000000000000000000e+00,2.000000000000000000e+00,3.000000000000000000e+00,0.000000000000000000e+00,-1.000000000000000000e+00,0.000000000000000000e+00,-4.000000000000000000e+00,-2.000000000000000000e+00,-4.163818359375000000e-01,2.518920898437500000e-01,6.401367187500000000e-01,5.944213867187500000e-01
4.000000000000000000e+00,5.000000000000000000e+00,1.000000000000000000e+01,1.700000000000000000e+01,1.000000000000000000e+00,-1.000000000000000000e+00,-2.000000000000000000e+00,1.000000000000000000e+00,-4.163818359375000000e-01,2.518920898437500000e-01,6.401367187500000000e-01,5.944213867187500000e-01
-1.000000000000000000e+01,-1.000000000000000000e+01,-1.200000000000000000e+01,-1.300000000000000000e+01,-4.000000000000000000e+00,-4.000000000000000000e+00,-6.000000000000000000e+00,-4.000000000000000000e+00,-4.163818359375000000e-01,2.518920898437500000e-01,6.401367187500000000e-01,5.944213867187500000e-01
-1.000000000000000000e+00,3.000000000000000000e+00,8.000000000000000000e+00,-8.000000000000000000e+00,-1.000000000000000000e+00,-3.000000000000000000e+00,-3.000000000000000000e+00,-2.000000000000000000e+00,-4.163818359375000000e-01,2.518920898437500000e-01,6.401367187500000000e-01,5.944213867187500000e-01
-1.000000000000000000e+00,-4.000000000000000000e+00,-1.700000000000000000e+01,3.000000000000000000e+00,-1.000000000000000000e+00,-2.000000000000000000e+00,-2.000000000000000000e+00,1.000000000000000000e+00,-4.188842773437500000e-01,2.513427734375000000e-01,6.395263671875000000e-01,5.935668945312500000e-01
1.000000000000000000e+00,5.000000000000000000e+00,1.500000000000000000e+01,-1.100000000000000000e+01,-1.000000000000000000e+00,1.000000000000000000e+00,1.500000000000000000e+01,0.000000000000000000e+00,-4.188842773437500000e-01,2.513427734375000000e-01,6.395263671875000000e-01,5.935668945312500000e-01
-1.000000000000000000e+00,-4.000000000000000000e+00,-2.000000000000000000e+00,1.100000000000000000e+01,1.000000000000000000e+00,1.000000000000000000e+00,1.500000000000000000e+01,2.000000000000000000e+00,-4.188842773437500000e-01,2.513427734375000000e-01,6.395263671875000000e-01,5.935668945312500000e-01
-4.000000000000000000e+00,-5.000000000000000000e+00,-5.000000000000000000e+00,-9.000000000000000000e+00,-3.000000000000000000e+00,1.400000000000000000e+01,-5.000000000000000000e+00,-3.000000000000000000e+00,-4.188842773437500000e-01,2.513427734375000000e-01,6.395263671875000000e-01,5.935668945312500000e-01
4.000000000000000000e+00,1.000000000000000000e+00,2.000000000000000000e+00,-4.000000000000000000e+00,-2.000000000000000000e+00,-5.000000000000000000e+00,-1.000000000000000000e+00,0.000000000000000000e+00,-4.193725585937500000e-01,2.526245117187500000e-01,6.384277343750000000e-01,5.938720703125000000e-01
0.000000000000000000e+00,-4.000000000000000000e+00,-1.100000000000000000e+01,-2.000000000000000000e+00,-2.000000000000000000e+00,-2.000000000000000000e+00,0.000000000000000000e+00,-3.000000000000000000e+00,-4.193725585937500000e-01,2.526245117187500000e-01,6.384277343750000000e-01,5.938720703125000000e-01
-1.000000000000000000e+00,-1.000000000000000000e+00,7.000000000000000000e+00,1.000000000000000000e+00,-1.000000000000000000e+00,-3.000000000000000000e+00,5.000000000000000000e+00,-2.000000000000000000e+00,-4.193725585937500000e-01,2.526245117187500000e-01,6.384277343750000000e-01,5.938720703125000000e-01
2.000000000000000000e+00,3.000000000000000000e+00,-1.000000000000000000e+00,1.000000000000000000e+00,1.000000000000000000e+00,2.000000000000000000e+00,-8.000000000000000000e+00,6.000000000000000000e+00,-4.193725585937500000e-01,2.526245117187500000e-01,6.384277343750000000e-01,5.938720703125000000e-01
-4.000000000000000000e+00,-1.000000000000000000e+00,4.000000000000000000e+00,4.000000000000000000e+00,4.000000000000000000e+00,2.000000000000000000e+00,-2.700000000000000000e+01,-6.000000000000000000e+00,-4.184570312500000000e-01,2.539062500000000000e-01,6.376342773437500000e-01,5.947875976562500000e-01
-6.000000000000000000e+00,2.000000000000000000e+00,-3.000000000000000000e+00,-3.000000000000000000e+00,-2.000000000000000000e+00,1.100000000000000000e+01,6.000000000000000000e+00,-1.000000000000000000e+00,-4.184570312500000000e-01,2.539062500000000000e-01,6.376342773437500000e-01,5.947875976562500000e-01
3.000000000000000000e+00,-3.000000000000000000e+00,-1.000000000000000000e+00,-5.000000000000000000e+00,-2.000000000000000000e+00,-9.000000000000000000e+00,-1.100000000000000000e+01,-4.000000000000000000e+00,-4.184570312500000000e-01,2.539062500000000000e-01,6.376342773437500000e-01,5.947875976562500000e-01
4.000000000000000000e+00,0.000000000000000000e+00,-9.000000000000000000e+00,-4.000000000000000000e+00,-3.000000000000000000e+00,-4.000000000000000000e+00,0.000000000000000000e+00,0.000000000000000000e+00,-4.184570312500000000e-01,2.539062500000000000e-01,6.376342773437500000e-01,5.947875976562500000e-01
-4.000000000000000000e+00,-1.000000000000000000e+00,-2.000000000000000000e+00,3.000000000000000000e+00,-2.000000000000000000e+00,-2.000000000000000000e+00,8.000000000000000000e+00,1.000000000000000000e+00,-4.182739257812500000e-01,2.538452148437500000e-01,6.377563476562500000e-01,5.948486328125000000e-01
-1.000000000000000000e+00,-4.000000000000000000e+00,-8.000000000000000000e+00,-8.000000000000000000e+00,-3.000000000000000000e+00,-2.000000000000000000e+00,-9.000000000000000000e+00,-1.000000000000000000e+00,-4.182739257812500000e-01,2.538452148437500000e-01,6.377563476562500000e-01,5.948486328125000000e-01
-2.000000000000000000e+00,3.000000000000000000e+00,-6.000000000000000000e+00,0.000000000000000000e+00,-2.000000000000000000e+00,-3.000000000000000000e+00,-8.000000000000000000e+00,1.000000000000000000e+00,-4.182739257812500000e-01,2.538452148437500000e-01,6.377563476562500000e-01,5.948486328125000000e-01
-7.000000000000000000e+00,-4.000000000000000000e+00,4.000000000000000000e+00,1.000000000000000000e+00,-4.000000000000000000e+00,-9.000000000000000000e+00,1.000000000000000000e+00,-2.000000000000000000e+00,-4.182739257812500000e-01,2.538452148437500000e-01,6.377563476562500000e-01,5.948486328125000000e-01
-1.000000000000000000e+00,-2.000000000000000000e+00,-3.000000000000000000e+00,-1.400000000000000000e+01,-3.000000000000000000e+00,-1.000000000000000000e+00,5.000000000000000000e+00,-2.000000000000000000e+00,-4.190673828125000000e-01,2.519531250000000000e-01,6.384887695312500000e-01,5.942382812500000000e-01
0.000000000000000000e+00,-1.000000000000000000e+00,-1.100000000000000000e+01,7.000000000000000000e+00,2.000000000000000000e+00,-1.000000000000000000e+00,-2.000000000000000000e+00,-1.000000000000000000e+00,-4.190673828125000000e-01,2.519531250000000000e-01,6.384887695312500000e-01,5.942382812500000000e-01
-4.000000000000000000e+00,-2.000000000000000000e+00,1.000000000000000000e+00,6.000000000000000000e+00,2.000000000000000000e+00,0.000000000000000000e+00,0.000000000000000000e+00,-2.000000000000000000e+00,-4.190673828125000000e-01,2.519531250000000000e-01,6.384887695312500000e-01,5.942382812500000000e-01
1.000000000000000000e+00,1.000000000000000000e+00,9.000000000000000000e+00,1.200000000000000000e+01,1.000000000000000000e+00,-1.000000000000000000e+00,5.000000000000000000e+00,0.000000000000000000e+00,-4.190673828125000000e-01,2.519531250000000000e-01,6.384887695312500000e-01,5.942382812500000000e-01
2.000000000000000000e+00,0.000000000000000000e+00,2.000000000000000000e+00,4.000000000000000000e+00,0.000000000000000000e+00,-2.000000000000000000e+00,0.000000000000000000e+00,0.000000000000000000e+00,-4.204101562500000000e-01,2.499389648437500000e-01,6.400756835937500000e-01,5.925292968750000000e-01
0.000000000000000000e+00,-3.000000000000000000e+00,7.000000000000000000e+00,-3.000000000000000000e+00,-3.000000000000000000e+00,2.000000000000000000e+00,-3.000000000000000000e+00,-1.000000000000000000e+00,-4.204101562500000000e-01,2.499389648437500000e-01,6.400756835937500000e-01,5.925292968750000000e-01
1.000000000000000000e+00,3.000000000000000000e+00,4.000000000000000000e+00,-3.000000000000000000e+00,-3.000000000000000000e+00,0.000000000000000000e+00,-5.000000000000000000e+00,0.000000000000000000e+00,-4.204101562500000000e-01,2.499389648437500000e-01,6.400756835937500000e-01,5.925292968750000000e-01
-5.000000000000000000e+00,-5.000000000000000000e+00,-1.000000000000000000e+00,-2.000000000000000000e+00,-1.000000000000000000e+00,-6.000000000000000000e+00,-5.000000000000000000e+00,-3.000000000000000000e+00,-4.204101562500000000e-01,2.499389648437500000e-01,6.400756835937500000e-01,5.925292968750000000e-01
1.000000000000000000e+00,-1.000000000000000000e+00,-5.000000000000000000e+00,1.000000000000000000e+00,-2.000000000000000000e+00,6.000000000000000000e+00,1.800000000000000000e+01,1.000000000000000000e+00,-4.212036132812500000e-01,2.485961914062500000e-01,6.411132812500000000e-01,5.913696289062500000e-01
0.000000000000000000e+00,-1.000000000000000000e+00,7.000000000000000000e+00,-4.000000000000000000e+00,-3.000000000000000000e+00,-7.000000000000000000e+00,-1.800000000000000000e+01,-1.000000000000000000e+00,-4.212036132812500000e-01,2.485961914062500000e-01,6.411132812500000000e-01,5.913696289062500000e-01
0.000000000000000000e+00,-1.000000000000000000e+00,-3.000000000000000000e+00,7.000000000000000000e+00,5.000000000000000000e+00,0.000000000000000000e+00,-8.000000000000000000e+00,-2.000000000000000000e+00,-4.212036132812500000e-01,2.485961914062500000e-01,6.411132812500000000e-01,5.913696289062500000e-01
-5.000000000000000000e+00,-2.000000000000000000e+00,-5.000000000000000000e+00,-8.000000000000000000e+00,-2.000000000000000000e+00,7.000000000000000000e+00,1.200000000000000000e+01,-2.000000000000000000e+00,-4.212036132812500000e-01,2.485961914062500000e-01,6.411132812500000000e-01,5.913696289062500000e-01
0.000000000000000000e+00,4.000000000000000000e+00,3.000000000000000000e+00,9.000000000000000000e+00,3.000000000000000000e+00,2.000000000000000000e+00,8.000000000000000000e+00,1.000000000000000000e+00,-4.203491210937500000e-01,2.482299804687500000e-01,6.412963867187500000e-01,5.919189453125000000e-01
-1.000000000000000000e+00,-7.000000000000000000e+00,-8.000000000000000000e+00,-8.000000000000000000e+00,-2.000000000000000000e+00,-3.000000000000000000e+00,5.000000000000000000e+00,-1.000000000000000000e+00,-4.203491210937500000e-01,2.482299804687500000e-01,6.412963867187500000e-01,5.919189453125000000e-01
-3.000000000000000000e+00,-1.000000000000000000e+00,3.000000000000000000e+00,-2.000000000000000000e+00,1.000000000000000000e+00,-9.000000000000000000e+00,-1.700000000000000000e+01,-2.000000000000000000e+00,-4.203491210937500000e-01,2.482299804687500000e-01,6.412963867187500000e-01,5.919189453125000000e-01
-1.000000000000000000e+00,2.000000000000000000e+00,0.000000000000000000e+00,0.000000000000000000e+00,0.000000000000000000e+00,1.000000000000000000e+00,0.000000000000000000e+00,-1.000000000000000000e+00,-4.203491210937500000e-01,2.482299804687500000e-01,6.412963867187500000e-01,5.919189453125000000e-01
0.000000000000000000e+00,-3.000000000000000000e+00,-3.000000000000000000e+00,-1.000000000000000000e+00,-2.000000000000000000e+00,1.000000000000000000e+00,-1.400000000000000000e+01,0.000000000000000000e+00,-4.184570312500000000e-01,2.484130859375000000e-01,6.415405273437500000e-01,5.928955078125000000e-01
0.000000000000000000e+00,-1.000000000000000000e+00,3.000000000000000000e+00,5.000000000000000000e+00,0.000000000000000000e+00,-1.000000000000000000e+01,2.000000000000000000e+00,0.000000000000000000e+00,-4.184570312500000000e-01,2.484130859375000000e-01,6.415405273437500000e-01,5.928955078125000000e-01
-1.000000000000000000e+00,-4.000000000000000000e+00,-3.000000000000000000e+00,-1.000000000000000000e+01,-7.000000000000000000e+00,9.000000000000000000e+00,8.000000000000000000e+00,1.000000000000000000e+00,-4.184570312500000000e-01,2.484130859375000000e-01,6.415405273437500000e-01,5.928955078125000000e-01
-1.000000000000000000e+00,0.000000000000000000e+00,-4.000000000000000000e+00,2.000000000000000000e+00,3.000000000000000000e+00,-1.200000000000000000e+01,-1.100000000000000000e+01,-3.000000000000000000e+00,-4.184570312500000000e-01,2.484130859375000000e-01,6.415405273437500000e-01,5.928955078125000000e-01
-2.000000000000000000e+00,-3.000000000000000000e+00,5.000000000000000000e+00,1.000000000000000000e+00,0.000000000000000000e+00,1.100000000000000000e+01,1.200000000000000000e+01,0.000000000000000000e+00,-4.172973632812500000e-01,2.486572265625000000e-01,6.422119140625000000e-01,5.928955078125000000e-01
-1.000000000000000000e+00,1.000000000000000000e+00,1.000000000000000000e+00,-1.000000000000000000e+00,0.000000000000000000e+00,-7.000000000000000000e+00,-2.500000000000000000e+01,-4.000000000000000000e+00,-4.172973632812500000e-01,2.486572265625000000e-01,6.422119140625000000e-01,5.928955078125000000e-01
3.000000000000000000e+00,1.000000000000000000e+00,-1.000000000000000000e+01,4.000000000000000000e+00,0.000000000000000000e+00,4.000000000000000000e+00,1.300000000000000000e+01,3.000000000000000000e+00,-4.172973632812500000e-01,2.486572265625000000e-01,6.422119140625000000e-01,5.928955078125000000e-01
-2.000000000000000000e+00,-7.000000000000000000e+00,-1.900000000000000000e+01,-2.400000000000000000e+01,-7.000000000000000000e+00,-1.000000000000000000e+00,1.000000000000000000e+00,1.000000000000000000e+00,-4.172973632812500000e-01,2.486572265625000000e-01,6.422119140625000000e-01,5.928955078125000000e-01
-4.000000000000000000e+00,1.000000000000000000e+00,1.500000000000000000e+01,-1.000000000000000000e+00,-7.000000000000000000e+00,-1.400000000000000000e+01,-1.100000000000000000e+01,-7.000000000000000000e+00,-4.175415039062500000e-01,2.482910156250000000e-01,6.430664062500000000e-01,5.919189453125000000e-01
0.000000000000000000e+00,-2.000000000000000000e+00,-1.400000000000000000e+01,-7.000000000000000000e+00,0.000000000000000000e+00,6.000000000000000000e+00,6.000000000000000000e+00,1.000000000000000000e+00,-4.175415039062500000e-01,2.482910156250000000e-01,6.430664062500000000e-01,5.919189453125000000e-01
-3.000000000000000000e+00,-1.000000000000000000e+00,3.000000000000000000e+00,7.000000000000000000e+00,-2.000000000000000000e+00,0.000000000000000000e+00,1.000000000000000000e+00,-3.000000000000000000e+00,-4.175415039062500000e-01,2.482910156250000000e-01,6.430664062500000000e-01,5.919189453125000000e-01
0.000000000000000000e+00,3.000000000000000000e+00,9.000000000000000000e+00,1.000000000000000000e+00,-2.000000000000000000e+00,-7.000000000000000000e+00,-5.000000000000000000e+00,0.000000000000000000e+00,-4.175415039062500000e-01,2.482910156250000000e-01,6.430664062500000000e-01,5.919189453125000000e-01
-1.000000000000000000e+00,-1.000000000000000000e+00,0.000000000000000000e+00,-5.000000000000000000e+00,1.000000000000000000e+00,-2.000000000000000000e+00,-3.000000000000000000e+00,1.000000000000000000e+00,-4.181518554687500000e-01,2.478637695312500000e-01,6.436157226562500000e-01,5.911254882812500000e-01
0.000000000000000000e+00,1.000000000000000000e+00,8.000000000000000000e+00,2.000000000000000000e+00,3.000000000000000000e+00,6.000000000000000000e+00,9.000000000000000000e+00,1.000000000000000000e+00,-4.181518554687500000e-01,2.478637695312500000e-01,6.436157226562500000e-01,5.911254882812500000e-01
0.000000000000000000e+00,-2.000000000000000000e+00,-1.200000000000000000e+01,-1.800000000000000000e+01,-6.000000000000000000e+00,-7.000000000000000000e+00,-1.000000000000000000e+01,-5.000000000000000000e+00,-4.181518554687500000e-01,2.478637695312500000e-01,6.436157226562500000e-01,5.911254882812500000e-01
3.000000000000000000e+00,-5.000000000000000000e+00,7.000000000000000000e+00,1.400000000000000000e+01,-1.000000000000000000e+00,0.000000000000000000e+00,4.000000000000000000e+00,1.000000000000000000e+00,-4.181518554687500000e-01,2.478637695312500000e-01,6.436157226562500000e-01,5.911254882812500000e-01
2.000000000000000000e+00,9.000000000000000000e+00,5.000000000000000000e+00,-1.000000000000000000e+01,-4.000000000000000000e+00,-5.000000000000000000e+00,3.000000000000000000e+00,2.000000000000000000e+00,-4.177246093750000000e-01,2.484130859375000000e-01,6.437988281250000000e-01,5.910034179687500000e-01
-5.000000000000000000e+00,-5.000000000000000000e+00,-3.000000000000000000e+00,4.000000000000000000e+00,1.000000000000000000e+00,-4.000000000000000000e+00,-1.000000000000000000e+00,0.000000000000000000e+00,-4.177246093750000000e-01,2.484130859375000000e-01,6.437988281250000000e-01,5.910034179687500000e-01
-1.000000000000000000e+00,1.000000000000000000e+00,-2.000000000000000000e+00,-8.000000000000000000e+00,3.000000000000000000e+00,1.700000000000000000e+01,1.600000000000000000e+01,-3.000000000000000000e+00,-4.177246093750000000e-01,2.484130859375000000e-01,6.437988281250000000e-01,5.910034179687500000e-01
-2.000000000000000000e+00,-2.000000000000000000e+00,-1.000000000000000000e+00,3.000000000000000000e+00,-3.000000000000000000e+00,-1.700000000000000000e+01,1.000000000000000000e+01,-3.000000000000000000e+00,-4.177246093750000000e-01,2.484130859375000000e-01,6.437988281250000000e-01,5.910034179687500000e-01
1.000000000000000000e+00,-5.000000000000000000e+00,1.000000000000000000e+00,3.000000000000000000e+00,5.000000000000000000e+00,2.900000000000000000e+01,-1.700000000000000000e+01,2.000000000000000000e+00,-4.170532226562500000e-01,2.489013671875000000e-01,6.436157226562500000e-01,5.914916992187500000e-01
-2.000000000000000000e+00,2.000000000000000000e+00,-3.000000000000000000e+00,-2.000000000000000000e+00,-4.000000000000000000e+00,-7.000000000000000000e+00,2.000000000000000000e+00,-1.000000000000000000e+00,-4.170532226562500000e-01,2.489013671875000000e-01,6.436157226562500000e-01,5.914916992187500000e-01
-2.000000000000000000e+00,2.000000000000000000e+00,3.000000000000000000e+00,-3.000000000000000000e+00,-3.000000000000000000e+00,-1.000000000000000000e+01,-1.400000000000000000e+01,0.000000000000000000e+00,-4.170532226562500000e-01,2.489013671875000000e-01,6.436157226562500000e-01,5.914916992187500000e-01
-1.000000000000000000e+00,3.000000000000000000e+00,-2.000000000000000000e+00,1.000000000000000000e+00,-2.000000000000000000e+00,1.100000000000000000e+01,1.700000000000000000e+01,2.000000000000000000e+00,-4.170532226562500000e-01,2.489013671875000000e-01,6.436157226562500000e-01,5.914916992187500000e-01
4.000000000000000000e+00,1.000000000000000000e+00,1.000000000000000000e+00,0.000000000000000000e+00,-1.000000000000000000e+00,-7.000000000000000000e+00,-2.000000000000000000e+00,-1.000000000000000000e+00,-4.164428710937500000e-01,2.494506835937500000e-01,6.430664062500000000e-01,5.922241210937500000e-01
1.100000000000000000e+01,2.000000000000000000e+00,4.000000000000000000e+00,-3.000000000000000000e+00,-3.000000000000000000e+00,-6.000000000000000000e+00,-8.000000000000000000e+00,-4.000000000000000000e+00,-4.164428710937500000e-01,2.494506835937500000e-01,6.430664062500000000e-01,5.922241210937500000e-01
-1.400000000000000000e+01,-1.100000000000000000e+01,-1.000000000000000000e+00,-8.000000000000000000e+00,-7.000000000000000000e+00,-6.000000000000000000e+00,-3.000000000000000000e+00,2.000000000000000000e+00,-4.164428710937500000e-01,2.494506835937500000e-01,6.430664062500000000e-01,5.922241210937500000e-01
-2.000000000000000000e+00,4.000000000000000000e+00,1.500000000000000000e+01,2.300000000000000000e+01,8.000000000000000000e+00,7.000000000000000000e+00,-7.000000000000000000e+00,-7.000000000000000000e+00,-4.164428710937500000e-01,2.494506835937500000e-01,6.430664062500000000e-01,5.922241210937500000e-01
-1.000000000000000000e+01,-1.200000000000000000e+01,-2.000000000000000000e+01,-1.000000000000000000e+01,-4.000000000000000000e+00,-1.200000000000000000e+01,-6.000000000000000000e+00,-3.000000000000000000e+00,-4.162597656250000000e-01,2.502441406250000000e-01,6.424560546875000000e-01,5.927124023437500000e-01
1.000000000000000000e+00,0.000000000000000000e+00,3.000000000000000000e+00,-4.000000000000000000e+00,3.000000000000000000e+00,8.000000000000000000e+00,2.000000000000000000e+00,0.000000000000000000e+00,-4.162597656250000000e-01,2.502441406250000000e-01,6.424560546875000000e-01,5.927124023437500000e-01
7.000000000000000000e+00,8.000000000000000000e+00,-2.000000000000000000e+00,3.000000000000000000e+00,-1.000000000000000000e+00,-8.000000000000000000e+00,-1.100000000000000000e+01,-1.000000000000000000e+00,-4.162597656250000000e-01,2.502441406250000000e-01,6.424560546875000000e-01,5.927124023437500000e-01
6.000000000000000000e+00,4.000000000000000000e+00,3.000000000000000000e+00,-5.000000000000000000e+00,-1.000000000000000000e+00,4.000000000000000000e+00,-2.000000000000000000e+00,7.000000000000000000e+00,-4.162597656250000000e-01,2.502441406250000000e-01,6.424560546875000000e-01,5.927124023437500000e-01
0.000000000000000000e+00,-4.000000000000000000e+00,-1.300000000000000000e+01,9.000000000000000000e+00,7.000000000000000000e+00,1.600000000000000000e+01,8.000000000000000000e+00,-3.000000000000000000e+00,-4.165649414062500000e-01,2.507934570312500000e-01,6.424560546875000000e-01,5.922241210937500000e-01
-1.100000000000000000e+01,-9.000000000000000000e+00,-1.200000000000000000e+01,0.000000000000000000e+00,-3.000000000000000000e+00,-1.000000000000000000e+00,1.000000000000000000e+00,-4.000000000000000000e+00,-4.165649414062500000e-01,2.507934570312500000e-01,6.424560546875000000e-01,5.922241210937500000e-01
6.000000000000000000e+00,5.000000000000000000e+00,1.200000000000000000e+01,8.000000000000000000e+00,7.000000000000000000e+00,-1.000000000000000000e+00,2.000000000000000000e+00,4.000000000000000000e+00,-4.165649414062500000e-01,2.507934570312500000e-01,6.424560546875000000e-01,5.922241210937500000e-01
-1.700000000000000000e+01,-1.400000000000000000e+01,-9.000000000000000000e+00,-1.600000000000000000e+01,-9.000000000000000000e+00,-1.200000000000000000e+01,-2.500000000000000000e+01,-1.000000000000000000e+01,-4.165649414062500000e-01,2.507934570312500000e-01,6.424560546875000000e-01,5.922241210937500000e-01
5.000000000000000000e+00,5.000000000000000000e+00,2.000000000000000000e+00,6.000000000000000000e+00,2.000000000000000000e+00,-6.000000000000000000e+00,8.000000000000000000e+00,1.000000000000000000e+00,-4.173583984375000000e-01,2.507324218750000000e-01,6.428222656250000000e-01,5.913085937500000000e-01
-3.000000000000000000e+00,2.000000000000000000e+00,1.000000000000000000e+01,-1.000000000000000000e+00,-4.000000000000000000e+00,1.000000000000000000e+00,-6.000000000000000000e+00,-1.000000000000000000e+00,-4.173583984375000000e-01,2.507324218750000000e-01,6.428222656250000000e-01,5.913085937500000000e-01
2.000000000000000000e+00,2.000000000000000000e+00,0.000000000000000000e+00,5.000000000000000000e+00,6.000000000000000000e+00,1.300000000000000000e+01,-4.000000000000000000e+00,5.000000000000000000e+00,-4.173583984375000000e-01,2.507324218750000000e-01,6.428222656250000000e-01,5.913085937500000000e-01
2.000000000000000000e+00,1.000000000000000000e+00,-3.000000000000000000e+00,-5.000000000000000000e+00,-3.000000000000000000e+00,-6.000000000000000000e+00,4.000000000000000000e+00,0.000000000000000000e+00,-4.173583984375000000e-01,2.507324218750000000e-01,6.428222656250000000e-01,5.913085937500000000e-01
-1.000000000000000000e+00,2.000000000000000000e+00,3.000000000000000000e+00,-2.000000000000000000e+00,-4.000000000000000000e+00,-1.300000000000000000e+01,2.000000000000000000e+00,4.000000000000000000e+00,-4.176635742187500000e-01,2.508544921875000000e-01,6.427612304687500000e-01,5.911254882812500000e-01
2.000000000000000000e+00,-2.000000000000000000e+00,-2.000000000000000000e+00,-6.000000000000000000e+00,-3.000000000000000000e+00,0.000000000000000000e+00,-1.700000000000000000e+01,-3.000000000000000000e+00,-4.176635742187500000e-01,2.508544921875000000e-01,6.427612304687500000e-01,5.911254882812500000e-01
0.000000000000000000e+00,-2.000000000000000000e+00,1.000000000000000000e+01,1.000000000000000000e+01,4.000000000000000000e+00,6.000000000000000000e+00,1.000000000000000000e+01,0.000000000000000000e+00,-4.176635742187500000e-01,2.508544921875000000e-01,6.427612304687500000e-01,5.911254882812500000e-01
-1.000000000000000000e+00,-1.000000000000000000e+00,-1.100000000000000000e+01,-6.000000000000000000e+00,3.000000000000000000e+00,7.000000000000000000e+00,2.000000000000000000e+00,0.000000000000000000e+00,-4.176635742187500000e-01,2.508544921875000000e-01,6.427612304687500000e-01,5.911254882812500000e-01
3.000000000000000000e+00,-3.000000000000000000e+00,2.000000000000000000e+00,-4.000000000000000000e+00,-7.000000000000000000e+00,-1.200000000000000000e+01,-5.000000000000000000e+00,0.000000000000000000e+00,-4.174804687500000000e-01,2.515258789062500000e-01,6.417846679687500000e-01,5.919799804687500000e-01
1.000000000000000000e+00,9.000000000000000000e+00,4.000000000000000000e+00,3.000000000000000000e+00,-2.000000000000000000e+00,4.000000000000000000e+00,4.000000000000000000e+00,1.000000000000000000e+00,-4.174804687500000000e-01,2.515258789062500000e-01,6.417846679687500000e-01,5.919799804687500000e-01
-1.200000000000000000e+01,-8.000000000000000000e+00,-2.000000000000000000e+00,2.000000000000000000e+00,0.000000000000000000e+00,4.000000000000000000e+00,1.000000000000000000e+01,-6.000000000000000000e+00,-4.174804687500000000e-01,2.515258789062500000e-01,6.417846679687500000e-01,5.919799804687500000e-01
-6.000000000000000000e+00,-1.000000000000000000e+01,-1.900000000000000000e+01,-2.000000000000000000e+00,-4.000000000000000000e+00,-4.000000000000000000e+00,0.000000000000000000e+00,-3.000000000000000000e+00,-4.174804687500000000e-01,2.515258789062500000e-01,6.417846679687500000e-01,5.919799804687500000e-01
5.000000000000000000e+00,6.000000000000000000e+00,9.000000000000000000e+00,-7.000000000000000000e+00,-2.000000000000000000e+00,-6.000000000000000000e+00,-1.600000000000000000e+01,-2.000000000000000000e+00,-4.176025390625000000e-01,2.523803710937500000e-01,6.408081054687500000e-01,5.925903320312500000e-01
5.000000000000000000e+00,2.000000000000000000e+00,-3.000000000000000000e+00,1.100000000000000000e+01,2.000000000000000000e+00,5.000000000000000000e+00,1.000000000000000000e+01,3.000000000000000000e+00,-4.176025390625000000e-01,2.523803710937500000e-01,6.408081054687500000e-01,5.925903320312500000e-01
-2.300000000000000000e+01,-1.300000000000000000e+01,-9.000000000000000000e+00,-1.200000000000000000e+01,-9.000000000000000000e+00,-8.000000000000000000e+00,3.000000000000000000e+00,-1.100000000000000000e+01,-4.176025390625000000e-01,2.523803710937500000e-01,6.408081054687500000e-01,5.925903320312500000e-01
3.000000000000000000e+00,-2.000000000000000000e+00,-9.000000000000000000e+00,-4.000000000000000000e+00,-1.000000000000000000e+00,-1.200000000000000000e+01,-1.500000000000000000e+01,1.000000000000000000e+00,-4.176025390625000000e-01,2.523803710937500000e-01,6.408081054687500000e-01,5.925903320312500000e-01
-2.000000000000000000e+00,-5.000000000000000000e+00,0.000000000000000000e+00,1.000000000000000000e+00,2.000000000000000000e+00,1.600000000000000000e+01,1.200000000000000000e+01,-2.000000000000000000e+00,-4.181518554687500000e-01,2.528686523437500000e-01,6.403198242187500000e-01,5.925903320312500000e-01
5.000000000000000000e+00,1.400000000000000000e+01,1.000000000000000000e+00,2.000000000000000000e+00,-3.000000000000000000e+00,-3.000000000000000000e+00,3.000000000000000000e+00,0.000000000000000000e+00,-4.181518554687500000e-01,2.528686523437500000e-01,6.403198242187500000e-01,5.925903320312500000e-01
6.000000000000000000e+00,-2.000000000000000000e+00,6.000000000000000000e+00,4.000000000000000000e+00,-2.000000000000000000e+00,-8.000000000000000000e+00,-9.000000000000000000e+00,1.000000000000000000e+00,-4.181518554687500000e-01,2.528686523437500000e-01,6.403198242187500000e-01,5.925903320312500000e-01
5.000000000000000000e+00,8.000000000000000000e+00,-9.000000000000000000e+00,-9.000000000000000000e+00,-2.000000000000000000e+00,-1.600000000000000000e+01,-8.000000000000000000e+00,3.000000000000000000e+00,-4.181518554687500000e-01,2.528686523437500000e-01,6.403198242187500000e-01,5.925903320312500000e-01
-2.000000000000000000e+00,3.000000000000000000e+00,9.000000000000000000e+00,5.000000000000000000e+00,6.000000000000000000e+00,2.000000000000000000e+01,2.500000000000000000e+01,4.000000000000000000e+00,-4.181518554687500000e-01,2.536010742187500000e-01,6.400146484375000000e-01,5.925903320312500000e-01
-6.000000000000000000e+00,-1.400000000000000000e+01,-1.400000000000000000e+01,2.000000000000000000e+00,3.000000000000000000e+00,1.100000000000000000e+01,-4.000000000000000000e+00,-2.000000000000000000e+00,-4.181518554687500000e-01,2.536010742187500000e-01,6.400146484375000000e-01,5.925903320312500000e-01
1.000000000000000000e+00,2.000000000000000000e+00,-7.000000000000000000e+00,4.000000000000000000e+00,-4.000000000000000000e+00,-5.000000000000000000e+00,-2.000000000000000000e+00,-4.000000000000000000e+00,-4.181518554687500000e-01,2.536010742187500000e-01,6.400146484375000000e-01,5.925903320312500000e-01
1.000000000000000000e+00,0.000000000000000000e+00,3.000000000000000000e+00,-1.000000000000000000e+00,-2.000000000000000000e+00,-1.000000000000000000e+00,8.000000000000000000e+00,0.000000000000000000e+00,-4.181518554687500000e-01,2.536010742187500000e-01,6.400146484375000000e-01,5.925903320312500000e-01
3.000000000000000000e+00,-2.000000000000000000e+00,-8.000000000000000000e+00,3.000000000000000000e+00,-1.000000000000000000e+00,-3.000000000000000000e+00,2.000000000000000000e+00,-1.000000000000000000e+00,-4.178466796875000000e-01,2.543945312500000000e-01,6.394653320312500000e-01,5.930175781250000000e-01
-6.000000000000000000e+00,-3.000000000000000000e+00,1.000000000000000000e+01,-4.000000000000000000e+00,-4.000000000000000000e+00,-9.000000000000000000e+00,1.500000000000000000e+01,-2.000000000000000000e+00,-4.178466796875000000e-01,2.543945312500000000e-01,6.394653320312500000e-01,5.930175781250000000e-01
1.000000000000000000e+00,-6.000000000000000000e+00,-2.000000000000000000e+01,-8.000000000000000000e+00,-6.000000000000000000e+00,-2.200000000000000000e+01,-2.000000000000000000e+01,-1.000000000000000000e+00,-4.178466796875000000e-01,2.543945312500000000e-01,6.394653320312500000e-01,5.930175781250000000e-01
6.000000000000000000e+00,5.000000000000000000e+00,1.500000000000000000e+01,4.000000000000000000e+00,5.000000000000000000e+00,1.900000000000000000e+01,1.500000000000000000e+01,2.000000000000000000e+00,-4.178466796875000000e-01,2.543945312500000000e-01,6.394653320312500000e-01,5.930175781250000000e-01
-3.000000000000000000e+00,4.000000000000000000e+00,-8.000000000000000000e+00,-3.000000000000000000e+00,-3.000000000000000000e+00,-1.300000000000000000e+01,-2.400000000000000000e+01,-4.000000000000000000e+00,-4.174804687500000000e-01,2.552490234375000000e-01,6.389770507812500000e-01,5.934448242187500000e-01
-4.000000000000000000e+00,-4.000000000000000000e+00,1.000000000000000000e+00,5.000000000000000000e+00,3.000000000000000000e+00,8.000000000000000000e+00,1.100000000000000000e+01,0.000000000000000000e+00,-4.174804687500000000e-01,2.552490234375000000e-01,6.389770507812500000e-01,5.934448242187500000e-01
2.000000000000000000e+00,6.000000000000000000e+00,-4.000000000000000000e+00,-1.800000000000000000e+01,-8.000000000000000000e+00,-4.000000000000000000e+00,2.000000000000000000e+00,4.000000000000000000e+00,-4.174804687500000000e-01,2.552490234375000000e-01,6.389770507812500000e-01,5.934448242187500000e-01
-1.200000000000000000e+01,-2.000000000000000000e+00,2.000000000000000000e+00,5.000000000000000000e+00,-2.000000000000000000e+00,-8.000000000000000000e+00,-1.700000000000000000e+01,-7.000000000000000000e+00,-4.174804687500000000e-01,2.552490234375000000e-01,6.389770507812500000e-01,5.934448242187500000e-01
-6.000000000000000000e+00,-1.200000000000000000e+01,6.000000000000000000e+00,9.000000000000000000e+00,0.000000000000000000e+00,5.000000000000000000e+00,1.800000000000000000e+01,3.000000000000000000e+00,-4.178466796875000000e-01,2.556762695312500000e-01,6.388549804687500000e-01,5.931396484375000000e-01
1.000000000000000000e+00,-3.000000000000000000e+00,-1.700000000000000000e+01,-6.000000000000000000e+00,-3.000000000000000000e+00,-5.000000000000000000e+00,-7.000000000000000000e+00,-5.000000000000000000e+00,-4.178466796875000000e-01,2.556762695312500000e-01,6.388549804687500000e-01,5.931396484375000000e-01
1.200000000000000000e+01,7.000000000000000000e+00,-2.000000000000000000e+00,-3.000000000000000000e+00,1.000000000000000000e+00,-6.000000000000000000e+00,-3.000000000000000000e+00,-2.000000000000000000e+00,-4.178466796875000000e-01,2.556762695312500000e-01,6.388549804687500000e-01,5.931396484375000000e-01
1.000000000000000000e+00,0.000000000000000000e+00,3.000000000000000000e+00,-9.000000000000000000e+00,1.000000000000000000e+00,4.000000000000000000e+00,-8.000000000000000000e+00,-2.000000000000000000e+00,-4.178466796875000000e-01,2.556762695312500000e-01,6.388549804687500000e-01,5.931396484375000000e-01
-8.000000000000000000e+00,-1.000000000000000000e+00,1.000000000000000000e+00,-2.000000000000000000e+00,-2.000000000000000000e+00,-4.000000000000000000e+00,-1.000000000000000000e+00,0.000000000000000000e+00,-4.185791015625000000e-01,2.562866210937500000e-01,6.387329101562500000e-01,5.924682617187500000e-01
2.000000000000000000e+00,0.000000000000000000e+00,1.000000000000000000e+00,9.000000000000000000e+00,-1.000000000000000000e+00,-8.000000000000000000e+00,-5.000000000000000000e+00,-1.000000000000000000e+00,-4.185791015625000000e-01,2.562866210937500000e-01,6.387329101562500000e-01,5.924682617187500000e-01
