8.000000000000000000e+00,-7.000000000000000000e+00,-3.000000000000000000e+00,8.000000000000000000e+00,3.000000000000000000e+00,-2.000000000000000000e+00,1.000000000000000000e+00,2.000000000000000000e+00,-4.443969726562500000e-01,3.116455078125000000e-01,6.475830078125000000e-01,5.347900390625000000e-01
2.000000000000000000e+00,0.000000000000000000e+00,2.000000000000000000e+00,-6.000000000000000000e+00,-5.000000000000000000e+00,-2.000000000000000000e+00,-2.000000000000000000e+00,-2.000000000000000000e+00,-4.443969726562500000e-01,3.116455078125000000e-01,6.475830078125000000e-01,5.347900390625000000e-01
-1.300000000000000000e+01,-5.000000000000000000e+00,-8.000000000000000000e+00,8.000000000000000000e+00,-2.000000000000000000e+00,-3.000000000000000000e+00,-3.000000000000000000e+00,-5.000000000000000000e+00,-4.443969726562500000e-01,3.116455078125000000e-01,6.475830078125000000e-01,5.347900390625000000e-01
-6.000000000000000000e+00,2.000000000000000000e+00,-5.000000000000000000e+00,-9.000000000000000000e+00,-4.000000000000000000e+00,-4.000000000000000000e+00,-1.000000000000000000e+00,0.000000000000000000e+00,-4.443969726562500000e-01,3.116455078125000000e-01,6.475830078125000000e-01,5.347900390625000000e-01
2.300000000000000000e+01,5.000000000000000000e+00,2.000000000000000000e+00,-1.000000000000000000e+01,-8.000000000000000000e+00,-1.000000000000000000e+00,1.000000000000000000e+00,3.000000000000000000e+00,-4.443359375000000000e-01,3.129272460937500000e-01,6.476440429687500000e-01,5.339355468750000000e-01
-2.100000000000000000e+01,-4.000000000000000000e+00,-4.000000000000000000e+00,-1.000000000000000000e+01,-4.000000000000000000e+00,-5.000000000000000000e+00,1.000000000000000000e+00,-3.000000000000000000e+00,-4.443359375000000000e-01,3.129272460937500000e-01,6.476440429687500000e-01,5.339355468750000000e-01
6.000000000000000000e+00,-1.000000000000000000e+00,0.000000000000000000e+00,1.000000000000000000e+01,5.000000000000000000e+00,-2.000000000000000000e+00,-9.000000000000000000e+00,1.000000000000000000e+00,-4.443359375000000000e-01,3.129272460937500000e-01,6.476440429687500000e-01,5.339355468750000000e-01
2.000000000000000000e+00,3.000000000000000000e+00,-3.000000000000000000e+00,-7.000000000000000000e+00,-1.000000000000000000e+00,5.000000000000000000e+00,3.000000000000000000e+00,1.000000000000000000e+00,-4.443359375000000000e-01,3.129272460937500000e-01,6.476440429687500000e-01,5.339355468750000000e-01
-2.000000000000000000e+00,-7.000000000000000000e+00,0.000000000000000000e+00,2.000000000000000000e+00,-1.000000000000000000e+00,-1.000000000000000000e+00,4.000000000000000000e+00,1.000000000000000000e+00,-4.445190429687500000e-01,3.135375976562500000e-01,6.475830078125000000e-01,5.335693359375000000e-01
-2.000000000000000000e+00,0.000000000000000000e+00,4.000000000000000000e+00,-8.000000000000000000e+00,-1.000000000000000000e+01,-6.000000000000000000e+00,-1.000000000000000000e+01,-3.000000000000000000e+00,-4.445190429687500000e-01,3.135375976562500000e-01,6.475830078125000000e-01,5.335693359375000000e-01
-6.000000000000000000e+00,-5.000000000000000000e+00,-5.000000000000000000e+00,-7.000000000000000000e+00,-7.000000000000000000e+00,-4.000000000000000000e+00,-2.000000000000000000e+00,-1.000000000000000000e+00,-4.445190429687500000e-01,3.135375976562500000e-01,6.475830078125000000e-01,5.335693359375000000e-01
2.000000000000000000e+00,-2.000000000000000000e+00,-2.000000000000000000e+00,3.000000000000000000e+00,7.000000000000000000e+00,-1.000000000000000000e+01,-3.000000000000000000e+00,-2.000000000000000000e+00,-4.445190429687500000e-01,3.135375976562500000e-01,6.475830078125000000e-01,5.335693359375000000e-01
6.000000000000000000e+00,2.000000000000000000e+00,7.000000000000000000e+00,-1.000000000000000000e+00,-3.000000000000000000e+00,1.600000000000000000e+01,1.000000000000000000e+01,-6.000000000000000000e+00,-4.447021484375000000e-01,3.131103515625000000e-01,6.475830078125000000e-01,5.336303710937500000e-01
-2.000000000000000000e+00,-1.000000000000000000e+00,-7.000000000000000000e+00,-1.000000000000000000e+00,-2.000000000000000000e+00,-6.000000000000000000e+00,8.000000000000000000e+00,-2.000000000000000000e+00,-4.447021484375000000e-01,3.131103515625000000e-01,6.475830078125000000e-01,5.336303710937500000e-01
-3.000000000000000000e+00,1.000000000000000000e+00,-3.000000000000000000e+00,5.000000000000000000e+00,9.000000000000000000e+00,3.000000000000000000e+00,0.000000000000000000e+00,-6.000000000000000000e+00,-4.447021484375000000e-01,3.131103515625000000e-01,6.475830078125000000e-01,5.336303710937500000e-01
-9.000000000000000000e+00,-3.000000000000000000e+00,-6.000000000000000000e+00,1.000000000000000000e+00,-3.000000000000000000e+00,-7.000000000000000000e+00,-9.000000000000000000e+00,3.000000000000000000e+00,-4.447021484375000000e-01,3.131103515625000000e-01,6.475830078125000000e-01,5.336303710937500000e-01
9.000000000000000000e+00,-3.000000000000000000e+00,-9.000000000000000000e+00,-7.000000000000000000e+00,-4.000000000000000000e+00,-5.000000000000000000e+00,0.000000000000000000e+00,5.000000000000000000e+00,-4.450073242187500000e-01,3.120117187500000000e-01,6.481323242187500000e-01,5.333862304687500000e-01
-5.000000000000000000e+00,-4.000000000000000000e+00,-5.000000000000000000e+00,5.000000000000000000e+00,2.000000000000000000e+00,2.000000000000000000e+00,6.000000000000000000e+00,-2.000000000000000000e+00,-4.450073242187500000e-01,3.120117187500000000e-01,6.481323242187500000e-01,5.333862304687500000e-01
0.000000000000000000e+00,2.000000000000000000e+00,1.000000000000000000e+00,-7.000000000000000000e+00,-3.000000000000000000e+00,1.000000000000000000e+00,-3.000000000000000000e+00,-2.000000000000000000e+00,-4.450073242187500000e-01,3.120117187500000000e-01,6.481323242187500000e-01,5.333862304687500000e-01
-8.000000000000000000e+00,-2.000000000000000000e+00,-1.300000000000000000e+01,-3.000000000000000000e+00,-6.000000000000000000e+00,-1.000000000000000000e+00,0.000000000000000000e+00,-9.000000000000000000e+00,-4.450073242187500000e-01,3.120117187500000000e-01,6.481323242187500000e-01,5.333862304687500000e-01
3.000000000000000000e+00,-1.200000000000000000e+01,-1.000000000000000000e+00,8.000000000000000000e+00,8.000000000000000000e+00,-1.000000000000000000e+00,0.000000000000000000e+00,1.100000000000000000e+01,-4.454345703125000000e-01,3.105468750000000000e-01,6.491088867187500000e-01,5.327148437500000000e-01
-1.100000000000000000e+01,2.000000000000000000e+00,-3.000000000000000000e+00,1.000000000000000000e+00,4.000000000000000000e+00,0.000000000000000000e+00,-1.000000000000000000e+01,-1.200000000000000000e+01,-4.454345703125000000e-01,3.105468750000000000e-01,6.491088867187500000e-01,5.327148437500000000e-01
2.300000000000000000e+01,2.000000000000000000e+00,-1.000000000000000000e+00,-4.000000000000000000e+00,-1.000000000000000000e+00,0.000000000000000000e+00,9.000000000000000000e+00,9.000000000000000000e+00,-4.454345703125000000e-01,3.105468750000000000e-01,6.491088867187500000e-01,5.327148437500000000e-01
-5.000000000000000000e+00,2.000000000000000000e+00,0.000000000000000000e+00,7.000000000000000000e+00,6.000000000000000000e+00,7.000000000000000000e+00,0.000000000000000000e+00,-4.000000000000000000e+00,-4.454345703125000000e-01,3.105468750000000000e-01,6.491088867187500000e-01,5.327148437500000000e-01
2.000000000000000000e+00,3.000000000000000000e+00,-1.000000000000000000e+00,-9.000000000000000000e+00,0.000000000000000000e+00,-5.000000000000000000e+00,-8.000000000000000000e+00,-3.000000000000000000e+00,-4.455566406250000000e-01,3.092651367187500000e-01,6.499023437500000000e-01,5.322875976562500000e-01
0.000000000000000000e+00,0.000000000000000000e+00,2.000000000000000000e+00,5.000000000000000000e+00,-2.000000000000000000e+00,-1.000000000000000000e+00,-2.000000000000000000e+00,3.000000000000000000e+00,-4.455566406250000000e-01,3.092651367187500000e-01,6.499023437500000000e-01,5.322875976562500000e-01
-1.000000000000000000e+01,-1.000000000000000000e+00,3.000000000000000000e+00,-9.000000000000000000e+00,-7.000000000000000000e+00,-1.000000000000000000e+00,1.000000000000000000e+00,-3.000000000000000000e+00,-4.455566406250000000e-01,3.092651367187500000e-01,6.499023437500000000e-01,5.322875976562500000e-01
5.000000000000000000e+00,-1.000000000000000000e+00,-5.000000000000000000e+00,6.000000000000000000e+00,4.000000000000000000e+00,-1.000000000000000000e+00,-3.000000000000000000e+00,1.000000000000000000e+00,-4.455566406250000000e-01,3.092651367187500000e-01,6.499023437500000000e-01,5.322875976562500000e-01
7.000000000000000000e+00,5.000000000000000000e+00,3.000000000000000000e+00,-9.000000000000000000e+00,-6.000000000000000000e+00,-9.000000000000000000e+00,-4.000000000000000000e+00,1.000000000000000000e+00,-4.455566406250000000e-01,3.078002929687500000e-01,6.504516601562500000e-01,5.325317382812500000e-01
2.000000000000000000e+00,-1.000000000000000000e+00,-1.000000000000000000e+00,3.000000000000000000e+00,7.000000000000000000e+00,-6.000000000000000000e+00,-7.000000000000000000e+00,7.000000000000000000e+00,-4.455566406250000000e-01,3.078002929687500000e-01,6.504516601562500000e-01,5.325317382812500000e-01
-2.000000000000000000e+00,4.000000000000000000e+00,-2.000000000000000000e+00,5.000000000000000000e+00,0.000000000000000000e+00,1.000000000000000000e+01,6.000000000000000000e+00,-6.000000000000000000e+00,-4.455566406250000000e-01,3.078002929687500000e-01,6.504516601562500000e-01,5.325317382812500000e-01
-2.000000000000000000e+00,-1.500000000000000000e+01,1.000000000000000000e+00,-6.000000000000000000e+00,-3.000000000000000000e+00,-2.000000000000000000e+00,1.000000000000000000e+01,7.000000000000000000e+00,-4.455566406250000000e-01,3.078002929687500000e-01,6.504516601562500000e-01,5.325317382812500000e-01
-2.000000000000000000e+00,8.000000000000000000e+00,6.000000000000000000e+00,9.000000000000000000e+00,-2.000000000000000000e+00,-1.000000000000000000e+00,-7.000000000000000000e+00,-1.000000000000000000e+00,-4.454956054687500000e-01,3.068847656250000000e-01,6.505737304687500000e-01,5.329589843750000000e-01
4.000000000000000000e+00,2.000000000000000000e+00,-2.000000000000000000e+00,-1.700000000000000000e+01,-7.000000000000000000e+00,-5.000000000000000000e+00,-3.000000000000000000e+00,-4.000000000000000000e+00,-4.454956054687500000e-01,3.068847656250000000e-01,6.505737304687500000e-01,5.329589843750000000e-01
-1.600000000000000000e+01,4.000000000000000000e+00,-1.000000000000000000e+00,1.500000000000000000e+01,5.000000000000000000e+00,-6.000000000000000000e+00,-5.000000000000000000e+00,-4.000000000000000000e+00,-4.454956054687500000e-01,3.068847656250000000e-01,6.505737304687500000e-01,5.329589843750000000e-01
1.600000000000000000e+01,-1.000000000000000000e+01,7.000000000000000000e+00,-2.000000000000000000e+00,4.000000000000000000e+00,1.000000000000000000e+00,0.000000000000000000e+00,-2.000000000000000000e+00,-4.454956054687500000e-01,3.068847656250000000e-01,6.505737304687500000e-01,5.329589843750000000e-01
-2.300000000000000000e+01,-2.000000000000000000e+00,4.000000000000000000e+00,1.000000000000000000e+00,2.000000000000000000e+00,-1.000000000000000000e+00,-2.000000000000000000e+00,-6.000000000000000000e+00,-4.454345703125000000e-01,3.064575195312500000e-01,6.503906250000000000e-01,5.335083007812500000e-01
2.900000000000000000e+01,-9.000000000000000000e+00,0.000000000000000000e+00,-1.700000000000000000e+01,-1.900000000000000000e+01,-2.000000000000000000e+00,-3.000000000000000000e+00,3.000000000000000000e+00,-4.454345703125000000e-01,3.064575195312500000e-01,6.503906250000000000e-01,5.335083007812500000e-01
-1.800000000000000000e+01,0.000000000000000000e+00,4.000000000000000000e+00,-9.000000000000000000e+00,-4.000000000000000000e+00,-1.000000000000000000e+00,-1.000000000000000000e+00,-6.000000000000000000e+00,-4.454345703125000000e-01,3.064575195312500000e-01,6.503906250000000000e-01,5.335083007812500000e-01
-7.000000000000000000e+00,6.000000000000000000e+00,2.000000000000000000e+00,4.000000000000000000e+00,-1.000000000000000000e+00,2.000000000000000000e+00,2.000000000000000000e+00,0.000000000000000000e+00,-4.454345703125000000e-01,3.064575195312500000e-01,6.503906250000000000e-01,5.335083007812500000e-01
-1.200000000000000000e+01,-1.000000000000000000e+00,0.000000000000000000e+00,-5.000000000000000000e+00,-5.000000000000000000e+00,-6.000000000000000000e+00,-6.000000000000000000e+00,-1.000000000000000000e+01,-4.451904296875000000e-01,3.065795898437500000e-01,6.498413085937500000e-01,5.342407226562500000e-01
1.000000000000000000e+01,2.000000000000000000e+00,-1.200000000000000000e+01,1.000000000000000000e+01,9.000000000000000000e+00,0.000000000000000000e+00,2.000000000000000000e+00,4.000000000000000000e+00,-4.451904296875000000e-01,3.065795898437500000e-01,6.498413085937500000e-01,5.342407226562500000e-01
7.000000000000000000e+00,-3.000000000000000000e+00,6.000000000000000000e+00,-1.500000000000000000e+01,-1.000000000000000000e+01,-1.000000000000000000e+00,-3.000000000000000000e+00,2.000000000000000000e+00,-4.451904296875000000e-01,3.065795898437500000e-01,6.498413085937500000e-01,5.342407226562500000e-01
-1.000000000000000000e+00,-7.000000000000000000e+00,1.000000000000000000e+00,1.900000000000000000e+01,1.600000000000000000e+01,4.000000000000000000e+00,3.000000000000000000e+00,8.000000000000000000e+00,-4.451904296875000000e-01,3.065795898437500000e-01,6.498413085937500000e-01,5.342407226562500000e-01
-1.300000000000000000e+01,0.000000000000000000e+00,-3.000000000000000000e+00,-1.000000000000000000e+01,-1.100000000000000000e+01,-6.000000000000000000e+00,-3.000000000000000000e+00,-5.000000000000000000e+00,-4.453125000000000000e-01,3.062744140625000000e-01,6.494140625000000000e-01,5.348510742187500000e-01
0.000000000000000000e+00,-5.000000000000000000e+00,-1.000000000000000000e+00,6.000000000000000000e+00,4.000000000000000000e+00,-1.000000000000000000e+00,-4.000000000000000000e+00,-1.100000000000000000e+01,-4.453125000000000000e-01,3.062744140625000000e-01,6.494140625000000000e-01,5.348510742187500000e-01
7.000000000000000000e+00,-3.000000000000000000e+00,-6.000000000000000000e+00,-2.000000000000000000e+00,0.000000000000000000e+00,0.000000000000000000e+00,7.000000000000000000e+00,6.000000000000000000e+00,-4.453125000000000000e-01,3.062744140625000000e-01,6.494140625000000000e-01,5.348510742187500000e-01
-1.000000000000000000e+00,5.000000000000000000e+00,3.000000000000000000e+00,-5.000000000000000000e+00,-7.000000000000000000e+00,-4.000000000000000000e+00,5.000000000000000000e+00,-3.000000000000000000e+00,-4.453125000000000000e-01,3.062744140625000000e-01,6.494140625000000000e-01,5.348510742187500000e-01
0.000000000000000000e+00,-3.000000000000000000e+00,-4.000000000000000000e+00,0.000000000000000000e+00,4.000000000000000000e+00,0.000000000000000000e+00,-2.000000000000000000e+01,-3.000000000000000000e+00,-4.454345703125000000e-01,3.059082031250000000e-01,6.491088867187500000e-01,5.353393554687500000e-01
-1.200000000000000000e+01,-2.000000000000000000e+00,-2.000000000000000000e+00,0.000000000000000000e+00,1.000000000000000000e+00,2.000000000000000000e+00,5.000000000000000000e+00,-2.000000000000000000e+00,-4.454345703125000000e-01,3.059082031250000000e-01,6.491088867187500000e-01,5.353393554687500000e-01
4.000000000000000000e+00,-2.000000000000000000e+00,-2.000000000000000000e+00,1.200000000000000000e+01,1.100000000000000000e+01,1.000000000000000000e+00,0.000000000000000000e+00,-1.000000000000000000e+00,-4.454345703125000000e-01,3.059082031250000000e-01,6.491088867187500000e-01,5.353393554687500000e-01
-3.000000000000000000e+00,2.000000000000000000e+00,2.000000000000000000e+00,-7.000000000000000000e+00,-1.100000000000000000e+01,1.000000000000000000e+00,-5.000000000000000000e+00,-2.000000000000000000e+00,-4.454345703125000000e-01,3.059082031250000000e-01,6.491088867187500000e-01,5.353393554687500000e-01
6.000000000000000000e+00,0.000000000000000000e+00,-4.000000000000000000e+00,-2.000000000000000000e+00,3.000000000000000000e+00,1.000000000000000000e+00,1.000000000000000000e+00,1.000000000000000000e+00,-4.458618164062500000e-01,3.054199218750000000e-01,6.488647460937500000e-01,5.355834960937500000e-01
-4.000000000000000000e+00,1.000000000000000000e+00,-1.000000000000000000e+00,-1.100000000000000000e+01,-1.100000000000000000e+01,0.000000000000000000e+00,-3.000000000000000000e+00,-1.000000000000000000e+00,-4.458618164062500000e-01,3.054199218750000000e-01,6.488647460937500000e-01,5.355834960937500000e-01
-1.000000000000000000e+00,3.000000000000000000e+00,2.000000000000000000e+00,1.000000000000000000e+00,4.000000000000000000e+00,-3.000000000000000000e+00,-2.000000000000000000e+00,-2.000000000000000000e+00,-4.458618164062500000e-01,3.054199218750000000e-01,6.488647460937500000e-01,5.355834960937500000e-01
-1.200000000000000000e+01,-2.000000000000000000e+00,-3.000000000000000000e+00,-9.000000000000000000e+00,-3.000000000000000000e+00,-4.000000000000000000e+00,-3.000000000000000000e+00,1.000000000000000000e+00,-4.458618164062500000e-01,3.054199218750000000e-01,6.488647460937500000e-01,5.355834960937500000e-01
2.000000000000000000e+01,-1.000000000000000000e+00,0.000000000000000000e+00,1.800000000000000000e+01,8.000000000000000000e+00,2.000000000000000000e+00,4.000000000000000000e+00,0.000000000000000000e+00,-4.461669921875000000e-01,3.045654296875000000e-01,6.490478515625000000e-01,5.355834960937500000e-01
-1.200000000000000000e+01,3.000000000000000000e+00,5.000000000000000000e+00,-2.000000000000000000e+00,-7.000000000000000000e+00,-3.000000000000000000e+00,0.000000000000000000e+00,2.000000000000000000e+00,-4.461669921875000000e-01,3.045654296875000000e-01,6.490478515625000000e-01,5.355834960937500000e-01
2.500000000000000000e+01,5.000000000000000000e+00,-8.000000000000000000e+00,-1.000000000000000000e+00,-1.000000000000000000e+00,-1.000000000000000000e+00,2.000000000000000000e+00,0.000000000000000000e+00,-4.461669921875000000e-01,3.045654296875000000e-01,6.490478515625000000e-01,5.355834960937500000e-01
-2.100000000000000000e+01,-1.200000000000000000e+01,4.000000000000000000e+00,-1.000000000000000000e+00,-2.000000000000000000e+00,0.000000000000000000e+00,-2.000000000000000000e+00,-6.000000000000000000e+00,-4.461669921875000000e-01,3.045654296875000000e-01,6.490478515625000000e-01,5.355834960937500000e-01
5.000000000000000000e+00,2.000000000000000000e+00,-1.000000000000000000e+00,-1.000000000000000000e+01,-3.000000000000000000e+00,-5.000000000000000000e+00,-5.000000000000000000e+00,-3.000000000000000000e+00,-4.462890625000000000e-01,3.032836914062500000e-01,6.496582031250000000e-01,5.355224609375000000e-01
-7.000000000000000000e+00,-7.000000000000000000e+00,-3.000000000000000000e+00,5.000000000000000000e+00,1.100000000000000000e+01,1.000000000000000000e+00,1.400000000000000000e+01,6.000000000000000000e+00,-4.462890625000000000e-01,3.032836914062500000e-01,6.496582031250000000e-01,5.355224609375000000e-01
-1.000000000000000000e+00,-6.000000000000000000e+00,-2.000000000000000000e+00,-4.000000000000000000e+00,-7.000000000000000000e+00,-3.000000000000000000e+00,-1.700000000000000000e+01,-5.000000000000000000e+00,-4.462890625000000000e-01,3.032836914062500000e-01,6.496582031250000000e-01,5.355224609375000000e-01
2.500000000000000000e+01,1.100000000000000000e+01,2.000000000000000000e+00,6.000000000000000000e+00,3.000000000000000000e+00,-2.000000000000000000e+00,7.000000000000000000e+00,2.000000000000000000e+00,-4.462890625000000000e-01,3.032836914062500000e-01,6.496582031250000000e-01,5.355224609375000000e-01
-2.000000000000000000e+00,-2.000000000000000000e+00,5.000000000000000000e+00,-5.000000000000000000e+00,-6.000000000000000000e+00,1.000000000000000000e+01,-1.300000000000000000e+01,2.000000000000000000e+00,-4.461669921875000000e-01,3.010864257812500000e-01,6.508178710937500000e-01,5.354003906250000000e-01
3.000000000000000000e+00,-1.000000000000000000e+00,-2.000000000000000000e+00,6.000000000000000000e+00,1.000000000000000000e+01,-2.000000000000000000e+00,-3.000000000000000000e+00,-1.000000000000000000e+00,-4.461669921875000000e-01,3.010864257812500000e-01,6.508178710937500000e-01,5.354003906250000000e-01
-1.400000000000000000e+01,2.000000000000000000e+00,0.000000000000000000e+00,-1.200000000000000000e+01,-6.000000000000000000e+00,-1.400000000000000000e+01,-7.000000000000000000e+00,2.000000000000000000e+00,-4.461669921875000000e-01,3.010864257812500000e-01,6.508178710937500000e-01,5.354003906250000000e-01
-3.000000000000000000e+00,-2.000000000000000000e+00,-1.000000000000000000e+00,-1.000000000000000000e+00,-4.000000000000000000e+00,1.700000000000000000e+01,1.700000000000000000e+01,-2.000000000000000000e+00,-4.461669921875000000e-01,3.010864257812500000e-01,6.508178710937500000e-01,5.354003906250000000e-01
6.000000000000000000e+00,-1.000000000000000000e+00,1.000000000000000000e+00,1.100000000000000000e+01,1.100000000000000000e+01,0.000000000000000000e+00,5.000000000000000000e+00,-2.000000000000000000e+00,-4.454345703125000000e-01,2.986450195312500000e-01,6.525268554687500000e-01,5.352783203125000000e-01
-7.000000000000000000e+00,4.000000000000000000e+00,-1.000000000000000000e+00,-7.000000000000000000e+00,-3.000000000000000000e+00,-5.000000000000000000e+00,-1.300000000000000000e+01,-3.000000000000000000e+00,-4.454345703125000000e-01,2.986450195312500000e-01,6.525268554687500000e-01,5.352783203125000000e-01
-3.000000000000000000e+00,-8.000000000000000000e+00,-1.000000000000000000e+00,1.300000000000000000e+01,4.000000000000000000e+00,1.000000000000000000e+01,-3.000000000000000000e+00,-2.000000000000000000e+00,-4.454345703125000000e-01,2.986450195312500000e-01,6.525268554687500000e-01,5.352783203125000000e-01
-2.000000000000000000e+00,0.000000000000000000e+00,1.000000000000000000e+00,-9.000000000000000000e+00,-2.000000000000000000e+00,-1.000000000000000000e+01,-1.900000000000000000e+01,1.000000000000000000e+00,-4.454345703125000000e-01,2.986450195312500000e-01,6.525268554687500000e-01,5.352783203125000000e-01
2.000000000000000000e+00,3.000000000000000000e+00,-2.000000000000000000e+00,-4.000000000000000000e+00,-3.000000000000000000e+00,-4.000000000000000000e+00,1.000000000000000000e+01,5.000000000000000000e+00,-4.443969726562500000e-01,2.968139648437500000e-01,6.537475585937500000e-01,5.357055664062500000e-01
4.000000000000000000e+00,4.000000000000000000e+00,1.000000000000000000e+00,-5.000000000000000000e+00,-8.000000000000000000e+00,0.000000000000000000e+00,3.000000000000000000e+00,2.000000000000000000e+00,-4.443969726562500000e-01,2.968139648437500000e-01,6.537475585937500000e-01,5.357055664062500000e-01
-1.000000000000000000e+00,-1.000000000000000000e+00,1.000000000000000000e+00,-2.000000000000000000e+00,-2.000000000000000000e+00,-2.000000000000000000e+00,2.000000000000000000e+00,-3.000000000000000000e+00,-4.443969726562500000e-01,2.968139648437500000e-01,6.537475585937500000e-01,5.357055664062500000e-01
4.000000000000000000e+00,-1.000000000000000000e+00,-6.000000000000000000e+00,2.000000000000000000e+00,1.000000000000000000e+00,-3.000000000000000000e+00,-6.000000000000000000e+00,-2.000000000000000000e+00,-4.443969726562500000e-01,2.968139648437500000e-01,6.537475585937500000e-01,5.357055664062500000e-01
-7.000000000000000000e+00,-3.000000000000000000e+00,-3.000000000000000000e+00,-4.000000000000000000e+00,-8.000000000000000000e+00,1.000000000000000000e+00,5.000000000000000000e+00,1.000000000000000000e+00,-4.429931640625000000e-01,2.965087890625000000e-01,6.547241210937500000e-01,5.358276367187500000e-01
-3.000000000000000000e+00,-3.000000000000000000e+00,1.000000000000000000e+00,-6.000000000000000000e+00,-6.000000000000000000e+00,-4.000000000000000000e+00,-5.000000000000000000e+00,-3.000000000000000000e+00,-4.429931640625000000e-01,2.965087890625000000e-01,6.547241210937500000e-01,5.358276367187500000e-01
7.000000000000000000e+00,3.000000000000000000e+00,-1.000000000000000000e+00,-3.000000000000000000e+00,-2.000000000000000000e+00,-2.000000000000000000e+00,2.000000000000000000e+00,-2.000000000000000000e+00,-4.429931640625000000e-01,2.965087890625000000e-01,6.547241210937500000e-01,5.358276367187500000e-01
-1.700000000000000000e+01,2.000000000000000000e+00,-2.000000000000000000e+00,9.000000000000000000e+00,8.000000000000000000e+00,-1.000000000000000000e+00,1.000000000000000000e+00,0.000000000000000000e+00,-4.429931640625000000e-01,2.965087890625000000e-01,6.547241210937500000e-01,5.358276367187500000e-01
1.800000000000000000e+01,-6.000000000000000000e+00,-7.000000000000000000e+00,-1.000000000000000000e+01,-6.000000000000000000e+00,-7.000000000000000000e+00,-1.000000000000000000e+00,3.000000000000000000e+00,-4.418334960937500000e-01,2.966918945312500000e-01,6.553344726562500000e-01,5.359497070312500000e-01
-1.100000000000000000e+01,-3.000000000000000000e+00,-1.000000000000000000e+00,1.300000000000000000e+01,2.000000000000000000e+00,7.000000000000000000e+00,1.000000000000000000e+00,-7.000000000000000000e+00,-4.418334960937500000e-01,2.966918945312500000e-01,6.553344726562500000e-01,5.359497070312500000e-01
0.000000000000000000e+00,3.000000000000000000e+00,5.000000000000000000e+00,-3.000000000000000000e+00,-6.000000000000000000e+00,0.000000000000000000e+00,4.000000000000000000e+00,-1.000000000000000000e+00,-4.418334960937500000e-01,2.966918945312500000e-01,6.553344726562500000e-01,5.359497070312500000e-01
-9.000000000000000000e+00,2.000000000000000000e+00,-5.000000000000000000e+00,-2.000000000000000000e+00,-2.000000000000000000e+00,-5.000000000000000000e+00,-6.000000000000000000e+00,-2.000000000000000000e+00,-4.418334960937500000e-01,2.966918945312500000e-01,6.553344726562500000e-01,5.359497070312500000e-01
-9.000000000000000000e+00,-5.000000000000000000e+00,1.000000000000000000e+00,1.000000000000000000e+00,-3.000000000000000000e+00,-2.000000000000000000e+00,-1.000000000000000000e+00,0.000000000000000000e+00,-4.407958984375000000e-01,2.968750000000000000e-01,6.558227539062500000e-01,5.360717773437500000e-01
9.000000000000000000e+00,1.000000000000000000e+00,-4.000000000000000000e+00,8.000000000000000000e+00,2.000000000000000000e+00,4.000000000000000000e+00,1.000000000000000000e+00,0.000000000000000000e+00,-4.407958984375000000e-01,2.968750000000000000e-01,6.558227539062500000e-01,5.360717773437500000e-01
1.000000000000000000e+00,-1.000000000000000000e+00,-7.000000000000000000e+00,-3.000000000000000000e+00,5.000000000000000000e+00,0.000000000000000000e+00,4.000000000000000000e+00,3.000000000000000000e+00,-4.407958984375000000e-01,2.968750000000000000e-01,6.558227539062500000e-01,5.360717773437500000e-01
3.000000000000000000e+00,-1.000000000000000000e+00,1.000000000000000000e+00,-9.000000000000000000e+00,-5.000000000000000000e+00,-2.000000000000000000e+00,-2.000000000000000000e+00,-1.000000000000000000e+00,-4.407958984375000000e-01,2.968750000000000000e-01,6.558227539062500000e-01,5.360717773437500000e-01
-1.300000000000000000e+01,2.000000000000000000e+00,1.000000000000000000e+00,2.000000000000000000e+00,3.000000000000000000e+00,-1.000000000000000000e+00,1.000000000000000000e+00,-6.000000000000000000e+00,-4.401245117187500000e-01,2.965087890625000000e-01,6.560058593750000000e-01,5.366210937500000000e-01
-7.000000000000000000e+00,-2.000000000000000000e+00,-7.000000000000000000e+00,-3.000000000000000000e+00,0.000000000000000000e+00,-2.000000000000000000e+00,-1.000000000000000000e+00,-2.000000000000000000e+00,-4.401245117187500000e-01,2.965087890625000000e-01,6.560058593750000000e-01,5.366210937500000000e-01
1.900000000000000000e+01,0.000000000000000000e+00,1.000000000000000000e+00,-4.000000000000000000e+00,-8.000000000000000000e+00,0.000000000000000000e+00,1.000000000000000000e+01,1.000000000000000000e+01,-4.401245117187500000e-01,2.965087890625000000e-01,6.560058593750000000e-01,5.366210937500000000e-01
1.100000000000000000e+01,1.000000000000000000e+00,-2.000000000000000000e+00,4.000000000000000000e+00,2.000000000000000000e+00,0.000000000000000000e+00,-9.000000000000000000e+00,-1.000000000000000000e+00,-4.401245117187500000e-01,2.965087890625000000e-01,6.560058593750000000e-01,5.366210937500000000e-01
-1.400000000000000000e+01,-1.100000000000000000e+01,-1.000000000000000000e+00,-1.100000000000000000e+01,-6.000000000000000000e+00,-2.000000000000000000e+00,4.000000000000000000e+00,-3.000000000000000000e+00,-4.395751953125000000e-01,2.963867187500000000e-01,6.558837890625000000e-01,5.372924804687500000e-01
-1.000000000000000000e+00,-2.000000000000000000e+00,2.000000000000000000e+00,1.500000000000000000e+01,5.000000000000000000e+00,0.000000000000000000e+00,0.000000000000000000e+00,-1.000000000000000000e+00,-4.395751953125000000e-01,2.963867187500000000e-01,6.558837890625000000e-01,5.372924804687500000e-01
-9.000000000000000000e+00,3.000000000000000000e+00,-2.000000000000000000e+00,3.000000000000000000e+00,3.000000000000000000e+00,-3.000000000000000000e+00,1.000000000000000000e+00,-4.000000000000000000e+00,-4.395751953125000000e-01,2.963867187500000000e-01,6.558837890625000000e-01,5.372924804687500000e-01
5.000000000000000000e+00,2.000000000000000000e+00,-6.000000000000000000e+00,-8.000000000000000000e+00,-7.000000000000000000e+00,-3.000000000000000000e+00,-4.000000000000000000e+00,-2.000000000000000000e+00,-4.395751953125000000e-01,2.963867187500000000e-01,6.558837890625000000e-01,5.372924804687500000e-01
-4.000000000000000000e+00,-4.000000000000000000e+00,-1.000000000000000000e+00,2.000000000000000000e+00,-2.000000000000000000e+00,2.000000000000000000e+00,5.000000000000000000e+00,2.000000000000000000e+00,-4.394531250000000000e-01,2.965087890625000000e-01,6.557617187500000000e-01,5.374755859375000000e-01
1.000000000000000000e+00,-3.000000000000000000e+00,-3.000000000000000000e+00,-4.000000000000000000e+00,-1.000000000000000000e+00,-2.000000000000000000e+00,-3.000000000000000000e+00,3.000000000000000000e+00,-4.394531250000000000e-01,2.965087890625000000e-01,6.557617187500000000e-01,5.374755859375000000e-01
-6.000000000000000000e+00,-5.000000000000000000e+00,-4.000000000000000000e+00,0.000000000000000000e+00,-3.000000000000000000e+00,-5.000000000000000000e+00,-9.000000000000000000e+00,-5.000000000000000000e+00,-4.394531250000000000e-01,2.965087890625000000e-01,6.557617187500000000e-01,5.374755859375000000e-01
7.000000000000000000e+00,2.000000000000000000e+00,-2.000000000000000000e+00,4.000000000000000000e+00,4.000000000000000000e+00,3.000000000000000000e+00,2.000000000000000000e+00,-1.000000000000000000e+00,-4.394531250000000000e-01,2.965087890625000000e-01,6.557617187500000000e-01,5.374755859375000000e-01
-4.000000000000000000e+00,1.000000000000000000e+00,0.000000000000000000e+00,-9.000000000000000000e+00,-8.000000000000000000e+00,-3.000000000000000000e+00,-2.000000000000000000e+00,-2.000000000000000000e+00,-4.398803710937500000e-01,2.960815429687500000e-01,6.558227539062500000e-01,5.372924804687500000e-01
-2.000000000000000000e+00,-1.000000000000000000e+00,-2.000000000000000000e+00,0.000000000000000000e+00,1.000000000000000000e+00,-2.000000000000000000e+00,1.000000000000000000e+00,1.000000000000000000e+00,-4.398803710937500000e-01,2.960815429687500000e-01,6.558227539062500000e-01,5.372924804687500000e-01
-6.000000000000000000e+00,-6.000000000000000000e+00,0.000000000000000000e+00,-1.400000000000000000e+01,-3.000000000000000000e+00,-5.000000000000000000e+00,-7.000000000000000000e+00,-3.000000000000000000e+00,-4.398803710937500000e-01,2.960815429687500000e-01,6.558227539062500000e-01,5.372924804687500000e-01
-5.000000000000000000e+00,-2.000000000000000000e+00,-4.000000000000000000e+00,2.200000000000000000e+01,9.000000000000000000e+00,2.000000000000000000e+00,5.000000000000000000e+00,2.000000000000000000e+00,-4.398803710937500000e-01,2.960815429687500000e-01,6.558227539062500000e-01,5.372924804687500000e-01
1.600000000000000000e+01,2.000000000000000000e+00,3.000000000000000000e+00,-8.000000000000000000e+00,-7.000000000000000000e+00,1.000000000000000000e+00,-3.000000000000000000e+00,2.000000000000000000e+00,-4.402465820312500000e-01,2.959594726562500000e-01,6.555175781250000000e-01,5.374145507812500000e-01
-2.000000000000000000e+00,-4.000000000000000000e+00,2.000000000000000000e+00,-6.000000000000000000e+00,-1.000000000000000000e+00,-3.000000000000000000e+00,-5.000000000000000000e+00,-4.000000000000000000e+00,-4.402465820312500000e-01,2.959594726562500000e-01,6.555175781250000000e-01,5.374145507812500000e-01
-6.000000000000000000e+00,-6.000000000000000000e+00,-7.000000000000000000e+00,-5.000000000000000000e+00,-4.000000000000000000e+00,-7.000000000000000000e+00,1.400000000000000000e+01,-2.000000000000000000e+00,-4.402465820312500000e-01,2.959594726562500000e-01,6.555175781250000000e-01,5.374145507812500000e-01
-6.000000000000000000e+00,-1.000000000000000000e+00,3.000000000000000000e+00,-1.000000000000000000e+01,-4.000000000000000000e+00,3.000000000000000000e+00,-2.000000000000000000e+00,-3.000000000000000000e+00,-4.402465820312500000e-01,2.959594726562500000e-01,6.555175781250000000e-01,5.374145507812500000e-01
-5.000000000000000000e+00,-2.000000000000000000e+00,-1.000000000000000000e+00,8.000000000000000000e+00,7.000000000000000000e+00,-6.000000000000000000e+00,-1.000000000000000000e+00,-2.000000000000000000e+00,-4.406738281250000000e-01,2.960205078125000000e-01,6.547851562500000000e-01,5.379638671875000000e-01
4.000000000000000000e+00,5.000000000000000000e+00,1.000000000000000000e+00,-5.000000000000000000e+00,-2.000000000000000000e+00,-1.000000000000000000e+00,-3.000000000000000000e+00,-1.000000000000000000e+00,-4.406738281250000000e-01,2.960205078125000000e-01,6.547851562500000000e-01,5.379638671875000000e-01
-9.000000000000000000e+00,0.000000000000000000e+00,-9.000000000000000000e+00,1.100000000000000000e+01,1.000000000000000000e+00,-5.000000000000000000e+00,0.000000000000000000e+00,-5.000000000000000000e+00,-4.406738281250000000e-01,2.960205078125000000e-01,6.547851562500000000e-01,5.379638671875000000e-01
-1.200000000000000000e+01,-3.000000000000000000e+00,5.000000000000000000e+00,-8.000000000000000000e+00,-9.000000000000000000e+00,-4.000000000000000000e+00,-1.000000000000000000e+00,1.000000000000000000e+00,-4.406738281250000000e-01,2.960205078125000000e-01,6.547851562500000000e-01,5.379638671875000000e-01
1.700000000000000000e+01,2.000000000000000000e+00,2.000000000000000000e+00,3.000000000000000000e+00,-3.000000000000000000e+00,6.000000000000000000e+00,8.000000000000000000e+00,4.000000000000000000e+00,-4.409790039062500000e-01,2.961425781250000000e-01,6.541137695312500000e-01,5.384521484375000000e-01
3.000000000000000000e+00,0.000000000000000000e+00,-1.000000000000000000e+00,-8.000000000000000000e+00,-4.000000000000000000e+00,-5.000000000000000000e+00,-7.000000000000000000e+00,0.000000000000000000e+00,-4.409790039062500000e-01,2.961425781250000000e-01,6.541137695312500000e-01,5.384521484375000000e-01
-6.000000000000000000e+00,-3.000000000000000000e+00,-4.000000000000000000e+00,3.000000000000000000e+00,-1.000000000000000000e+00,0.000000000000000000e+00,-4.000000000000000000e+00,2.000000000000000000e+00,-4.409790039062500000e-01,2.961425781250000000e-01,6.541137695312500000e-01,5.384521484375000000e-01
1.000000000000000000e+00,1.000000000000000000e+00,3.000000000000000000e+00,-5.000000000000000000e+00,-5.000000000000000000e+00,-2.000000000000000000e+00,5.000000000000000000e+00,0.000000000000000000e+00,-4.409790039062500000e-01,2.961425781250000000e-01,6.541137695312500000e-01,5.384521484375000000e-01
-1.400000000000000000e+01,-1.000000000000000000e+00,-6.000000000000000000e+00,1.200000000000000000e+01,1.300000000000000000e+01,3.000000000000000000e+00,-1.600000000000000000e+01,-9.000000000000000000e+00,-4.411010742187500000e-01,2.962646484375000000e-01,6.536865234375000000e-01,5.388183593750000000e-01
9.000000000000000000e+00,0.000000000000000000e+00,4.000000000000000000e+00,-1.000000000000000000e+00,-6.000000000000000000e+00,-3.000000000000000000e+00,5.000000000000000000e+00,-2.000000000000000000e+00,-4.411010742187500000e-01,2.962646484375000000e-01,6.536865234375000000e-01,5.388183593750000000e-01
7.000000000000000000e+00,5.000000000000000000e+00,3.000000000000000000e+00,3.000000000000000000e+00,-1.000000000000000000e+00,3.000000000000000000e+00,-1.000000000000000000e+00,5.000000000000000000e+00,-4.411010742187500000e-01,2.962646484375000000e-01,6.536865234375000000e-01,5.388183593750000000e-01
1.000000000000000000e+00,-4.000000000000000000e+00,0.000000000000000000e+00,-6.000000000000000000e+00,-3.000000000000000000e+00,-2.000000000000000000e+00,8.000000000000000000e+00,1.000000000000000000e+00,-4.411010742187500000e-01,2.962646484375000000e-01,6.536865234375000000e-01,5.388183593750000000e-01
-9.000000000000000000e+00,0.000000000000000000e+00,-1.000000000000000000e+00,-4.000000000000000000e+00,-1.000000000000000000e+00,-4.000000000000000000e+00,-1.700000000000000000e+01,-1.000000000000000000e+00,-4.412841796875000000e-01,2.963867187500000000e-01,6.532592773437500000e-01,5.391235351562500000e-01
-8.000000000000000000e+00,-3.000000000000000000e+00,0.000000000000000000e+00,-2.000000000000000000e+00,2.000000000000000000e+00,2.000000000000000000e+00,4.000000000000000000e+00,-8.000000000000000000e+00,-4.412841796875000000e-01,2.963867187500000000e-01,6.532592773437500000e-01,5.391235351562500000e-01
2.400000000000000000e+01,3.000000000000000000e+00,-1.000000000000000000e+00,-3.000000000000000000e+00,-1.000000000000000000e+00,3.000000000000000000e+00,6.000000000000000000e+00,6.000000000000000000e+00,-4.412841796875000000e-01,2.963867187500000000e-01,6.532592773437500000e-01,5.391235351562500000e-01
0.000000000000000000e+00,-5.000000000000000000e+00,-1.000000000000000000e+00,-1.000000000000000000e+00,2.000000000000000000e+00,-2.000000000000000000e+00,-6.000000000000000000e+00,4.000000000000000000e+00,-4.412841796875000000e-01,2.963867187500000000e-01,6.532592773437500000e-01,5.391235351562500000e-01
-2.000000000000000000e+00,5.000000000000000000e+00,0.000000000000000000e+00,-4.000000000000000000e+00,2.000000000000000000e+00,-1.000000000000000000e+00,-2.000000000000000000e+00,-3.000000000000000000e+00,-4.412231445312500000e-01,2.961425781250000000e-01,6.530761718750000000e-01,5.394897460937500000e-01
-4.000000000000000000e+00,1.000000000000000000e+00,3.000000000000000000e+00,-2.000000000000000000e+00,-5.000000000000000000e+00,-6.000000000000000000e+00,-2.000000000000000000e+00,0.000000000000000000e+00,-4.412231445312500000e-01,2.961425781250000000e-01,6.530761718750000000e-01,5.394897460937500000e-01
-7.000000000000000000e+00,-4.000000000000000000e+00,5.000000000000000000e+00,-2.000000000000000000e+00,-1.000000000000000000e+00,1.600000000000000000e+01,-1.900000000000000000e+01,-7.000000000000000000e+00,-4.412231445312500000e-01,2.961425781250000000e-01,6.530761718750000000e-01,5.394897460937500000e-01
2.000000000000000000e+00,1.000000000000000000e+00,1.000000000000000000e+00,-5.000000000000000000e+00,-5.000000000000000000e+00,-6.000000000000000000e+00,-6.000000000000000000e+00,-6.000000000000000000e+00,-4.412231445312500000e-01,2.961425781250000000e-01,6.530761718750000000e-01,5.394897460937500000e-01
-1.200000000000000000e+01,-2.000000000000000000e+00,2.000000000000000000e+00,-3.000000000000000000e+00,-8.000000000000000000e+00,-5.000000000000000000e+00,-3.000000000000000000e+00,-7.000000000000000000e+00,-4.411010742187500000e-01,2.958984375000000000e-01,6.529541015625000000e-01,5.398559570312500000e-01
1.100000000000000000e+01,1.000000000000000000e+00,8.000000000000000000e+00,1.200000000000000000e+01,8.000000000000000000e+00,3.000000000000000000e+00,9.000000000000000000e+00,1.700000000000000000e+01,-4.411010742187500000e-01,2.958984375000000000e-01,6.529541015625000000e-01,5.398559570312500000e-01
1.000000000000000000e+00,-4.000000000000000000e+00,0.000000000000000000e+00,-5.000000000000000000e+00,-3.000000000000000000e+00,5.000000000000000000e+00,1.000000000000000000e+00,-7.000000000000000000e+00,-4.411010742187500000e-01,2.958984375000000000e-01,6.529541015625000000e-01,5.398559570312500000e-01
5.000000000000000000e+00,-1.000000000000000000e+00,-6.000000000000000000e+00,3.000000000000000000e+00,0.000000000000000000e+00,-2.000000000000000000e+00,-3.000000000000000000e+00,-4.000000000000000000e+00,-4.411010742187500000e-01,2.958984375000000000e-01,6.529541015625000000e-01,5.398559570312500000e-01
2.000000000000000000e+00,-4.000000000000000000e+00,7.000000000000000000e+00,0.000000000000000000e+00,-5.000000000000000000e+00,3.000000000000000000e+00,0.000000000000000000e+00,2.000000000000000000e+00,-4.407958984375000000e-01,2.959594726562500000e-01,6.528930664062500000e-01,5.402221679687500000e-01
-4.000000000000000000e+00,-2.000000000000000000e+00,-1.100000000000000000e+01,-4.000000000000000000e+00,-1.000000000000000000e+00,-3.000000000000000000e+00,-1.000000000000000000e+00,-8.000000000000000000e+00,-4.407958984375000000e-01,2.959594726562500000e-01,6.528930664062500000e-01,5.402221679687500000e-01
-1.900000000000000000e+01,-2.000000000000000000e+00,2.000000000000000000e+00,-1.200000000000000000e+01,-5.000000000000000000e+00,-5.000000000000000000e+00,0.000000000000000000e+00,-1.000000000000000000e+00,-4.407958984375000000e-01,2.959594726562500000e-01,6.528930664062500000e-01,5.402221679687500000e-01
1.700000000000000000e+01,2.000000000000000000e+00,0.000000000000000000e+00,2.300000000000000000e+01,1.800000000000000000e+01,6.000000000000000000e+00,-1.000000000000000000e+00,1.000000000000000000e+00,-4.407958984375000000e-01,2.959594726562500000e-01,6.528930664062500000e-01,5.402221679687500000e-01
-5.000000000000000000e+00,-3.000000000000000000e+00,-1.000000000000000000e+00,-7.000000000000000000e+00,0.000000000000000000e+00,-2.000000000000000000e+00,7.000000000000000000e+00,4.000000000000000000e+00,-4.406127929687500000e-01,2.958984375000000000e-01,6.528320312500000000e-01,5.404663085937500000e-01
-4.000000000000000000e+00,-2.000000000000000000e+00,8.000000000000000000e+00,-2.000000000000000000e+00,-3.000000000000000000e+00,1.000000000000000000e+00,-5.000000000000000000e+00,-2.000000000000000000e+00,-4.406127929687500000e-01,2.958984375000000000e-01,6.528320312500000000e-01,5.404663085937500000e-01
6.000000000000000000e+00,-2.000000000000000000e+00,1.000000000000000000e+00,4.000000000000000000e+00,-1.000000000000000000e+00,-3.000000000000000000e+00,1.000000000000000000e+00,2.000000000000000000e+00,-4.406127929687500000e-01,2.958984375000000000e-01,6.528320312500000000e-01,5.404663085937500000e-01
-2.700000000000000000e+01,-2.000000000000000000e+00,-8.000000000000000000e+00,-1.100000000000000000e+01,-7.000000000000000000e+00,-1.000000000000000000e+00,-9.000000000000000000e+00,-1.200000000000000000e+01,-4.406127929687500000e-01,2.958984375000000000e-01,6.528320312500000000e-01,5.404663085937500000e-01
2.800000000000000000e+01,6.000000000000000000e+00,-2.000000000000000000e+00,-3.000000000000000000e+00,-1.000000000000000000e+00,-5.000000000000000000e+00,4.000000000000000000e+00,7.000000000000000000e+00,-4.401245117187500000e-01,2.958984375000000000e-01,6.527099609375000000e-01,5.408935546875000000e-01
-1.300000000000000000e+01,-2.000000000000000000e+00,-3.000000000000000000e+00,6.000000000000000000e+00,5.000000000000000000e+00,1.000000000000000000e+01,1.400000000000000000e+01,6.000000000000000000e+00,-4.401245117187500000e-01,2.958984375000000000e-01,6.527099609375000000e-01,5.408935546875000000e-01
2.000000000000000000e+00,3.000000000000000000e+00,-2.000000000000000000e+00,1.000000000000000000e+00,-5.000000000000000000e+00,-8.000000000000000000e+00,-3.400000000000000000e+01,-4.000000000000000000e+00,-4.401245117187500000e-01,2.958984375000000000e-01,6.527099609375000000e-01,5.408935546875000000e-01
-6.000000000000000000e+00,2.000000000000000000e+00,7.000000000000000000e+00,-8.000000000000000000e+00,-5.000000000000000000e+00,-3.000000000000000000e+00,1.000000000000000000e+01,-2.000000000000000000e+00,-4.401245117187500000e-01,2.958984375000000000e-01,6.527099609375000000e-01,5.408935546875000000e-01
7.000000000000000000e+00,1.000000000000000000e+00,-3.000000000000000000e+00,0.000000000000000000e+00,-6.000000000000000000e+00,-6.000000000000000000e+00,-1.300000000000000000e+01,1.000000000000000000e+00,-4.398193359375000000e-01,2.955322265625000000e-01,6.529541015625000000e-01,5.410766601562500000e-01
-8.000000000000000000e+00,1.000000000000000000e+00,-3.000000000000000000e+00,-2.000000000000000000e+00,-2.000000000000000000e+00,-6.000000000000000000e+00,-3.000000000000000000e+00,-7.000000000000000000e+00,-4.398193359375000000e-01,2.955322265625000000e-01,6.529541015625000000e-01,5.410766601562500000e-01
1.500000000000000000e+01,1.000000000000000000e+00,5.000000000000000000e+00,-6.000000000000000000e+00,-6.000000000000000000e+00,-4.000000000000000000e+00,4.000000000000000000e+00,-1.000000000000000000e+00,-4.398193359375000000e-01,2.955322265625000000e-01,6.529541015625000000e-01,5.410766601562500000e-01
1.000000000000000000e+00,-2.000000000000000000e+00,3.000000000000000000e+00,2.000000000000000000e+00,1.000000000000000000e+00,4.000000000000000000e+00,6.000000000000000000e+00,1.200000000000000000e+01,-4.398193359375000000e-01,2.955322265625000000e-01,6.529541015625000000e-01,5.410766601562500000e-01
-6.000000000000000000e+00,2.000000000000000000e+00,-1.000000000000000000e+00,-6.000000000000000000e+00,-7.000000000000000000e+00,-6.000000000000000000e+00,-4.000000000000000000e+00,-5.000000000000000000e+00,-4.396972656250000000e-01,2.951049804687500000e-01,6.531982421875000000e-01,5.411987304687500000e-01
-6.000000000000000000e+00,-8.000000000000000000e+00,-1.000000000000000000e+00,5.000000000000000000e+00,1.000000000000000000e+00,-4.000000000000000000e+00,-7.000000000000000000e+00,-9.000000000000000000e+00,-4.396972656250000000e-01,2.951049804687500000e-01,6.531982421875000000e-01,5.411987304687500000e-01
-2.300000000000000000e+01,5.000000000000000000e+00,1.000000000000000000e+00,0.000000000000000000e+00,-6.000000000000000000e+00,-2.000000000000000000e+00,-3.000000000000000000e+00,-5.000000000000000000e+00,-4.396972656250000000e-01,2.951049804687500000e-01,6.531982421875000000e-01,5.411987304687500000e-01
2.200000000000000000e+01,-1.000000000000000000e+00,-4.000000000000000000e+00,-1.400000000000000000e+01,-8.000000000000000000e+00,-3.000000000000000000e+00,-5.000000000000000000e+00,3.000000000000000000e+00,-4.396972656250000000e-01,2.951049804687500000e-01,6.531982421875000000e-01,5.411987304687500000e-01
-1.000000000000000000e+01,-6.000000000000000000e+00,6.000000000000000000e+00,1.100000000000000000e+01,2.000000000000000000e+00,1.000000000000000000e+01,1.000000000000000000e+01,-2.000000000000000000e+00,-4.397583007812500000e-01,2.947998046875000000e-01,6.530761718750000000e-01,5.414428710937500000e-01
1.000000000000000000e+00,1.000000000000000000e+00,-7.000000000000000000e+00,-7.000000000000000000e+00,-1.000000000000000000e+01,-6.000000000000000000e+00,-1.000000000000000000e+01,-1.000000000000000000e+00,-4.397583007812500000e-01,2.947998046875000000e-01,6.530761718750000000e-01,5.414428710937500000e-01
-1.800000000000000000e+01,4.000000000000000000e+00,0.000000000000000000e+00,-1.100000000000000000e+01,-2.000000000000000000e+00,-3.000000000000000000e+00,1.000000000000000000e+00,-1.000000000000000000e+01,-4.397583007812500000e-01,2.947998046875000000e-01,6.530761718750000000e-01,5.414428710937500000e-01
3.300000000000000000e+01,-6.000000000000000000e+00,-2.000000000000000000e+00,2.800000000000000000e+01,2.200000000000000000e+01,1.100000000000000000e+01,1.400000000000000000e+01,1.800000000000000000e+01,-4.397583007812500000e-01,2.947998046875000000e-01,6.530761718750000000e-01,5.414428710937500000e-01
-9.000000000000000000e+00,2.000000000000000000e+00,-2.000000000000000000e+00,-1.000000000000000000e+01,-1.000000000000000000e+00,-2.000000000000000000e+00,-3.000000000000000000e+00,-7.000000000000000000e+00,-4.396362304687500000e-01,2.948608398437500000e-01,6.530151367187500000e-01,5.415649414062500000e-01
8.000000000000000000e+00,1.000000000000000000e+00,-7.000000000000000000e+00,5.000000000000000000e+00,-3.000000000000000000e+00,3.000000000000000000e+00,2.000000000000000000e+00,2.000000000000000000e+00,-4.396362304687500000e-01,2.948608398437500000e-01,6.530151367187500000e-01,5.415649414062500000e-01
-1.200000000000000000e+01,-7.000000000000000000e+00,-5.000000000000000000e+00,-5.000000000000000000e+00,-1.000000000000000000e+00,-1.000000000000000000e+00,-2.000000000000000000e+00,-6.000000000000000000e+00,-4.396362304687500000e-01,2.948608398437500000e-01,6.530151367187500000e-01,5.415649414062500000e-01
-7.000000000000000000e+00,4.000000000000000000e+00,-6.000000000000000000e+00,-5.000000000000000000e+00,-4.000000000000000000e+00,0.000000000000000000e+00,-8.000000000000000000e+00,-7.000000000000000000e+00,-4.396362304687500000e-01,2.948608398437500000e-01,6.530151367187500000e-01,5.415649414062500000e-01
1.000000000000000000e+00,1.000000000000000000e+00,-1.000000000000000000e+00,-6.000000000000000000e+00,-4.000000000000000000e+00,2.000000000000000000e+00,1.000000000000000000e+01,5.000000000000000000e+00,-4.393920898437500000e-01,2.953491210937500000e-01,6.527099609375000000e-01,5.418701171875000000e-01
9.000000000000000000e+00,-3.000000000000000000e+00,1.000000000000000000e+00,4.000000000000000000e+00,8.000000000000000000e+00,-4.000000000000000000e+00,-1.700000000000000000e+01,-2.000000000000000000e+00,-4.393920898437500000e-01,2.953491210937500000e-01,6.527099609375000000e-01,5.418701171875000000e-01
3.000000000000000000e+00,0.000000000000000000e+00,-8.000000000000000000e+00,4.000000000000000000e+00,3.000000000000000000e+00,0.000000000000000000e+00,1.200000000000000000e+01,7.000000000000000000e+00,-4.393920898437500000e-01,2.953491210937500000e-01,6.527099609375000000e-01,5.418701171875000000e-01
1.200000000000000000e+01,0.000000000000000000e+00,3.000000000000000000e+00,-8.000000000000000000e+00,-8.000000000000000000e+00,-8.000000000000000000e+00,-2.000000000000000000e+00,-1.000000000000000000e+00,-4.393920898437500000e-01,2.953491210937500000e-01,6.527099609375000000e-01,5.418701171875000000e-01
-1.100000000000000000e+01,-4.000000000000000000e+00,-8.000000000000000000e+00,8.000000000000000000e+00,4.000000000000000000e+00,3.000000000000000000e+00,-1.000000000000000000e+00,-4.000000000000000000e+00,-4.393920898437500000e-01,2.951660156250000000e-01,6.524658203125000000e-01,5.422363281250000000e-01
3.000000000000000000e+00,2.000000000000000000e+00,-2.000000000000000000e+00,-1.100000000000000000e+01,-2.000000000000000000e+00,3.000000000000000000e+00,-1.000000000000000000e+00,5.000000000000000000e+00,-4.393920898437500000e-01,2.951660156250000000e-01,6.524658203125000000e-01,5.422363281250000000e-01
-5.000000000000000000e+00,-1.000000000000000000e+00,-5.000000000000000000e+00,6.000000000000000000e+00,2.000000000000000000e+00,-4.000000000000000000e+00,2.000000000000000000e+00,-1.000000000000000000e+00,-4.393920898437500000e-01,2.951660156250000000e-01,6.524658203125000000e-01,5.422363281250000000e-01
-2.100000000000000000e+01,-4.000000000000000000e+00,4.000000000000000000e+00,-6.000000000000000000e+00,-5.000000000000000000e+00,2.000000000000000000e+00,9.000000000000000000e+00,-1.000000000000000000e+01,-4.393920898437500000e-01,2.951660156250000000e-01,6.524658203125000000e-01,5.422363281250000000e-01
1.500000000000000000e+01,1.000000000000000000e+00,-1.000000000000000000e+00,-1.000000000000000000e+01,-4.000000000000000000e+00,2.000000000000000000e+00,-1.300000000000000000e+01,-1.000000000000000000e+00,-4.391479492187500000e-01,2.948608398437500000e-01,6.524047851562500000e-01,5.427246093750000000e-01
-6.000000000000000000e+00,-7.000000000000000000e+00,4.000000000000000000e+00,2.000000000000000000e+00,2.000000000000000000e+00,-3.000000000000000000e+00,8.000000000000000000e+00,6.000000000000000000e+00,-4.391479492187500000e-01,2.948608398437500000e-01,6.524047851562500000e-01,5.427246093750000000e-01
-8.000000000000000000e+00,-5.000000000000000000e+00,2.000000000000000000e+00,6.000000000000000000e+00,-1.000000000000000000e+00,2.000000000000000000e+00,-3.000000000000000000e+00,5.000000000000000000e+00,-4.391479492187500000e-01,2.948608398437500000e-01,6.524047851562500000e-01,5.427246093750000000e-01
2.000000000000000000e+00,-1.000000000000000000e+01,-2.000000000000000000e+00,-1.000000000000000000e+01,-9.000000000000000000e+00,-5.000000000000000000e+00,-8.000000000000000000e+00,-1.000000000000000000e+01,-4.391479492187500000e-01,2.948608398437500000e-01,6.524047851562500000e-01,5.427246093750000000e-01
-8.000000000000000000e+00,2.000000000000000000e+00,-6.000000000000000000e+00,-1.200000000000000000e+01,-5.000000000000000000e+00,-5.000000000000000000e+00,6.000000000000000000e+00,-3.000000000000000000e+00,-4.393310546875000000e-01,2.941894531250000000e-01,6.524658203125000000e-01,5.428466796875000000e-01
2.000000000000000000e+00,3.000000000000000000e+00,2.000000000000000000e+00,2.100000000000000000e+01,1.400000000000000000e+01,5.000000000000000000e+00,3.000000000000000000e+00,-4.000000000000000000e+00,-4.393310546875000000e-01,2.941894531250000000e-01,6.524658203125000000e-01,5.428466796875000000e-01
5.000000000000000000e+00,-2.000000000000000000e+00,-1.000000000000000000e+00,-1.000000000000000000e+01,-4.000000000000000000e+00,0.000000000000000000e+00,1.000000000000000000e+00,1.000000000000000000e+00,-4.393310546875000000e-01,2.941894531250000000e-01,6.524658203125000000e-01,5.428466796875000000e-01
-1.400000000000000000e+01,-1.000000000000000000e+00,0.000000000000000000e+00,1.000000000000000000e+01,2.000000000000000000e+00,0.000000000000000000e+00,-4.000000000000000000e+00,1.000000000000000000e+00,-4.393310546875000000e-01,2.941894531250000000e-01,6.524658203125000000e-01,5.428466796875000000e-01
4.000000000000000000e+00,-4.000000000000000000e+00,-7.000000000000000000e+00,-1.500000000000000000e+01,-6.000000000000000000e+00,-3.000000000000000000e+00,-4.000000000000000000e+00,0.000000000000000000e+00,-4.394531250000000000e-01,2.940063476562500000e-01,6.521606445312500000e-01,5.432128906250000000e-01
-6.000000000000000000e+00,-4.000000000000000000e+00,-1.000000000000000000e+00,-8.000000000000000000e+00,-4.000000000000000000e+00,1.000000000000000000e+00,0.000000000000000000e+00,-1.000000000000000000e+00,-4.394531250000000000e-01,2.940063476562500000e-01,6.521606445312500000e-01,5.432128906250000000e-01
1.600000000000000000e+01,1.000000000000000000e+00,-4.000000000000000000e+00,1.000000000000000000e+00,-1.000000000000000000e+00,0.000000000000000000e+00,3.000000000000000000e+00,0.000000000000000000e+00,-4.394531250000000000e-01,2.940063476562500000e-01,6.521606445312500000e-01,5.432128906250000000e-01
6.000000000000000000e+00,0.000000000000000000e+00,-1.000000000000000000e+00,1.200000000000000000e+01,8.000000000000000000e+00,2.000000000000000000e+00,-5.000000000000000000e+00,1.000000000000000000e+00,-4.394531250000000000e-01,2.940063476562500000e-01,6.521606445312500000e-01,5.432128906250000000e-01
-9.000000000000000000e+00,-2.000000000000000000e+00,-2.000000000000000000e+00,4.000000000000000000e+00,2.000000000000000000e+00,1.000000000000000000e+00,6.000000000000000000e+00,-3.000000000000000000e+00,-4.392700195312500000e-01,2.943725585937500000e-01,6.517333984375000000e-01,5.436401367187500000e-01
5.000000000000000000e+00,0.000000000000000000e+00,-5.000000000000000000e+00,-5.000000000000000000e+00,-2.000000000000000000e+00,-3.000000000000000000e+00,-5.000000000000000000e+00,-4.000000000000000000e+00,-4.392700195312500000e-01,2.943725585937500000e-01,6.517333984375000000e-01,5.436401367187500000e-01
8.000000000000000000e+00,-6.000000000000000000e+00,-4.000000000000000000e+00,-1.000000000000000000e+00,9.000000000000000000e+00,-1.000000000000000000e+00,5.000000000000000000e+00,1.000000000000000000e+01,-4.392700195312500000e-01,2.943725585937500000e-01,6.517333984375000000e-01,5.436401367187500000e-01
-2.000000000000000000e+00,0.000000000000000000e+00,3.000000000000000000e+00,-5.000000000000000000e+00,-5.000000000000000000e+00,0.000000000000000000e+00,-7.000000000000000000e+00,-7.000000000000000000e+00,-4.392700195312500000e-01,2.943725585937500000e-01,6.517333984375000000e-01,5.436401367187500000e-01
2.000000000000000000e+00,5.000000000000000000e+00,1.000000000000000000e+00,1.000000000000000000e+01,8.000000000000000000e+00,-1.000000000000000000e+00,0.000000000000000000e+00,7.000000000000000000e+00,-4.396972656250000000e-01,2.938842773437500000e-01,6.514892578125000000e-01,5.438842773437500000e-01
-2.000000000000000000e+01,-8.000000000000000000e+00,-3.000000000000000000e+00,-1.000000000000000000e+01,-6.000000000000000000e+00,2.000000000000000000e+00,-6.000000000000000000e+00,-1.400000000000000000e+01,-4.396972656250000000e-01,2.938842773437500000e-01,6.514892578125000000e-01,5.438842773437500000e-01
7.000000000000000000e+00,3.000000000000000000e+00,4.000000000000000000e+00,-4.000000000000000000e+00,-5.000000000000000000e+00,-4.000000000000000000e+00,1.400000000000000000e+01,-2.000000000000000000e+00,-4.396972656250000000e-01,2.938842773437500000e-01,6.514892578125000000e-01,5.438842773437500000e-01
-8.000000000000000000e+00,-1.000000000000000000e+00,-8.000000000000000000e+00,-5.000000000000000000e+00,-6.000000000000000000e+00,-5.000000000000000000e+00,-1.800000000000000000e+01,0.000000000000000000e+00,-4.396972656250000000e-01,2.938842773437500000e-01,6.514892578125000000e-01,5.438842773437500000e-01
-4.000000000000000000e+00,2.000000000000000000e+00,1.000000000000000000e+00,3.000000000000000000e+00,0.000000000000000000e+00,-8.000000000000000000e+00,2.000000000000000000e+00,-4.000000000000000000e+00,-4.398803710937500000e-01,2.932739257812500000e-01,6.511840820312500000e-01,5.443725585937500000e-01
-1.000000000000000000e+00,2.000000000000000000e+00,3.000000000000000000e+00,-1.000000000000000000e+00,-2.000000000000000000e+00,1.000000000000000000e+00,9.000000000000000000e+00,8.000000000000000000e+00,-4.398803710937500000e-01,2.932739257812500000e-01,6.511840820312500000e-01,5.443725585937500000e-01
2.000000000000000000e+00,1.000000000000000000e+00,-1.000000000000000000e+00,3.000000000000000000e+00,3.000000000000000000e+00,6.000000000000000000e+00,3.000000000000000000e+00,-1.000000000000000000e+00,-4.398803710937500000e-01,2.932739257812500000e-01,6.511840820312500000e-01,5.443725585937500000e-01
-8.000000000000000000e+00,1.000000000000000000e+00,-6.000000000000000000e+00,-1.000000000000000000e+01,-5.000000000000000000e+00,-2.000000000000000000e+00,2.000000000000000000e+00,-3.000000000000000000e+00,-4.398803710937500000e-01,2.932739257812500000e-01,6.511840820312500000e-01,5.443725585937500000e-01
-2.000000000000000000e+00,-1.000000000000000000e+00,0.000000000000000000e+00,-6.000000000000000000e+00,-3.000000000000000000e+00,1.000000000000000000e+00,-7.000000000000000000e+00,-8.000000000000000000e+00,-4.399414062500000000e-01,2.929687500000000000e-01,6.510620117187500000e-01,5.446166992187500000e-01
6.000000000000000000e+00,-5.000000000000000000e+00,-4.000000000000000000e+00,6.000000000000000000e+00,2.000000000000000000e+00,-4.000000000000000000e+00,3.000000000000000000e+00,3.000000000000000000e+00,-4.399414062500000000e-01,2.929687500000000000e-01,6.510620117187500000e-01,5.446166992187500000e-01
-8.000000000000000000e+00,-2.000000000000000000e+00,2.000000000000000000e+00,-4.000000000000000000e+00,0.000000000000000000e+00,0.000000000000000000e+00,-7.000000000000000000e+00,-5.000000000000000000e+00,-4.399414062500000000e-01,2.929687500000000000e-01,6.510620117187500000e-01,5.446166992187500000e-01
2.200000000000000000e+01,4.000000000000000000e+00,2.000000000000000000e+00,-1.900000000000000000e+01,-1.600000000000000000e+01,-3.000000000000000000e+00,3.000000000000000000e+00,8.000000000000000000e+00,-4.399414062500000000e-01,2.929687500000000000e-01,6.510620117187500000e-01,5.446166992187500000e-01
-9.000000000000000000e+00,-5.000000000000000000e+00,-2.000000000000000000e+00,1.600000000000000000e+01,7.000000000000000000e+00,4.000000000000000000e+00,-2.000000000000000000e+00,0.000000000000000000e+00,-4.400024414062500000e-01,2.929687500000000000e-01,6.508789062500000000e-01,5.447998046875000000e-01
1.000000000000000000e+01,4.000000000000000000e+00,0.000000000000000000e+00,-7.000000000000000000e+00,-4.000000000000000000e+00,2.000000000000000000e+00,-3.000000000000000000e+00,1.000000000000000000e+00,-4.400024414062500000e-01,2.929687500000000000e-01,6.508789062500000000e-01,5.447998046875000000e-01
-1.700000000000000000e+01,-2.000000000000000000e+00,1.000000000000000000e+00,-6.000000000000000000e+00,-5.000000000000000000e+00,-1.000000000000000000e+00,-7.000000000000000000e+00,-4.000000000000000000e+00,-4.400024414062500000e-01,2.929687500000000000e-01,6.508789062500000000e-01,5.447998046875000000e-01
1.000000000000000000e+00,-4.000000000000000000e+00,-2.000000000000000000e+00,6.000000000000000000e+00,5.000000000000000000e+00,2.000000000000000000e+00,2.000000000000000000e+00,-3.000000000000000000e+00,-4.400024414062500000e-01,2.929687500000000000e-01,6.508789062500000000e-01,5.447998046875000000e-01
2.000000000000000000e+00,-2.000000000000000000e+00,6.000000000000000000e+00,-3.000000000000000000e+00,-3.000000000000000000e+00,-4.000000000000000000e+00,0.000000000000000000e+00,-5.000000000000000000e+00,-4.397583007812500000e-01,2.933959960937500000e-01,6.505126953125000000e-01,5.452270507812500000e-01
1.000000000000000000e+01,2.000000000000000000e+00,4.000000000000000000e+00,-8.000000000000000000e+00,-6.000000000000000000e+00,-1.000000000000000000e+00,3.000000000000000000e+00,7.000000000000000000e+00,-4.397583007812500000e-01,2.933959960937500000e-01,6.505126953125000000e-01,5.452270507812500000e-01
5.000000000000000000e+00,4.000000000000000000e+00,-4.000000000000000000e+00,9.000000000000000000e+00,5.000000000000000000e+00,0.000000000000000000e+00,-2.000000000000000000e+00,-1.000000000000000000e+00,-4.397583007812500000e-01,2.933959960937500000e-01,6.505126953125000000e-01,5.452270507812500000e-01
-1.300000000000000000e+01,2.000000000000000000e+00,-1.000000000000000000e+00,-1.100000000000000000e+01,-4.000000000000000000e+00,-3.000000000000000000e+00,-2.000000000000000000e+00,-3.000000000000000000e+00,-4.397583007812500000e-01,2.933959960937500000e-01,6.505126953125000000e-01,5.452270507812500000e-01
4.000000000000000000e+00,-3.000000000000000000e+00,6.000000000000000000e+00,7.000000000000000000e+00,3.000000000000000000e+00,-3.000000000000000000e+00,-1.000000000000000000e+00,-4.000000000000000000e+00,-4.398803710937500000e-01,2.931518554687500000e-01,6.501464843750000000e-01,5.457153320312500000e-01
-4.000000000000000000e+00,2.000000000000000000e+00,0.000000000000000000e+00,-4.000000000000000000e+00,-5.000000000000000000e+00,-6.000000000000000000e+00,0.000000000000000000e+00,-3.000000000000000000e+00,-4.398803710937500000e-01,2.931518554687500000e-01,6.501464843750000000e-01,5.457153320312500000e-01
1.000000000000000000e+00,-9.000000000000000000e+00,3.000000000000000000e+00,-6.000000000000000000e+00,-5.000000000000000000e+00,9.000000000000000000e+00,0.000000000000000000e+00,-3.000000000000000000e+00,-4.398803710937500000e-01,2.931518554687500000e-01,6.501464843750000000e-01,5.457153320312500000e-01
-4.000000000000000000e+00,5.000000000000000000e+00,2.000000000000000000e+00,4.000000000000000000e+00,6.000000000000000000e+00,3.000000000000000000e+00,1.000000000000000000e+00,3.000000000000000000e+00,-4.398803710937500000e-01,2.931518554687500000e-01,6.501464843750000000e-01,5.457153320312500000e-01
1.000000000000000000e+00,-5.000000000000000000e+00,-9.000000000000000000e+00,-5.000000000000000000e+00,-5.000000000000000000e+00,-5.000000000000000000e+00,-5.000000000000000000e+00,-2.000000000000000000e+00,-4.396972656250000000e-01,2.927246093750000000e-01,6.500854492187500000e-01,5.462036132812500000e-01
-1.500000000000000000e+01,0.000000000000000000e+00,-1.000000000000000000e+00,0.000000000000000000e+00,-1.000000000000000000e+00,-1.000000000000000000e+00,-1.000000000000000000e+00,-5.000000000000000000e+00,-4.396972656250000000e-01,2.927246093750000000e-01,6.500854492187500000e-01,5.462036132812500000e-01
8.000000000000000000e+00,2.000000000000000000e+00,1.000000000000000000e+00,0.000000000000000000e+00,-2.000000000000000000e+00,-6.000000000000000000e+00,0.000000000000000000e+00,7.000000000000000000e+00,-4.396972656250000000e-01,2.927246093750000000e-01,6.500854492187500000e-01,5.462036132812500000e-01
-2.000000000000000000e+00,-3.000000000000000000e+00,-3.000000000000000000e+00,-3.000000000000000000e+00,4.000000000000000000e+00,1.000000000000000000e+00,1.000000000000000000e+00,-5.000000000000000000e+00,-4.396972656250000000e-01,2.927246093750000000e-01,6.500854492187500000e-01,5.462036132812500000e-01
-7.000000000000000000e+00,-1.000000000000000000e+00,4.000000000000000000e+00,0.000000000000000000e+00,-1.000000000000000000e+00,4.000000000000000000e+00,4.000000000000000000e+00,0.000000000000000000e+00,-4.398803710937500000e-01,2.921752929687500000e-01,6.501464843750000000e-01,5.462036132812500000e-01
-2.000000000000000000e+00,-4.000000000000000000e+00,-2.000000000000000000e+00,3.000000000000000000e+00,-2.000000000000000000e+00,-4.000000000000000000e+00,-8.000000000000000000e+00,-3.000000000000000000e+00,-4.398803710937500000e-01,2.921752929687500000e-01,6.501464843750000000e-01,5.462036132812500000e-01
-1.100000000000000000e+01,-3.000000000000000000e+00,-2.000000000000000000e+00,-5.000000000000000000e+00,-2.000000000000000000e+00,-6.000000000000000000e+00,-3.000000000000000000e+00,-2.000000000000000000e+00,-4.398803710937500000e-01,2.921752929687500000e-01,6.501464843750000000e-01,5.462036132812500000e-01
1.300000000000000000e+01,3.000000000000000000e+00,4.000000000000000000e+00,1.200000000000000000e+01,9.000000000000000000e+00,2.000000000000000000e+00,0.000000000000000000e+00,2.000000000000000000e+00,-4.398803710937500000e-01,2.921752929687500000e-01,6.501464843750000000e-01,5.462036132812500000e-01
-3.000000000000000000e+00,1.000000000000000000e+00,-4.000000000000000000e+00,-1.800000000000000000e+01,-1.400000000000000000e+01,-4.000000000000000000e+00,1.000000000000000000e+00,5.000000000000000000e+00,-4.402465820312500000e-01,2.918701171875000000e-01,6.502075195312500000e-01,5.460205078125000000e-01
-9.000000000000000000e+00,-2.000000000000000000e+00,4.000000000000000000e+00,1.300000000000000000e+01,1.200000000000000000e+01,5.000000000000000000e+00,0.000000000000000000e+00,-4.000000000000000000e+00,-4.402465820312500000e-01,2.918701171875000000e-01,6.502075195312500000e-01,5.460205078125000000e-01
7.000000000000000000e+00,1.000000000000000000e+00,6.000000000000000000e+00,7.000000000000000000e+00,-2.000000000000000000e+00,-4.000000000000000000e+00,-4.000000000000000000e+00,-2.000000000000000000e+00,-4.402465820312500000e-01,2.918701171875000000e-01,6.502075195312500000e-01,5.460205078125000000e-01
-1.200000000000000000e+01,-6.000000000000000000e+00,-7.000000000000000000e+00,-7.000000000000000000e+00,-6.000000000000000000e+00,-3.000000000000000000e+00,1.000000000000000000e+00,-2.000000000000000000e+00,-4.402465820312500000e-01,2.918701171875000000e-01,6.502075195312500000e-01,5.460205078125000000e-01
1.600000000000000000e+01,0.000000000000000000e+00,1.000000000000000000e+00,-1.000000000000000000e+00,1.000000000000000000e+00,2.000000000000000000e+00,0.000000000000000000e+00,8.000000000000000000e+00,-4.401855468750000000e-01,2.919311523437500000e-01,6.500244140625000000e-01,5.463256835937500000e-01
-1.000000000000000000e+00,1.000000000000000000e+00,3.000000000000000000e+00,-5.000000000000000000e+00,-1.000000000000000000e+01,-3.000000000000000000e+00,4.000000000000000000e+00,-1.000000000000000000e+00,-4.401855468750000000e-01,2.919311523437500000e-01,6.500244140625000000e-01,5.463256835937500000e-01
-8.000000000000000000e+00,-1.000000000000000000e+00,0.000000000000000000e+00,-8.000000000000000000e+00,-2.000000000000000000e+00,-3.000000000000000000e+00,-8.000000000000000000e+00,-5.000000000000000000e+00,-4.401855468750000000e-01,2.919311523437500000e-01,6.500244140625000000e-01,5.463256835937500000e-01
-8.000000000000000000e+00,2.000000000000000000e+00,3.000000000000000000e+00,1.600000000000000000e+01,8.000000000000000000e+00,-1.000000000000000000e+00,0.000000000000000000e+00,-2.000000000000000000e+00,-4.401855468750000000e-01,2.919311523437500000e-01,6.500244140625000000e-01,5.463256835937500000e-01
7.000000000000000000e+00,0.000000000000000000e+00,-2.000000000000000000e+00,5.000000000000000000e+00,8.000000000000000000e+00,1.000000000000000000e+00,1.100000000000000000e+01,6.000000000000000000e+00,-4.400634765625000000e-01,2.916870117187500000e-01,6.497192382812500000e-01,5.468750000000000000e-01
-2.000000000000000000e+00,-2.000000000000000000e+00,-2.000000000000000000e+00,-2.000000000000000000e+00,-3.000000000000000000e+00,-2.000000000000000000e+00,-2.300000000000000000e+01,-3.000000000000000000e+00,-4.400634765625000000e-01,2.916870117187500000e-01,6.497192382812500000e-01,5.468750000000000000e-01
2.000000000000000000e+00,-2.000000000000000000e+00,3.000000000000000000e+00,0.000000000000000000e+00,-1.000000000000000000e+00,0.000000000000000000e+00,-4.000000000000000000e+00,-3.000000000000000000e+00,-4.400634765625000000e-01,2.916870117187500000e-01,6.497192382812500000e-01,5.468750000000000000e-01
5.000000000000000000e+00,-2.000000000000000000e+00,-3.000000000000000000e+00,-3.000000000000000000e+00,-5.000000000000000000e+00,0.000000000000000000e+00,1.000000000000000000e+00,8.000000000000000000e+00,-4.400634765625000000e-01,2.916870117187500000e-01,6.497192382812500000e-01,5.468750000000000000e-01
-8.000000000000000000e+00,-4.000000000000000000e+00,0.000000000000000000e+00,-2.000000000000000000e+00,1.000000000000000000e+00,1.200000000000000000e+01,1.400000000000000000e+01,0.000000000000000000e+00,-4.400634765625000000e-01,2.915039062500000000e-01,6.495361328125000000e-01,5.471801757812500000e-01
-1.200000000000000000e+01,-1.000000000000000000e+00,-2.000000000000000000e+00,7.000000000000000000e+00,5.000000000000000000e+00,-3.000000000000000000e+00,2.000000000000000000e+00,-6.000000000000000000e+00,-4.400634765625000000e-01,2.915039062500000000e-01,6.495361328125000000e-01,5.471801757812500000e-01
1.800000000000000000e+01,2.000000000000000000e+00,-4.000000000000000000e+00,1.000000000000000000e+00,0.000000000000000000e+00,7.000000000000000000e+00,-8.000000000000000000e+00,1.000000000000000000e+00,-4.400634765625000000e-01,2.915039062500000000e-01,6.495361328125000000e-01,5.471801757812500000e-01
-2.000000000000000000e+00,1.000000000000000000e+00,1.000000000000000000e+00,-5.000000000000000000e+00,-7.000000000000000000e+00,-5.000000000000000000e+00,1.000000000000000000e+00,-2.000000000000000000e+00,-4.400634765625000000e-01,2.915039062500000000e-01,6.495361328125000000e-01,5.471801757812500000e-01
-3.000000000000000000e+00,1.000000000000000000e+00,2.000000000000000000e+00,4.000000000000000000e+00,1.000000000000000000e+00,-2.000000000000000000e+00,-2.100000000000000000e+01,-1.000000000000000000e+00,-4.402465820312500000e-01,2.910766601562500000e-01,6.496582031250000000e-01,5.471191406250000000e-01
-2.000000000000000000e+00,-7.000000000000000000e+00,-3.000000000000000000e+00,-1.500000000000000000e+01,-7.000000000000000000e+00,-1.000000000000000000e+00,8.000000000000000000e+00,-1.000000000000000000e+00,-4.402465820312500000e-01,2.910766601562500000e-01,6.496582031250000000e-01,5.471191406250000000e-01
1.000000000000000000e+00,1.000000000000000000e+00,-6.000000000000000000e+00,1.000000000000000000e+01,2.000000000000000000e+00,-1.000000000000000000e+00,3.000000000000000000e+00,1.000000000000000000e+00,-4.402465820312500000e-01,2.910766601562500000e-01,6.496582031250000000e-01,5.471191406250000000e-01
-9.000000000000000000e+00,0.000000000000000000e+00,-7.000000000000000000e+00,-9.000000000000000000e+00,-9.000000000000000000e+00,-6.000000000000000000e+00,-2.000000000000000000e+00,-4.000000000000000000e+00,-4.402465820312500000e-01,2.910766601562500000e-01,6.496582031250000000e-01,5.471191406250000000e-01
-6.000000000000000000e+00,0.000000000000000000e+00,5.000000000000000000e+00,1.500000000000000000e+01,7.000000000000000000e+00,5.000000000000000000e+00,6.000000000000000000e+00,-2.000000000000000000e+00,-4.405517578125000000e-01,2.905883789062500000e-01,6.496582031250000000e-01,5.471191406250000000e-01
1.400000000000000000e+01,3.000000000000000000e+00,-2.000000000000000000e+00,-1.000000000000000000e+01,-6.000000000000000000e+00,-1.000000000000000000e+00,-1.000000000000000000e+00,7.000000000000000000e+00,-4.405517578125000000e-01,2.905883789062500000e-01,6.496582031250000000e-01,5.471191406250000000e-01
-6.000000000000000000e+00,-9.000000000000000000e+00,-1.000000000000000000e+00,-3.000000000000000000e+00,1.000000000000000000e+00,-4.000000000000000000e+00,-2.000000000000000000e+00,-3.000000000000000000e+00,-4.405517578125000000e-01,2.905883789062500000e-01,6.496582031250000000e-01,5.471191406250000000e-01
-1.600000000000000000e+01,-6.000000000000000000e+00,0.000000000000000000e+00,2.000000000000000000e+00,-1.000000000000000000e+00,-1.000000000000000000e+00,-3.000000000000000000e+00,-7.000000000000000000e+00,-4.405517578125000000e-01,2.905883789062500000e-01,6.496582031250000000e-01,5.471191406250000000e-01
2.000000000000000000e+01,2.000000000000000000e+00,-8.000000000000000000e+00,-5.000000000000000000e+00,-4.000000000000000000e+00,-5.000000000000000000e+00,-2.000000000000000000e+00,3.000000000000000000e+00,-4.403076171875000000e-01,2.906494140625000000e-01,6.495971679687500000e-01,5.473022460937500000e-01
-5.000000000000000000e+00,-2.000000000000000000e+00,-1.000000000000000000e+00,0.000000000000000000e+00,-1.000000000000000000e+00,-3.000000000000000000e+00,-7.000000000000000000e+00,-7.000000000000000000e+00,-4.403076171875000000e-01,2.906494140625000000e-01,6.495971679687500000e-01,5.473022460937500000e-01
-2.000000000000000000e+00,0.000000000000000000e+00,0.000000000000000000e+00,5.000000000000000000e+00,3.000000000000000000e+00,3.000000000000000000e+00,8.000000000000000000e+00,-1.000000000000000000e+00,-4.403076171875000000e-01,2.906494140625000000e-01,6.495971679687500000e-01,5.473022460937500000e-01
-2.000000000000000000e+00,0.000000000000000000e+00,-4.000000000000000000e+00,-1.100000000000000000e+01,-5.000000000000000000e+00,-7.000000000000000000e+00,-4.000000000000000000e+00,-4.000000000000000000e+00,-4.403076171875000000e-01,2.906494140625000000e-01,6.495971679687500000e-01,5.473022460937500000e-01
-1.400000000000000000e+01,-9.000000000000000000e+00,1.000000000000000000e+00,0.000000000000000000e+00,0.000000000000000000e+00,6.000000000000000000e+00,1.000000000000000000e+00,-2.000000000000000000e+00,-4.400634765625000000e-01,2.907104492187500000e-01,6.495361328125000000e-01,5.476074218750000000e-01
7.000000000000000000e+00,0.000000000000000000e+00,-2.000000000000000000e+00,1.000000000000000000e+00,0.000000000000000000e+00,0.000000000000000000e+00,2.000000000000000000e+00,1.000000000000000000e+00,-4.400634765625000000e-01,2.907104492187500000e-01,6.495361328125000000e-01,5.476074218750000000e-01
4.000000000000000000e+00,3.000000000000000000e+00,-2.000000000000000000e+00,-4.000000000000000000e+00,2.000000000000000000e+00,-6.000000000000000000e+00,2.000000000000000000e+00,-1.000000000000000000e+00,-4.400634765625000000e-01,2.907104492187500000e-01,6.495361328125000000e-01,5.476074218750000000e-01
-5.000000000000000000e+00,-2.000000000000000000e+00,5.000000000000000000e+00,0.000000000000000000e+00,-2.000000000000000000e+00,1.400000000000000000e+01,-1.700000000000000000e+01,-9.000000000000000000e+00,-4.400634765625000000e-01,2.907104492187500000e-01,6.495361328125000000e-01,5.476074218750000000e-01
-2.000000000000000000e+00,0.000000000000000000e+00,-1.000000000000000000e+00,0.000000000000000000e+00,-3.000000000000000000e+00,-1.100000000000000000e+01,-2.000000000000000000e+00,3.000000000000000000e+00,-4.397583007812500000e-01,2.904052734375000000e-01,6.495971679687500000e-01,5.479125976562500000e-01
7.000000000000000000e+00,-3.000000000000000000e+00,0.000000000000000000e+00,0.000000000000000000e+00,1.000000000000000000e+00,-1.000000000000000000e+00,-1.900000000000000000e+01,4.000000000000000000e+00,-4.397583007812500000e-01,2.904052734375000000e-01,6.495971679687500000e-01,5.479125976562500000e-01
