-9.000000000000000000e+00,-8.000000000000000000e+00,5.000000000000000000e+00,-2.000000000000000000e+00,-2.000000000000000000e+00,-8.000000000000000000e+00,-6.000000000000000000e+00,-1.000000000000000000e+00,1.217041015625000000e-01,-5.519409179687500000e-01,-1.347656250000000000e-01,-8.139038085937500000e-01
1.100000000000000000e+01,1.000000000000000000e+01,2.500000000000000000e+01,1.100000000000000000e+01,6.000000000000000000e+00,6.000000000000000000e+00,2.800000000000000000e+01,1.500000000000000000e+01,1.217041015625000000e-01,-5.519409179687500000e-01,-1.347656250000000000e-01,-8.139038085937500000e-01
-2.000000000000000000e+00,-1.300000000000000000e+01,-5.100000000000000000e+01,-1.600000000000000000e+01,-1.300000000000000000e+01,-2.000000000000000000e+00,-2.000000000000000000e+00,-5.000000000000000000e+00,1.217041015625000000e-01,-5.519409179687500000e-01,-1.347656250000000000e-01,-8.139038085937500000e-01
-1.000000000000000000e+01,-1.000000000000000000e+00,-1.500000000000000000e+01,4.000000000000000000e+00,9.000000000000000000e+00,2.000000000000000000e+00,-3.000000000000000000e+00,-3.000000000000000000e+00,1.217041015625000000e-01,-5.519409179687500000e-01,-1.347656250000000000e-01,-8.139038085937500000e-01
1.100000000000000000e+01,2.000000000000000000e+00,8.000000000000000000e+00,-1.000000000000000000e+00,2.000000000000000000e+00,0.000000000000000000e+00,1.000000000000000000e+00,-2.000000000000000000e+00,1.221313476562500000e-01,-5.514526367187500000e-01,-1.347045898437500000e-01,-8.142089843750000000e-01
-4.000000000000000000e+00,-2.000000000000000000e+00,-1.300000000000000000e+01,-2.000000000000000000e+01,-1.400000000000000000e+01,-3.000000000000000000e+00,3.000000000000000000e+00,-2.000000000000000000e+00,1.221313476562500000e-01,-5.514526367187500000e-01,-1.347045898437500000e-01,-8.142089843750000000e-01
2.700000000000000000e+01,1.500000000000000000e+01,4.000000000000000000e+01,3.900000000000000000e+01,0.000000000000000000e+00,-4.000000000000000000e+00,0.000000000000000000e+00,2.000000000000000000e+00,1.221313476562500000e-01,-5.514526367187500000e-01,-1.347045898437500000e-01,-8.142089843750000000e-01
-3.200000000000000000e+01,-6.000000000000000000e+00,3.000000000000000000e+00,-1.800000000000000000e+01,-1.000000000000000000e+01,-1.000000000000000000e+00,-3.000000000000000000e+00,1.000000000000000000e+00,1.221313476562500000e-01,-5.514526367187500000e-01,-1.347045898437500000e-01,-8.142089843750000000e-01
7.000000000000000000e+00,4.000000000000000000e+00,-1.400000000000000000e+01,8.000000000000000000e+00,6.000000000000000000e+00,0.000000000000000000e+00,-3.000000000000000000e+00,-2.000000000000000000e+00,1.228027343750000000e-01,-5.509643554687500000e-01,-1.347045898437500000e-01,-8.144531250000000000e-01
1.000000000000000000e+00,1.000000000000000000e+00,-2.300000000000000000e+01,-1.200000000000000000e+01,-2.000000000000000000e+00,-1.300000000000000000e+01,-4.000000000000000000e+00,0.000000000000000000e+00,1.228027343750000000e-01,-5.509643554687500000e-01,-1.347045898437500000e-01,-8.144531250000000000e-01
-7.000000000000000000e+00,-3.000000000000000000e+00,2.600000000000000000e+01,2.000000000000000000e+00,-1.000000000000000000e+00,1.700000000000000000e+01,4.000000000000000000e+00,-1.000000000000000000e+00,1.228027343750000000e-01,-5.509643554687500000e-01,-1.347045898437500000e-01,-8.144531250000000000e-01
1.100000000000000000e+01,-3.000000000000000000e+00,-7.000000000000000000e+00,8.000000000000000000e+00,-1.000000000000000000e+00,-3.000000000000000000e+00,1.000000000000000000e+00,-7.000000000000000000e+00,1.228027343750000000e-01,-5.509643554687500000e-01,-1.347045898437500000e-01,-8.144531250000000000e-01
-5.000000000000000000e+00,-6.000000000000000000e+00,6.000000000000000000e+00,-4.000000000000000000e+00,0.000000000000000000e+00,4.000000000000000000e+00,-1.000000000000000000e+00,2.000000000000000000e+00,1.234741210937500000e-01,-5.506591796875000000e-01,-1.344604492187500000e-01,-8.145751953125000000e-01
-4.000000000000000000e+00,4.000000000000000000e+00,-7.000000000000000000e+00,-2.000000000000000000e+00,-1.000000000000000000e+00,-5.000000000000000000e+00,-1.100000000000000000e+01,3.000000000000000000e+00,1.234741210937500000e-01,-5.506591796875000000e-01,-1.344604492187500000e-01,-8.145751953125000000e-01
7.000000000000000000e+00,0.000000000000000000e+00,1.300000000000000000e+01,-5.000000000000000000e+00,0.000000000000000000e+00,-6.000000000000000000e+00,-5.000000000000000000e+00,-6.000000000000000000e+00,1.234741210937500000e-01,-5.506591796875000000e-01,-1.344604492187500000e-01,-8.145751953125000000e-01
-4.000000000000000000e+00,-3.000000000000000000e+00,-1.200000000000000000e+01,3.000000000000000000e+00,-3.000000000000000000e+00,2.000000000000000000e+00,5.000000000000000000e+00,-2.000000000000000000e+00,1.234741210937500000e-01,-5.506591796875000000e-01,-1.344604492187500000e-01,-8.145751953125000000e-01
-5.000000000000000000e+00,-1.200000000000000000e+01,3.000000000000000000e+00,-1.300000000000000000e+01,-7.000000000000000000e+00,-3.000000000000000000e+00,1.000000000000000000e+00,-2.000000000000000000e+00,1.239624023437500000e-01,-5.504150390625000000e-01,-1.345825195312500000e-01,-8.146362304687500000e-01
4.000000000000000000e+00,8.000000000000000000e+00,-1.700000000000000000e+01,4.000000000000000000e+00,3.000000000000000000e+00,1.000000000000000000e+00,-1.300000000000000000e+01,-9.000000000000000000e+00,1.239624023437500000e-01,-5.504150390625000000e-01,-1.345825195312500000e-01,-8.146362304687500000e-01
-4.000000000000000000e+00,-5.000000000000000000e+00,-3.200000000000000000e+01,-1.400000000000000000e+01,-3.000000000000000000e+00,-2.000000000000000000e+00,-4.000000000000000000e+00,0.000000000000000000e+00,1.239624023437500000e-01,-5.504150390625000000e-01,-1.345825195312500000e-01,-8.146362304687500000e-01
4.000000000000000000e+00,3.000000000000000000e+00,4.400000000000000000e+01,8.000000000000000000e+00,-1.000000000000000000e+00,0.000000000000000000e+00,3.000000000000000000e+00,-3.000000000000000000e+00,1.239624023437500000e-01,-5.504150390625000000e-01,-1.345825195312500000e-01,-8.146362304687500000e-01
1.900000000000000000e+01,2.000000000000000000e+00,1.400000000000000000e+01,8.000000000000000000e+00,2.000000000000000000e+00,-5.000000000000000000e+00,-2.000000000000000000e+00,1.000000000000000000e+00,1.246948242187500000e-01,-5.502319335937500000e-01,-1.348876953125000000e-01,-8.145751953125000000e-01
-1.900000000000000000e+01,-1.100000000000000000e+01,6.000000000000000000e+00,-2.000000000000000000e+00,-1.000000000000000000e+00,2.000000000000000000e+00,-2.000000000000000000e+00,-6.000000000000000000e+00,1.246948242187500000e-01,-5.502319335937500000e-01,-1.348876953125000000e-01,-8.145751953125000000e-01
-7.000000000000000000e+00,-2.000000000000000000e+00,-4.000000000000000000e+00,0.000000000000000000e+00,0.000000000000000000e+00,-3.000000000000000000e+00,3.000000000000000000e+00,3.000000000000000000e+00,1.246948242187500000e-01,-5.502319335937500000e-01,-1.348876953125000000e-01,-8.145751953125000000e-01
2.000000000000000000e+00,1.000000000000000000e+00,-6.000000000000000000e+00,9.000000000000000000e+00,-1.000000000000000000e+01,-1.200000000000000000e+01,-5.000000000000000000e+00,2.000000000000000000e+00,1.246948242187500000e-01,-5.502319335937500000e-01,-1.348876953125000000e-01,-8.145751953125000000e-01
5.000000000000000000e+00,-4.000000000000000000e+00,-2.700000000000000000e+01,-9.000000000000000000e+00,6.000000000000000000e+00,1.900000000000000000e+01,1.200000000000000000e+01,4.000000000000000000e+00,1.250610351562500000e-01,-5.501098632812500000e-01,-1.352539062500000000e-01,-8.145751953125000000e-01
2.000000000000000000e+00,4.000000000000000000e+00,7.000000000000000000e+00,6.000000000000000000e+00,-2.000000000000000000e+00,0.000000000000000000e+00,4.000000000000000000e+00,2.000000000000000000e+00,1.250610351562500000e-01,-5.501098632812500000e-01,-1.352539062500000000e-01,-8.145751953125000000e-01
5.000000000000000000e+00,6.000000000000000000e+00,3.000000000000000000e+00,-4.000000000000000000e+00,-1.000000000000000000e+00,-5.000000000000000000e+00,-6.000000000000000000e+00,0.000000000000000000e+00,1.250610351562500000e-01,-5.501098632812500000e-01,-1.352539062500000000e-01,-8.145751953125000000e-01
-1.000000000000000000e+01,-7.000000000000000000e+00,-7.000000000000000000e+00,0.000000000000000000e+00,-2.000000000000000000e+00,-1.000000000000000000e+00,-1.600000000000000000e+01,-1.300000000000000000e+01,1.250610351562500000e-01,-5.501098632812500000e-01,-1.352539062500000000e-01,-8.145751953125000000e-01
2.700000000000000000e+01,1.300000000000000000e+01,5.000000000000000000e+00,-6.000000000000000000e+00,-1.200000000000000000e+01,-5.000000000000000000e+00,5.000000000000000000e+00,9.000000000000000000e+00,1.252441406250000000e-01,-5.498046875000000000e-01,-1.357421875000000000e-01,-8.146362304687500000e-01
-2.000000000000000000e+00,-5.000000000000000000e+00,-3.000000000000000000e+00,8.000000000000000000e+00,6.000000000000000000e+00,9.000000000000000000e+00,1.600000000000000000e+01,1.200000000000000000e+01,1.252441406250000000e-01,-5.498046875000000000e-01,-1.357421875000000000e-01,-8.146362304687500000e-01
-3.000000000000000000e+00,-5.000000000000000000e+00,0.000000000000000000e+00,-2.000000000000000000e+00,0.000000000000000000e+00,-4.000000000000000000e+00,-6.000000000000000000e+00,-3.000000000000000000e+00,1.252441406250000000e-01,-5.498046875000000000e-01,-1.357421875000000000e-01,-8.146362304687500000e-01
-2.000000000000000000e+00,-1.000000000000000000e+00,-3.000000000000000000e+00,-1.200000000000000000e+01,-4.000000000000000000e+00,-7.000000000000000000e+00,-1.000000000000000000e+01,-1.000000000000000000e+01,1.252441406250000000e-01,-5.498046875000000000e-01,-1.357421875000000000e-01,-8.146362304687500000e-01
-3.000000000000000000e+00,-2.000000000000000000e+00,-3.200000000000000000e+01,-1.000000000000000000e+01,-6.000000000000000000e+00,-1.000000000000000000e+01,-1.100000000000000000e+01,-6.000000000000000000e+00,1.257934570312500000e-01,-5.494384765625000000e-01,-1.361694335937500000e-01,-8.147583007812500000e-01
-3.000000000000000000e+00,0.000000000000000000e+00,3.200000000000000000e+01,4.000000000000000000e+00,-1.000000000000000000e+00,0.000000000000000000e+00,3.000000000000000000e+00,-2.000000000000000000e+00,1.257934570312500000e-01,-5.494384765625000000e-01,-1.361694335937500000e-01,-8.147583007812500000e-01
1.400000000000000000e+01,1.000000000000000000e+00,-2.100000000000000000e+01,-5.000000000000000000e+00,2.000000000000000000e+00,-3.000000000000000000e+00,4.000000000000000000e+00,5.000000000000000000e+00,1.257934570312500000e-01,-5.494384765625000000e-01,-1.361694335937500000e-01,-8.147583007812500000e-01
1.000000000000000000e+00,0.000000000000000000e+00,3.100000000000000000e+01,1.300000000000000000e+01,8.000000000000000000e+00,8.000000000000000000e+00,4.000000000000000000e+00,0.000000000000000000e+00,1.257934570312500000e-01,-5.494384765625000000e-01,-1.361694335937500000e-01,-8.147583007812500000e-01
-2.600000000000000000e+01,-7.000000000000000000e+00,-1.000000000000000000e+00,0.000000000000000000e+00,1.000000000000000000e+00,-1.000000000000000000e+00,2.000000000000000000e+00,-6.000000000000000000e+00,1.259765625000000000e-01,-5.493774414062500000e-01,-1.365966796875000000e-01,-8.146972656250000000e-01
2.000000000000000000e+00,-6.000000000000000000e+00,-1.200000000000000000e+01,-7.000000000000000000e+00,-6.000000000000000000e+00,-4.000000000000000000e+00,-1.000000000000000000e+01,-8.000000000000000000e+00,1.259765625000000000e-01,-5.493774414062500000e-01,-1.365966796875000000e-01,-8.146972656250000000e-01
-5.000000000000000000e+00,1.200000000000000000e+01,1.000000000000000000e+00,-1.100000000000000000e+01,-2.000000000000000000e+00,-1.000000000000000000e+00,2.000000000000000000e+00,1.000000000000000000e+00,1.259765625000000000e-01,-5.493774414062500000e-01,-1.365966796875000000e-01,-8.146972656250000000e-01
1.000000000000000000e+00,-3.000000000000000000e+00,-1.800000000000000000e+01,5.000000000000000000e+00,3.000000000000000000e+00,1.000000000000000000e+00,5.000000000000000000e+00,3.000000000000000000e+00,1.259765625000000000e-01,-5.493774414062500000e-01,-1.365966796875000000e-01,-8.146972656250000000e-01
-1.200000000000000000e+01,-3.000000000000000000e+00,1.700000000000000000e+01,-3.000000000000000000e+00,0.000000000000000000e+00,-3.000000000000000000e+00,-1.600000000000000000e+01,-1.200000000000000000e+01,1.259155273437500000e-01,-5.494384765625000000e-01,-1.372680664062500000e-01,-8.145751953125000000e-01
2.000000000000000000e+00,-1.000000000000000000e+00,-1.000000000000000000e+00,9.000000000000000000e+00,-2.000000000000000000e+00,-7.000000000000000000e+00,-3.000000000000000000e+00,-3.000000000000000000e+00,1.259155273437500000e-01,-5.494384765625000000e-01,-1.372680664062500000e-01,-8.145751953125000000e-01
2.100000000000000000e+01,2.000000000000000000e+00,3.100000000000000000e+01,1.400000000000000000e+01,1.700000000000000000e+01,-3.000000000000000000e+00,0.000000000000000000e+00,1.000000000000000000e+00,1.259155273437500000e-01,-5.494384765625000000e-01,-1.372680664062500000e-01,-8.145751953125000000e-01
-8.000000000000000000e+00,-4.000000000000000000e+00,-3.300000000000000000e+01,-3.300000000000000000e+01,-3.000000000000000000e+00,1.600000000000000000e+01,8.000000000000000000e+00,-3.000000000000000000e+00,1.259155273437500000e-01,-5.494384765625000000e-01,-1.372680664062500000e-01,-8.145751953125000000e-01
2.000000000000000000e+00,0.000000000000000000e+00,4.000000000000000000e+00,1.600000000000000000e+01,-1.000000000000000000e+00,-5.000000000000000000e+00,2.000000000000000000e+00,6.000000000000000000e+00,1.251831054687500000e-01,-5.498657226562500000e-01,-1.373901367187500000e-01,-8.143920898437500000e-01
0.000000000000000000e+00,-1.000000000000000000e+00,1.500000000000000000e+01,8.000000000000000000e+00,-4.000000000000000000e+00,-1.000000000000000000e+00,-1.400000000000000000e+01,-1.500000000000000000e+01,1.251831054687500000e-01,-5.498657226562500000e-01,-1.373901367187500000e-01,-8.143920898437500000e-01
-5.000000000000000000e+00,-8.000000000000000000e+00,-2.700000000000000000e+01,-1.500000000000000000e+01,-6.000000000000000000e+00,0.000000000000000000e+00,3.000000000000000000e+00,5.000000000000000000e+00,1.251831054687500000e-01,-5.498657226562500000e-01,-1.373901367187500000e-01,-8.143920898437500000e-01
2.000000000000000000e+00,2.000000000000000000e+00,3.000000000000000000e+00,7.000000000000000000e+00,5.000000000000000000e+00,-3.000000000000000000e+00,3.000000000000000000e+00,9.000000000000000000e+00,1.251831054687500000e-01,-5.498657226562500000e-01,-1.373901367187500000e-01,-8.143920898437500000e-01
-1.000000000000000000e+01,-8.000000000000000000e+00,-3.000000000000000000e+00,-8.000000000000000000e+00,-7.000000000000000000e+00,-3.000000000000000000e+00,-1.100000000000000000e+01,-7.000000000000000000e+00,1.248779296875000000e-01,-5.504150390625000000e-01,-1.378173828125000000e-01,-8.139648437500000000e-01
6.000000000000000000e+00,1.000000000000000000e+00,-3.000000000000000000e+00,-4.000000000000000000e+00,2.000000000000000000e+00,3.000000000000000000e+00,-1.000000000000000000e+00,-3.000000000000000000e+00,1.248779296875000000e-01,-5.504150390625000000e-01,-1.378173828125000000e-01,-8.139648437500000000e-01
-1.000000000000000000e+01,-4.000000000000000000e+00,-2.000000000000000000e+00,4.000000000000000000e+00,-5.000000000000000000e+00,-1.400000000000000000e+01,-9.000000000000000000e+00,-6.000000000000000000e+00,1.248779296875000000e-01,-5.504150390625000000e-01,-1.378173828125000000e-01,-8.139648437500000000e-01
4.000000000000000000e+00,-6.000000000000000000e+00,-6.000000000000000000e+00,-3.000000000000000000e+00,1.000000000000000000e+00,1.900000000000000000e+01,1.800000000000000000e+01,5.000000000000000000e+00,1.248779296875000000e-01,-5.504150390625000000e-01,-1.378173828125000000e-01,-8.139648437500000000e-01
-6.000000000000000000e+00,8.000000000000000000e+00,1.700000000000000000e+01,1.000000000000000000e+00,0.000000000000000000e+00,1.000000000000000000e+00,-1.000000000000000000e+00,-1.000000000000000000e+00,1.256103515625000000e-01,-5.505981445312500000e-01,-1.383666992187500000e-01,-8.136596679687500000e-01
4.000000000000000000e+00,-5.000000000000000000e+00,-6.700000000000000000e+01,-1.500000000000000000e+01,-2.000000000000000000e+00,-6.000000000000000000e+00,-6.000000000000000000e+00,-3.000000000000000000e+00,1.256103515625000000e-01,-5.505981445312500000e-01,-1.383666992187500000e-01,-8.136596679687500000e-01
-1.800000000000000000e+01,-5.000000000000000000e+00,5.600000000000000000e+01,2.000000000000000000e+00,-1.000000000000000000e+00,1.000000000000000000e+00,-4.000000000000000000e+00,-2.000000000000000000e+00,1.256103515625000000e-01,-5.505981445312500000e-01,-1.383666992187500000e-01,-8.136596679687500000e-01
9.000000000000000000e+00,-4.000000000000000000e+00,-3.500000000000000000e+01,-1.300000000000000000e+01,-1.000000000000000000e+01,-1.000000000000000000e+01,-7.000000000000000000e+00,-3.000000000000000000e+00,1.256103515625000000e-01,-5.505981445312500000e-01,-1.383666992187500000e-01,-8.136596679687500000e-01
-3.000000000000000000e+00,-9.000000000000000000e+00,1.000000000000000000e+00,1.100000000000000000e+01,4.000000000000000000e+00,-3.000000000000000000e+00,-5.000000000000000000e+00,-7.000000000000000000e+00,1.262207031250000000e-01,-5.507812500000000000e-01,-1.383056640625000000e-01,-8.134155273437500000e-01
5.000000000000000000e+00,4.000000000000000000e+00,-5.000000000000000000e+00,-2.200000000000000000e+01,-1.200000000000000000e+01,2.000000000000000000e+00,1.800000000000000000e+01,1.300000000000000000e+01,1.262207031250000000e-01,-5.507812500000000000e-01,-1.383056640625000000e-01,-8.134155273437500000e-01
-5.000000000000000000e+00,-6.000000000000000000e+00,1.000000000000000000e+00,1.100000000000000000e+01,3.000000000000000000e+00,3.000000000000000000e+00,0.000000000000000000e+00,0.000000000000000000e+00,1.262207031250000000e-01,-5.507812500000000000e-01,-1.383056640625000000e-01,-8.134155273437500000e-01
7.000000000000000000e+00,2.000000000000000000e+00,7.000000000000000000e+00,5.000000000000000000e+00,6.000000000000000000e+00,-6.000000000000000000e+00,-9.000000000000000000e+00,1.000000000000000000e+00,1.262207031250000000e-01,-5.507812500000000000e-01,-1.383056640625000000e-01,-8.134155273437500000e-01
-3.000000000000000000e+00,-1.000000000000000000e+01,-1.300000000000000000e+01,-1.600000000000000000e+01,-5.000000000000000000e+00,0.000000000000000000e+00,-5.000000000000000000e+00,-6.000000000000000000e+00,1.263427734375000000e-01,-5.510864257812500000e-01,-1.375122070312500000e-01,-8.133544921875000000e-01
-1.400000000000000000e+01,7.000000000000000000e+00,1.200000000000000000e+01,7.000000000000000000e+00,-2.000000000000000000e+00,-4.000000000000000000e+00,-1.000000000000000000e+00,-1.000000000000000000e+00,1.263427734375000000e-01,-5.510864257812500000e-01,-1.375122070312500000e-01,-8.133544921875000000e-01
-4.000000000000000000e+00,-3.000000000000000000e+00,-8.000000000000000000e+00,-1.100000000000000000e+01,-1.000000000000000000e+01,1.000000000000000000e+00,-1.000000000000000000e+00,-8.000000000000000000e+00,1.263427734375000000e-01,-5.510864257812500000e-01,-1.375122070312500000e-01,-8.133544921875000000e-01
3.000000000000000000e+00,4.000000000000000000e+00,-1.200000000000000000e+01,-1.900000000000000000e+01,-4.000000000000000000e+00,-3.000000000000000000e+00,-1.000000000000000000e+00,5.000000000000000000e+00,1.263427734375000000e-01,-5.510864257812500000e-01,-1.375122070312500000e-01,-8.133544921875000000e-01
-1.400000000000000000e+01,0.000000000000000000e+00,1.400000000000000000e+01,2.900000000000000000e+01,9.000000000000000000e+00,0.000000000000000000e+00,5.000000000000000000e+00,4.000000000000000000e+00,1.257324218750000000e-01,-5.513305664062500000e-01,-1.362915039062500000e-01,-8.134765625000000000e-01
6.000000000000000000e+00,-3.000000000000000000e+00,6.000000000000000000e+00,-2.000000000000000000e+00,0.000000000000000000e+00,0.000000000000000000e+00,-5.000000000000000000e+00,-6.000000000000000000e+00,1.257324218750000000e-01,-5.513305664062500000e-01,-1.362915039062500000e-01,-8.134765625000000000e-01
4.000000000000000000e+00,1.000000000000000000e+00,7.000000000000000000e+00,3.000000000000000000e+00,-3.000000000000000000e+00,6.000000000000000000e+00,5.000000000000000000e+00,1.000000000000000000e+00,1.257324218750000000e-01,-5.513305664062500000e-01,-1.362915039062500000e-01,-8.134765625000000000e-01
-1.200000000000000000e+01,-2.000000000000000000e+00,5.000000000000000000e+00,4.000000000000000000e+00,4.000000000000000000e+00,-5.000000000000000000e+00,-6.000000000000000000e+00,-3.000000000000000000e+00,1.257324218750000000e-01,-5.513305664062500000e-01,-1.362915039062500000e-01,-8.134765625000000000e-01
1.000000000000000000e+00,4.000000000000000000e+00,-1.500000000000000000e+01,-1.300000000000000000e+01,-6.000000000000000000e+00,-4.000000000000000000e+00,-1.000000000000000000e+00,4.000000000000000000e+00,1.255493164062500000e-01,-5.510253906250000000e-01,-1.357421875000000000e-01,-8.137817382812500000e-01
2.000000000000000000e+00,-1.000000000000000000e+00,5.000000000000000000e+00,-1.000000000000000000e+00,-1.000000000000000000e+00,-7.000000000000000000e+00,-3.000000000000000000e+00,0.000000000000000000e+00,1.255493164062500000e-01,-5.510253906250000000e-01,-1.357421875000000000e-01,-8.137817382812500000e-01
-3.000000000000000000e+00,7.000000000000000000e+00,1.800000000000000000e+01,1.600000000000000000e+01,1.000000000000000000e+01,2.300000000000000000e+01,1.600000000000000000e+01,5.000000000000000000e+00,1.255493164062500000e-01,-5.510253906250000000e-01,-1.357421875000000000e-01,-8.137817382812500000e-01
4.000000000000000000e+00,-2.000000000000000000e+00,1.500000000000000000e+01,1.000000000000000000e+01,2.000000000000000000e+00,-7.000000000000000000e+00,-7.000000000000000000e+00,-4.000000000000000000e+00,1.255493164062500000e-01,-5.510253906250000000e-01,-1.357421875000000000e-01,-8.137817382812500000e-01
2.000000000000000000e+00,-8.000000000000000000e+00,-3.900000000000000000e+01,-2.400000000000000000e+01,-9.000000000000000000e+00,1.000000000000000000e+00,2.000000000000000000e+00,-2.000000000000000000e+00,1.259155273437500000e-01,-5.503540039062500000e-01,-1.358032226562500000e-01,-8.141479492187500000e-01
-2.000000000000000000e+00,2.000000000000000000e+00,1.000000000000000000e+00,1.400000000000000000e+01,-2.000000000000000000e+00,-7.000000000000000000e+00,-6.000000000000000000e+00,-1.000000000000000000e+00,1.259155273437500000e-01,-5.503540039062500000e-01,-1.358032226562500000e-01,-8.141479492187500000e-01
1.000000000000000000e+01,5.000000000000000000e+00,-1.300000000000000000e+01,-1.000000000000000000e+00,1.800000000000000000e+01,-1.000000000000000000e+00,-5.000000000000000000e+00,-2.000000000000000000e+00,1.259155273437500000e-01,-5.503540039062500000e-01,-1.358032226562500000e-01,-8.141479492187500000e-01
-1.400000000000000000e+01,1.000000000000000000e+00,8.000000000000000000e+00,7.000000000000000000e+00,7.000000000000000000e+00,-1.000000000000000000e+00,-1.000000000000000000e+00,0.000000000000000000e+00,1.259155273437500000e-01,-5.503540039062500000e-01,-1.358032226562500000e-01,-8.141479492187500000e-01
8.000000000000000000e+00,9.000000000000000000e+00,2.600000000000000000e+01,1.500000000000000000e+01,-2.000000000000000000e+00,2.000000000000000000e+00,4.000000000000000000e+00,4.000000000000000000e+00,1.260986328125000000e-01,-5.495605468750000000e-01,-1.358032226562500000e-01,-8.146972656250000000e-01
1.300000000000000000e+01,-9.000000000000000000e+00,-9.000000000000000000e+00,0.000000000000000000e+00,-2.000000000000000000e+00,1.000000000000000000e+00,2.000000000000000000e+00,1.000000000000000000e+00,1.260986328125000000e-01,-5.495605468750000000e-01,-1.358032226562500000e-01,-8.146972656250000000e-01
-3.500000000000000000e+01,-2.000000000000000000e+00,-8.000000000000000000e+00,-9.000000000000000000e+00,-1.000000000000000000e+01,-9.000000000000000000e+00,-1.000000000000000000e+01,-9.000000000000000000e+00,1.260986328125000000e-01,-5.495605468750000000e-01,-1.358032226562500000e-01,-8.146972656250000000e-01
-4.000000000000000000e+00,-6.000000000000000000e+00,1.200000000000000000e+01,6.000000000000000000e+00,-1.000000000000000000e+00,-1.000000000000000000e+00,1.000000000000000000e+00,-5.000000000000000000e+00,1.260986328125000000e-01,-5.495605468750000000e-01,-1.358032226562500000e-01,-8.146972656250000000e-01
5.000000000000000000e+00,-1.100000000000000000e+01,-4.100000000000000000e+01,-1.800000000000000000e+01,-5.000000000000000000e+00,-2.000000000000000000e+00,-4.000000000000000000e+00,2.000000000000000000e+00,1.255493164062500000e-01,-5.487670898437500000e-01,-1.351318359375000000e-01,-8.154296875000000000e-01
7.000000000000000000e+00,1.500000000000000000e+01,-7.000000000000000000e+00,-2.000000000000000000e+00,2.000000000000000000e+00,-1.000000000000000000e+00,2.000000000000000000e+00,4.000000000000000000e+00,1.255493164062500000e-01,-5.487670898437500000e-01,-1.351318359375000000e-01,-8.154296875000000000e-01
9.000000000000000000e+00,-2.000000000000000000e+00,-5.000000000000000000e+00,6.000000000000000000e+00,-1.000000000000000000e+00,1.000000000000000000e+00,1.000000000000000000e+01,6.000000000000000000e+00,1.255493164062500000e-01,-5.487670898437500000e-01,-1.351318359375000000e-01,-8.154296875000000000e-01
-2.000000000000000000e+00,6.000000000000000000e+00,2.000000000000000000e+00,-5.000000000000000000e+00,-6.000000000000000000e+00,-3.000000000000000000e+00,-3.000000000000000000e+00,-4.000000000000000000e+00,1.255493164062500000e-01,-5.487670898437500000e-01,-1.351318359375000000e-01,-8.154296875000000000e-01
-9.000000000000000000e+00,-9.000000000000000000e+00,5.000000000000000000e+00,-7.000000000000000000e+00,-2.000000000000000000e+00,-1.300000000000000000e+01,-1.000000000000000000e+01,-8.000000000000000000e+00,1.250000000000000000e-01,-5.482177734375000000e-01,-1.346435546875000000e-01,-8.159790039062500000e-01
-1.000000000000000000e+01,-7.000000000000000000e+00,5.000000000000000000e+00,0.000000000000000000e+00,4.000000000000000000e+00,1.400000000000000000e+01,4.000000000000000000e+00,-4.000000000000000000e+00,1.250000000000000000e-01,-5.482177734375000000e-01,-1.346435546875000000e-01,-8.159790039062500000e-01
1.000000000000000000e+00,3.000000000000000000e+00,6.000000000000000000e+00,-7.000000000000000000e+00,-6.000000000000000000e+00,-4.000000000000000000e+00,-4.000000000000000000e+00,-1.000000000000000000e+00,1.250000000000000000e-01,-5.482177734375000000e-01,-1.346435546875000000e-01,-8.159790039062500000e-01
6.000000000000000000e+00,0.000000000000000000e+00,1.300000000000000000e+01,6.000000000000000000e+00,4.000000000000000000e+00,3.000000000000000000e+00,-3.000000000000000000e+00,1.000000000000000000e+00,1.250000000000000000e-01,-5.482177734375000000e-01,-1.346435546875000000e-01,-8.159790039062500000e-01
1.100000000000000000e+01,-2.000000000000000000e+00,-2.400000000000000000e+01,-9.000000000000000000e+00,-3.000000000000000000e+00,2.000000000000000000e+00,0.000000000000000000e+00,-4.000000000000000000e+00,1.245727539062500000e-01,-5.478515625000000000e-01,-1.348266601562500000e-01,-8.162231445312500000e-01
-1.300000000000000000e+01,-7.000000000000000000e+00,-1.500000000000000000e+01,0.000000000000000000e+00,0.000000000000000000e+00,-5.000000000000000000e+00,2.000000000000000000e+00,0.000000000000000000e+00,1.245727539062500000e-01,-5.478515625000000000e-01,-1.348266601562500000e-01,-8.162231445312500000e-01
-2.200000000000000000e+01,-3.000000000000000000e+00,4.500000000000000000e+01,1.300000000000000000e+01,-5.000000000000000000e+00,-7.000000000000000000e+00,-6.000000000000000000e+00,-8.000000000000000000e+00,1.245727539062500000e-01,-5.478515625000000000e-01,-1.348266601562500000e-01,-8.162231445312500000e-01
1.000000000000000000e+01,3.000000000000000000e+00,5.000000000000000000e+00,3.000000000000000000e+00,-1.500000000000000000e+01,-3.000000000000000000e+00,-6.000000000000000000e+00,2.000000000000000000e+00,1.245727539062500000e-01,-5.478515625000000000e-01,-1.348266601562500000e-01,-8.162231445312500000e-01
-1.000000000000000000e+00,1.000000000000000000e+00,-3.900000000000000000e+01,-7.000000000000000000e+00,1.600000000000000000e+01,4.000000000000000000e+00,9.000000000000000000e+00,3.000000000000000000e+00,1.249389648437500000e-01,-5.476074218750000000e-01,-1.353759765625000000e-01,-8.162841796875000000e-01
6.000000000000000000e+00,4.000000000000000000e+00,3.400000000000000000e+01,1.100000000000000000e+01,1.000000000000000000e+00,-2.000000000000000000e+00,-2.000000000000000000e+00,1.000000000000000000e+00,1.249389648437500000e-01,-5.476074218750000000e-01,-1.353759765625000000e-01,-8.162841796875000000e-01
1.000000000000000000e+00,-1.100000000000000000e+01,-2.400000000000000000e+01,-1.500000000000000000e+01,1.000000000000000000e+00,2.000000000000000000e+00,-4.000000000000000000e+00,-5.000000000000000000e+00,1.249389648437500000e-01,-5.476074218750000000e-01,-1.353759765625000000e-01,-8.162841796875000000e-01
1.000000000000000000e+00,1.000000000000000000e+00,-7.000000000000000000e+00,-2.000000000000000000e+00,-5.000000000000000000e+00,-3.000000000000000000e+00,1.000000000000000000e+00,2.000000000000000000e+00,1.249389648437500000e-01,-5.476074218750000000e-01,-1.353759765625000000e-01,-8.162841796875000000e-01
0.000000000000000000e+00,9.000000000000000000e+00,3.600000000000000000e+01,7.000000000000000000e+00,1.000000000000000000e+00,5.000000000000000000e+00,1.500000000000000000e+01,6.000000000000000000e+00,1.248779296875000000e-01,-5.477905273437500000e-01,-1.354980468750000000e-01,-8.161621093750000000e-01
-9.000000000000000000e+00,-1.000000000000000000e+01,-2.100000000000000000e+01,-1.400000000000000000e+01,-1.000000000000000000e+01,-4.000000000000000000e+00,-8.000000000000000000e+00,-3.000000000000000000e+00,1.248779296875000000e-01,-5.477905273437500000e-01,-1.354980468750000000e-01,-8.161621093750000000e-01
1.900000000000000000e+01,0.000000000000000000e+00,-1.900000000000000000e+01,-2.000000000000000000e+00,-4.000000000000000000e+00,-1.000000000000000000e+00,0.000000000000000000e+00,3.000000000000000000e+00,1.248779296875000000e-01,-5.477905273437500000e-01,-1.354980468750000000e-01,-8.161621093750000000e-01
-6.000000000000000000e+00,-2.000000000000000000e+00,-1.700000000000000000e+01,0.000000000000000000e+00,7.000000000000000000e+00,0.000000000000000000e+00,-3.000000000000000000e+00,-5.000000000000000000e+00,1.248779296875000000e-01,-5.477905273437500000e-01,-1.354980468750000000e-01,-8.161621093750000000e-01
0.000000000000000000e+00,5.000000000000000000e+00,2.000000000000000000e+01,-1.000000000000000000e+00,-5.000000000000000000e+00,-1.000000000000000000e+00,-4.000000000000000000e+00,-4.000000000000000000e+00,1.245117187500000000e-01,-5.482788085937500000e-01,-1.351928710937500000e-01,-8.159179687500000000e-01
1.500000000000000000e+01,0.000000000000000000e+00,2.000000000000000000e+00,-7.000000000000000000e+00,2.000000000000000000e+00,3.000000000000000000e+00,2.000000000000000000e+00,2.000000000000000000e+00,1.245117187500000000e-01,-5.482788085937500000e-01,-1.351928710937500000e-01,-8.159179687500000000e-01
7.000000000000000000e+00,-2.000000000000000000e+00,4.000000000000000000e+00,2.000000000000000000e+00,-1.000000000000000000e+00,-4.000000000000000000e+00,5.000000000000000000e+00,5.000000000000000000e+00,1.245117187500000000e-01,-5.482788085937500000e-01,-1.351928710937500000e-01,-8.159179687500000000e-01
0.000000000000000000e+00,-3.000000000000000000e+00,-1.400000000000000000e+01,-2.000000000000000000e+00,2.000000000000000000e+00,-3.000000000000000000e+00,-6.000000000000000000e+00,-3.000000000000000000e+00,1.245117187500000000e-01,-5.482788085937500000e-01,-1.351928710937500000e-01,-8.159179687500000000e-01
-1.000000000000000000e+01,-3.000000000000000000e+00,5.000000000000000000e+00,-4.000000000000000000e+00,-4.000000000000000000e+00,-1.000000000000000000e+00,2.000000000000000000e+00,-2.000000000000000000e+00,1.243286132812500000e-01,-5.488281250000000000e-01,-1.352539062500000000e-01,-8.155517578125000000e-01
1.000000000000000000e+00,0.000000000000000000e+00,1.000000000000000000e+01,5.000000000000000000e+00,0.000000000000000000e+00,4.000000000000000000e+00,4.000000000000000000e+00,-1.000000000000000000e+00,1.243286132812500000e-01,-5.488281250000000000e-01,-1.352539062500000000e-01,-8.155517578125000000e-01
3.000000000000000000e+00,8.000000000000000000e+00,2.600000000000000000e+01,8.000000000000000000e+00,2.000000000000000000e+00,2.000000000000000000e+00,0.000000000000000000e+00,-2.000000000000000000e+00,1.243286132812500000e-01,-5.488281250000000000e-01,-1.352539062500000000e-01,-8.155517578125000000e-01
-1.000000000000000000e+00,-1.300000000000000000e+01,-5.700000000000000000e+01,-1.900000000000000000e+01,-4.000000000000000000e+00,-3.000000000000000000e+00,1.000000000000000000e+00,2.000000000000000000e+00,1.243286132812500000e-01,-5.488281250000000000e-01,-1.352539062500000000e-01,-8.155517578125000000e-01
4.000000000000000000e+00,2.000000000000000000e+00,1.800000000000000000e+01,1.000000000000000000e+01,-3.000000000000000000e+00,-3.000000000000000000e+00,-2.000000000000000000e+00,-1.000000000000000000e+00,1.248779296875000000e-01,-5.491333007812500000e-01,-1.358032226562500000e-01,-8.151855468750000000e-01
-1.200000000000000000e+01,-2.000000000000000000e+00,5.000000000000000000e+00,3.000000000000000000e+00,-1.000000000000000000e+00,-3.000000000000000000e+00,-7.000000000000000000e+00,-5.000000000000000000e+00,1.248779296875000000e-01,-5.491333007812500000e-01,-1.358032226562500000e-01,-8.151855468750000000e-01
1.000000000000000000e+00,-2.000000000000000000e+00,1.000000000000000000e+00,1.000000000000000000e+00,-1.000000000000000000e+00,-2.000000000000000000e+00,2.000000000000000000e+00,2.000000000000000000e+00,1.248779296875000000e-01,-5.491333007812500000e-01,-1.358032226562500000e-01,-8.151855468750000000e-01
-3.000000000000000000e+00,5.000000000000000000e+00,9.000000000000000000e+00,-2.000000000000000000e+00,-9.000000000000000000e+00,0.000000000000000000e+00,0.000000000000000000e+00,-1.000000000000000000e+00,1.248779296875000000e-01,-5.491333007812500000e-01,-1.358032226562500000e-01,-8.151855468750000000e-01
8.000000000000000000e+00,2.000000000000000000e+00,8.000000000000000000e+00,3.000000000000000000e+00,1.300000000000000000e+01,3.000000000000000000e+00,4.000000000000000000e+00,2.000000000000000000e+00,1.257934570312500000e-01,-5.491943359375000000e-01,-1.365356445312500000e-01,-8.148803710937500000e-01
-4.000000000000000000e+00,-6.000000000000000000e+00,-1.600000000000000000e+01,-3.000000000000000000e+00,-1.000000000000000000e+00,-4.000000000000000000e+00,-1.600000000000000000e+01,-5.000000000000000000e+00,1.257934570312500000e-01,-5.491943359375000000e-01,-1.365356445312500000e-01,-8.148803710937500000e-01
3.000000000000000000e+00,-1.000000000000000000e+00,-7.000000000000000000e+00,4.000000000000000000e+00,1.100000000000000000e+01,0.000000000000000000e+00,2.000000000000000000e+00,1.000000000000000000e+00,1.257934570312500000e-01,-5.491943359375000000e-01,-1.365356445312500000e-01,-8.148803710937500000e-01
2.400000000000000000e+01,4.000000000000000000e+00,0.000000000000000000e+00,4.000000000000000000e+00,3.000000000000000000e+00,-7.000000000000000000e+00,1.400000000000000000e+01,1.100000000000000000e+01,1.257934570312500000e-01,-5.491943359375000000e-01,-1.365356445312500000e-01,-8.148803710937500000e-01
-1.400000000000000000e+01,-4.000000000000000000e+00,9.000000000000000000e+00,-4.000000000000000000e+00,-9.000000000000000000e+00,1.300000000000000000e+01,5.000000000000000000e+00,-4.000000000000000000e+00,1.259765625000000000e-01,-5.494384765625000000e-01,-1.360473632812500000e-01,-8.147583007812500000e-01
-5.000000000000000000e+00,-2.000000000000000000e+00,-6.000000000000000000e+00,-8.000000000000000000e+00,-4.000000000000000000e+00,-2.000000000000000000e+00,-1.000000000000000000e+00,-3.000000000000000000e+00,1.259765625000000000e-01,-5.494384765625000000e-01,-1.360473632812500000e-01,-8.147583007812500000e-01
-5.000000000000000000e+00,-6.000000000000000000e+00,-1.500000000000000000e+01,-6.000000000000000000e+00,-6.000000000000000000e+00,-1.000000000000000000e+00,-1.900000000000000000e+01,-6.000000000000000000e+00,1.259765625000000000e-01,-5.494384765625000000e-01,-1.360473632812500000e-01,-8.147583007812500000e-01
-2.000000000000000000e+00,-8.000000000000000000e+00,4.000000000000000000e+00,-1.000000000000000000e+00,-1.000000000000000000e+00,-1.000000000000000000e+01,-1.300000000000000000e+01,-9.000000000000000000e+00,1.259765625000000000e-01,-5.494384765625000000e-01,-1.360473632812500000e-01,-8.147583007812500000e-01
7.000000000000000000e+00,1.200000000000000000e+01,0.000000000000000000e+00,-2.000000000000000000e+00,-3.000000000000000000e+00,-4.000000000000000000e+00,-2.000000000000000000e+00,5.000000000000000000e+00,1.257324218750000000e-01,-5.496826171875000000e-01,-1.351928710937500000e-01,-8.147583007812500000e-01
1.000000000000000000e+00,2.000000000000000000e+00,2.000000000000000000e+00,-5.000000000000000000e+00,5.000000000000000000e+00,5.000000000000000000e+00,1.200000000000000000e+01,5.000000000000000000e+00,1.257324218750000000e-01,-5.496826171875000000e-01,-1.351928710937500000e-01,-8.147583007812500000e-01
-2.000000000000000000e+00,-2.000000000000000000e+00,1.500000000000000000e+01,5.000000000000000000e+00,-9.000000000000000000e+00,0.000000000000000000e+00,3.000000000000000000e+00,1.000000000000000000e+00,1.257324218750000000e-01,-5.496826171875000000e-01,-1.351928710937500000e-01,-8.147583007812500000e-01
-6.000000000000000000e+00,0.000000000000000000e+00,1.500000000000000000e+01,5.000000000000000000e+00,1.200000000000000000e+01,7.000000000000000000e+00,1.200000000000000000e+01,5.000000000000000000e+00,1.257324218750000000e-01,-5.496826171875000000e-01,-1.351928710937500000e-01,-8.147583007812500000e-01
-5.000000000000000000e+00,1.000000000000000000e+00,-2.200000000000000000e+01,-4.000000000000000000e+00,-4.000000000000000000e+00,-7.000000000000000000e+00,-9.000000000000000000e+00,-6.000000000000000000e+00,1.256713867187500000e-01,-5.496826171875000000e-01,-1.351928710937500000e-01,-8.147583007812500000e-01
-3.000000000000000000e+00,-5.000000000000000000e+00,3.000000000000000000e+00,-5.000000000000000000e+00,1.000000000000000000e+00,0.000000000000000000e+00,1.000000000000000000e+00,-1.000000000000000000e+00,1.256713867187500000e-01,-5.496826171875000000e-01,-1.351928710937500000e-01,-8.147583007812500000e-01
-9.000000000000000000e+00,-6.000000000000000000e+00,9.000000000000000000e+00,2.000000000000000000e+00,-9.000000000000000000e+00,-6.000000000000000000e+00,-8.000000000000000000e+00,-8.000000000000000000e+00,1.256713867187500000e-01,-5.496826171875000000e-01,-1.351928710937500000e-01,-8.147583007812500000e-01
-2.000000000000000000e+00,-4.000000000000000000e+00,4.000000000000000000e+00,-4.000000000000000000e+00,9.000000000000000000e+00,4.000000000000000000e+00,-3.000000000000000000e+00,-5.000000000000000000e+00,1.256713867187500000e-01,-5.496826171875000000e-01,-1.351928710937500000e-01,-8.147583007812500000e-01
1.200000000000000000e+01,-1.000000000000000000e+00,-1.700000000000000000e+01,-5.000000000000000000e+00,-2.000000000000000000e+00,-2.000000000000000000e+00,0.000000000000000000e+00,2.000000000000000000e+00,1.264648437500000000e-01,-5.493774414062500000e-01,-1.361083984375000000e-01,-8.147583007812500000e-01
-1.000000000000000000e+01,2.000000000000000000e+00,2.000000000000000000e+01,7.000000000000000000e+00,-3.000000000000000000e+00,-2.000000000000000000e+00,-2.000000000000000000e+00,0.000000000000000000e+00,1.264648437500000000e-01,-5.493774414062500000e-01,-1.361083984375000000e-01,-8.147583007812500000e-01
-1.900000000000000000e+01,2.000000000000000000e+00,-1.200000000000000000e+01,-3.000000000000000000e+00,-5.000000000000000000e+00,-4.000000000000000000e+00,-2.000000000000000000e+00,-5.000000000000000000e+00,1.264648437500000000e-01,-5.493774414062500000e-01,-1.361083984375000000e-01,-8.147583007812500000e-01
-1.000000000000000000e+00,5.000000000000000000e+00,1.800000000000000000e+01,9.000000000000000000e+00,2.000000000000000000e+00,-1.000000000000000000e+00,-6.000000000000000000e+00,-3.000000000000000000e+00,1.264648437500000000e-01,-5.493774414062500000e-01,-1.361083984375000000e-01,-8.147583007812500000e-01
-1.000000000000000000e+01,-8.000000000000000000e+00,3.000000000000000000e+00,2.000000000000000000e+00,0.000000000000000000e+00,-2.000000000000000000e+00,-1.000000000000000000e+00,-3.000000000000000000e+00,1.268920898437500000e-01,-5.490112304687500000e-01,-1.367187500000000000e-01,-8.147583007812500000e-01
4.000000000000000000e+00,-2.000000000000000000e+00,-2.100000000000000000e+01,-3.000000000000000000e+00,2.000000000000000000e+00,0.000000000000000000e+00,-3.000000000000000000e+00,1.000000000000000000e+00,1.268920898437500000e-01,-5.490112304687500000e-01,-1.367187500000000000e-01,-8.147583007812500000e-01
8.000000000000000000e+00,-1.100000000000000000e+01,-4.400000000000000000e+01,-2.000000000000000000e+01,-1.000000000000000000e+01,2.000000000000000000e+00,5.000000000000000000e+00,4.000000000000000000e+00,1.268920898437500000e-01,-5.490112304687500000e-01,-1.367187500000000000e-01,-8.147583007812500000e-01
-5.000000000000000000e+00,0.000000000000000000e+00,-2.000000000000000000e+00,2.000000000000000000e+00,-4.000000000000000000e+00,0.000000000000000000e+00,5.000000000000000000e+00,1.000000000000000000e+00,1.268920898437500000e-01,-5.490112304687500000e-01,-1.367187500000000000e-01,-8.147583007812500000e-01
-1.000000000000000000e+00,-5.000000000000000000e+00,-2.000000000000000000e+00,-3.000000000000000000e+00,-3.000000000000000000e+00,-1.000000000000000000e+01,-2.300000000000000000e+01,-1.700000000000000000e+01,1.271362304687500000e-01,-5.485229492187500000e-01,-1.365356445312500000e-01,-8.150634765625000000e-01
-1.000000000000000000e+00,1.000000000000000000e+00,1.400000000000000000e+01,1.000000000000000000e+00,-4.000000000000000000e+00,-1.000000000000000000e+00,1.900000000000000000e+01,1.900000000000000000e+01,1.271362304687500000e-01,-5.485229492187500000e-01,-1.365356445312500000e-01,-8.150634765625000000e-01
3.000000000000000000e+00,1.000000000000000000e+00,-7.000000000000000000e+00,1.000000000000000000e+00,5.000000000000000000e+00,2.000000000000000000e+00,1.000000000000000000e+00,2.000000000000000000e+00,1.271362304687500000e-01,-5.485229492187500000e-01,-1.365356445312500000e-01,-8.150634765625000000e-01
5.000000000000000000e+00,7.000000000000000000e+00,1.200000000000000000e+01,4.000000000000000000e+00,-3.000000000000000000e+00,1.000000000000000000e+00,-5.000000000000000000e+00,-5.000000000000000000e+00,1.271362304687500000e-01,-5.485229492187500000e-01,-1.365356445312500000e-01,-8.150634765625000000e-01
9.000000000000000000e+00,-1.100000000000000000e+01,-1.600000000000000000e+01,-6.000000000000000000e+00,-3.000000000000000000e+00,-1.000000000000000000e+00,-2.000000000000000000e+00,1.000000000000000000e+00,1.267700195312500000e-01,-5.484008789062500000e-01,-1.359252929687500000e-01,-8.153686523437500000e-01
-6.000000000000000000e+00,-3.000000000000000000e+00,1.800000000000000000e+01,2.000000000000000000e+00,3.000000000000000000e+00,1.000000000000000000e+00,-4.000000000000000000e+00,-1.000000000000000000e+01,1.267700195312500000e-01,-5.484008789062500000e-01,-1.359252929687500000e-01,-8.153686523437500000e-01
0.000000000000000000e+00,-4.000000000000000000e+00,-2.400000000000000000e+01,-4.000000000000000000e+00,-2.000000000000000000e+00,-1.000000000000000000e+01,-1.100000000000000000e+01,-5.000000000000000000e+00,1.267700195312500000e-01,-5.484008789062500000e-01,-1.359252929687500000e-01,-8.153686523437500000e-01
-5.000000000000000000e+00,-1.600000000000000000e+01,-7.000000000000000000e+00,0.000000000000000000e+00,-3.000000000000000000e+00,-1.000000000000000000e+00,4.000000000000000000e+00,1.000000000000000000e+00,1.267700195312500000e-01,-5.484008789062500000e-01,-1.359252929687500000e-01,-8.153686523437500000e-01
-8.000000000000000000e+00,2.800000000000000000e+01,2.500000000000000000e+01,7.000000000000000000e+00,1.000000000000000000e+00,1.000000000000000000e+00,0.000000000000000000e+00,0.000000000000000000e+00,1.266479492187500000e-01,-5.484008789062500000e-01,-1.359252929687500000e-01,-8.153686523437500000e-01
2.000000000000000000e+00,-1.000000000000000000e+00,-1.500000000000000000e+01,-5.000000000000000000e+00,-1.000000000000000000e+00,-5.000000000000000000e+00,-8.000000000000000000e+00,-5.000000000000000000e+00,1.266479492187500000e-01,-5.484008789062500000e-01,-1.359252929687500000e-01,-8.153686523437500000e-01
4.000000000000000000e+00,0.000000000000000000e+00,-3.600000000000000000e+01,-2.800000000000000000e+01,-7.000000000000000000e+00,0.000000000000000000e+00,4.000000000000000000e+00,6.000000000000000000e+00,1.266479492187500000e-01,-5.484008789062500000e-01,-1.359252929687500000e-01,-8.153686523437500000e-01
-1.000000000000000000e+01,-1.000000000000000000e+01,2.300000000000000000e+01,2.700000000000000000e+01,1.000000000000000000e+01,4.000000000000000000e+00,-4.000000000000000000e+00,-5.000000000000000000e+00,1.266479492187500000e-01,-5.484008789062500000e-01,-1.359252929687500000e-01,-8.153686523437500000e-01
-3.000000000000000000e+00,-4.000000000000000000e+00,8.000000000000000000e+00,-2.000000000000000000e+00,2.000000000000000000e+00,1.000000000000000000e+00,-1.000000000000000000e+00,1.000000000000000000e+00,1.271362304687500000e-01,-5.480346679687500000e-01,-1.367187500000000000e-01,-8.153686523437500000e-01
9.000000000000000000e+00,1.000000000000000000e+00,3.000000000000000000e+01,1.200000000000000000e+01,4.000000000000000000e+00,-1.000000000000000000e+00,-1.000000000000000000e+00,1.000000000000000000e+00,1.271362304687500000e-01,-5.480346679687500000e-01,-1.367187500000000000e-01,-8.153686523437500000e-01
-1.700000000000000000e+01,-7.000000000000000000e+00,-9.000000000000000000e+00,-2.000000000000000000e+00,1.000000000000000000e+00,-2.000000000000000000e+00,-8.000000000000000000e+00,-4.000000000000000000e+00,1.271362304687500000e-01,-5.480346679687500000e-01,-1.367187500000000000e-01,-8.153686523437500000e-01
-1.000000000000000000e+00,2.000000000000000000e+00,-2.100000000000000000e+01,-1.400000000000000000e+01,-1.000000000000000000e+01,-6.000000000000000000e+00,-1.300000000000000000e+01,-6.000000000000000000e+00,1.271362304687500000e-01,-5.480346679687500000e-01,-1.367187500000000000e-01,-8.153686523437500000e-01
1.000000000000000000e+01,-2.000000000000000000e+00,3.000000000000000000e+00,-4.000000000000000000e+00,-3.000000000000000000e+00,2.000000000000000000e+00,1.800000000000000000e+01,1.300000000000000000e+01,1.273193359375000000e-01,-5.477905273437500000e-01,-1.370239257812500000e-01,-8.154907226562500000e-01
-8.000000000000000000e+00,-3.000000000000000000e+00,-1.500000000000000000e+01,0.000000000000000000e+00,1.000000000000000000e+00,2.000000000000000000e+00,5.000000000000000000e+00,5.000000000000000000e+00,1.273193359375000000e-01,-5.477905273437500000e-01,-1.370239257812500000e-01,-8.154907226562500000e-01
1.400000000000000000e+01,2.000000000000000000e+00,1.500000000000000000e+01,1.000000000000000000e+00,-3.000000000000000000e+00,-3.000000000000000000e+00,-2.000000000000000000e+00,-3.000000000000000000e+00,1.273193359375000000e-01,-5.477905273437500000e-01,-1.370239257812500000e-01,-8.154907226562500000e-01
-6.000000000000000000e+00,-4.000000000000000000e+00,-1.000000000000000000e+01,-8.000000000000000000e+00,-3.000000000000000000e+00,-5.000000000000000000e+00,-1.400000000000000000e+01,-8.000000000000000000e+00,1.273193359375000000e-01,-5.477905273437500000e-01,-1.370239257812500000e-01,-8.154907226562500000e-01
-8.000000000000000000e+00,-2.000000000000000000e+00,2.000000000000000000e+00,4.000000000000000000e+00,1.000000000000000000e+00,9.000000000000000000e+00,1.700000000000000000e+01,3.000000000000000000e+00,1.269531250000000000e-01,-5.477294921875000000e-01,-1.365356445312500000e-01,-8.156738281250000000e-01
2.000000000000000000e+00,1.000000000000000000e+00,-4.000000000000000000e+00,-3.000000000000000000e+00,-3.000000000000000000e+00,-6.000000000000000000e+00,-3.000000000000000000e+00,-2.000000000000000000e+00,1.269531250000000000e-01,-5.477294921875000000e-01,-1.365356445312500000e-01,-8.156738281250000000e-01
2.000000000000000000e+00,2.000000000000000000e+00,1.100000000000000000e+01,7.000000000000000000e+00,4.000000000000000000e+00,3.000000000000000000e+00,7.000000000000000000e+00,1.000000000000000000e+00,1.269531250000000000e-01,-5.477294921875000000e-01,-1.365356445312500000e-01,-8.156738281250000000e-01
-5.000000000000000000e+00,2.000000000000000000e+00,-1.100000000000000000e+01,-9.000000000000000000e+00,-3.000000000000000000e+00,-5.000000000000000000e+00,-4.000000000000000000e+00,-1.000000000000000000e+00,1.269531250000000000e-01,-5.477294921875000000e-01,-1.365356445312500000e-01,-8.156738281250000000e-01
1.000000000000000000e+00,-5.000000000000000000e+00,7.000000000000000000e+00,1.000000000000000000e+00,-1.000000000000000000e+00,-1.300000000000000000e+01,-8.000000000000000000e+00,-4.000000000000000000e+00,1.263427734375000000e-01,-5.479736328125000000e-01,-1.361694335937500000e-01,-8.156738281250000000e-01
-2.000000000000000000e+00,-3.000000000000000000e+00,-2.800000000000000000e+01,-5.000000000000000000e+00,-3.000000000000000000e+00,1.300000000000000000e+01,-8.000000000000000000e+00,-8.000000000000000000e+00,1.263427734375000000e-01,-5.479736328125000000e-01,-1.361694335937500000e-01,-8.156738281250000000e-01
-9.000000000000000000e+00,-6.000000000000000000e+00,5.000000000000000000e+00,-5.000000000000000000e+00,-3.000000000000000000e+00,-6.000000000000000000e+00,-9.000000000000000000e+00,-4.000000000000000000e+00,1.263427734375000000e-01,-5.479736328125000000e-01,-1.361694335937500000e-01,-8.156738281250000000e-01
1.000000000000000000e+01,7.000000000000000000e+00,4.000000000000000000e+01,9.000000000000000000e+00,-1.000000000000000000e+00,2.000000000000000000e+00,1.000000000000000000e+01,6.000000000000000000e+00,1.263427734375000000e-01,-5.479736328125000000e-01,-1.361694335937500000e-01,-8.156738281250000000e-01
1.000000000000000000e+01,-5.000000000000000000e+00,-2.400000000000000000e+01,-4.000000000000000000e+00,-1.000000000000000000e+00,-1.000000000000000000e+00,-1.100000000000000000e+01,-7.000000000000000000e+00,1.262207031250000000e-01,-5.481567382812500000e-01,-1.364746093750000000e-01,-8.154907226562500000e-01
-7.000000000000000000e+00,0.000000000000000000e+00,2.800000000000000000e+01,4.000000000000000000e+00,1.000000000000000000e+00,-6.000000000000000000e+00,6.000000000000000000e+00,-1.000000000000000000e+00,1.262207031250000000e-01,-5.481567382812500000e-01,-1.364746093750000000e-01,-8.154907226562500000e-01
0.000000000000000000e+00,-1.000000000000000000e+00,-3.200000000000000000e+01,-2.000000000000000000e+00,5.000000000000000000e+00,2.000000000000000000e+00,-1.000000000000000000e+00,-1.000000000000000000e+00,1.262207031250000000e-01,-5.481567382812500000e-01,-1.364746093750000000e-01,-8.154907226562500000e-01
3.000000000000000000e+00,1.200000000000000000e+01,3.000000000000000000e+00,-7.000000000000000000e+00,-4.000000000000000000e+00,7.000000000000000000e+00,1.400000000000000000e+01,8.000000000000000000e+00,1.262207031250000000e-01,-5.481567382812500000e-01,-1.364746093750000000e-01,-8.154907226562500000e-01
-2.000000000000000000e+00,-5.000000000000000000e+00,1.900000000000000000e+01,7.000000000000000000e+00,-6.000000000000000000e+00,-8.000000000000000000e+00,-5.000000000000000000e+00,-3.000000000000000000e+00,1.267089843750000000e-01,-5.480346679687500000e-01,-1.369018554687500000e-01,-8.154296875000000000e-01
-1.000000000000000000e+00,-4.000000000000000000e+00,-2.400000000000000000e+01,-4.000000000000000000e+00,1.300000000000000000e+01,0.000000000000000000e+00,-8.000000000000000000e+00,-6.000000000000000000e+00,1.267089843750000000e-01,-5.480346679687500000e-01,-1.369018554687500000e-01,-8.154296875000000000e-01
-1.000000000000000000e+00,1.000000000000000000e+00,2.800000000000000000e+01,6.000000000000000000e+00,-1.000000000000000000e+00,3.000000000000000000e+00,0.000000000000000000e+00,-5.000000000000000000e+00,1.267089843750000000e-01,-5.480346679687500000e-01,-1.369018554687500000e-01,-8.154296875000000000e-01
1.000000000000000000e+00,-4.000000000000000000e+00,-1.800000000000000000e+01,0.000000000000000000e+00,5.000000000000000000e+00,0.000000000000000000e+00,6.000000000000000000e+00,8.000000000000000000e+00,1.267089843750000000e-01,-5.480346679687500000e-01,-1.369018554687500000e-01,-8.154296875000000000e-01
-8.000000000000000000e+00,0.000000000000000000e+00,-2.000000000000000000e+00,-7.000000000000000000e+00,-1.000000000000000000e+01,-5.000000000000000000e+00,-9.000000000000000000e+00,-2.000000000000000000e+00,1.267700195312500000e-01,-5.480957031250000000e-01,-1.368408203125000000e-01,-8.154296875000000000e-01
-2.000000000000000000e+00,-1.000000000000000000e+00,6.000000000000000000e+00,7.000000000000000000e+00,-1.000000000000000000e+00,-4.000000000000000000e+00,0.000000000000000000e+00,-2.000000000000000000e+00,1.267700195312500000e-01,-5.480957031250000000e-01,-1.368408203125000000e-01,-8.154296875000000000e-01
-6.000000000000000000e+00,-6.000000000000000000e+00,5.000000000000000000e+00,-3.000000000000000000e+00,2.000000000000000000e+00,0.000000000000000000e+00,-2.000000000000000000e+00,-4.000000000000000000e+00,1.267700195312500000e-01,-5.480957031250000000e-01,-1.368408203125000000e-01,-8.154296875000000000e-01
-6.000000000000000000e+00,-4.000000000000000000e+00,-2.400000000000000000e+01,-9.000000000000000000e+00,-7.000000000000000000e+00,-6.000000000000000000e+00,-1.300000000000000000e+01,-1.000000000000000000e+01,1.267700195312500000e-01,-5.480957031250000000e-01,-1.368408203125000000e-01,-8.154296875000000000e-01
-2.000000000000000000e+00,4.000000000000000000e+00,7.000000000000000000e+00,1.000000000000000000e+00,-1.000000000000000000e+00,-1.000000000000000000e+00,1.300000000000000000e+01,7.000000000000000000e+00,1.265258789062500000e-01,-5.482177734375000000e-01,-1.365356445312500000e-01,-8.154296875000000000e-01
0.000000000000000000e+00,-2.000000000000000000e+00,-5.000000000000000000e+00,-3.000000000000000000e+00,-4.000000000000000000e+00,-2.000000000000000000e+00,-1.300000000000000000e+01,-6.000000000000000000e+00,1.265258789062500000e-01,-5.482177734375000000e-01,-1.365356445312500000e-01,-8.154296875000000000e-01
3.000000000000000000e+00,2.000000000000000000e+00,5.000000000000000000e+00,0.000000000000000000e+00,0.000000000000000000e+00,-1.000000000000000000e+00,2.000000000000000000e+00,0.000000000000000000e+00,1.265258789062500000e-01,-5.482177734375000000e-01,-1.365356445312500000e-01,-8.154296875000000000e-01
-2.000000000000000000e+00,-4.000000000000000000e+00,-1.000000000000000000e+00,-2.000000000000000000e+00,-2.000000000000000000e+00,-1.000000000000000000e+00,-3.000000000000000000e+00,-3.000000000000000000e+00,1.265258789062500000e-01,-5.482177734375000000e-01,-1.365356445312500000e-01,-8.154296875000000000e-01
1.500000000000000000e+01,-4.000000000000000000e+00,-7.000000000000000000e+00,-1.000000000000000000e+00,1.000000000000000000e+00,0.000000000000000000e+00,8.000000000000000000e+00,2.000000000000000000e+00,1.264038085937500000e-01,-5.484619140625000000e-01,-1.365356445312500000e-01,-8.152465820312500000e-01
-1.200000000000000000e+01,-1.000000000000000000e+00,1.400000000000000000e+01,-3.000000000000000000e+00,-6.000000000000000000e+00,-8.000000000000000000e+00,-1.500000000000000000e+01,-3.000000000000000000e+00,1.264038085937500000e-01,-5.484619140625000000e-01,-1.365356445312500000e-01,-8.152465820312500000e-01
1.100000000000000000e+01,-1.000000000000000000e+00,-6.000000000000000000e+00,6.000000000000000000e+00,0.000000000000000000e+00,-1.000000000000000000e+00,4.000000000000000000e+00,3.000000000000000000e+00,1.264038085937500000e-01,-5.484619140625000000e-01,-1.365356445312500000e-01,-8.152465820312500000e-01
-7.000000000000000000e+00,7.000000000000000000e+00,2.000000000000000000e+01,6.000000000000000000e+00,-1.000000000000000000e+00,0.000000000000000000e+00,-5.000000000000000000e+00,-1.000000000000000000e+01,1.264038085937500000e-01,-5.484619140625000000e-01,-1.365356445312500000e-01,-8.152465820312500000e-01
0.000000000000000000e+00,-6.000000000000000000e+00,-3.300000000000000000e+01,-7.000000000000000000e+00,1.000000000000000000e+00,0.000000000000000000e+00,-2.000000000000000000e+00,4.000000000000000000e+00,1.263427734375000000e-01,-5.486450195312500000e-01,-1.365966796875000000e-01,-8.151245117187500000e-01
0.000000000000000000e+00,-1.000000000000000000e+00,-6.000000000000000000e+00,3.000000000000000000e+00,-2.000000000000000000e+00,1.000000000000000000e+00,8.000000000000000000e+00,-1.000000000000000000e+00,1.263427734375000000e-01,-5.486450195312500000e-01,-1.365966796875000000e-01,-8.151245117187500000e-01
1.000000000000000000e+01,4.000000000000000000e+00,2.300000000000000000e+01,7.000000000000000000e+00,1.300000000000000000e+01,5.000000000000000000e+00,-2.000000000000000000e+00,3.000000000000000000e+00,1.263427734375000000e-01,-5.486450195312500000e-01,-1.365966796875000000e-01,-8.151245117187500000e-01
-5.000000000000000000e+00,-5.000000000000000000e+00,5.000000000000000000e+00,-8.000000000000000000e+00,-5.000000000000000000e+00,-3.000000000000000000e+00,-1.300000000000000000e+01,-5.000000000000000000e+00,1.263427734375000000e-01,-5.486450195312500000e-01,-1.365966796875000000e-01,-8.151245117187500000e-01
-5.000000000000000000e+00,-1.000000000000000000e+00,3.000000000000000000e+00,-5.000000000000000000e+00,-9.000000000000000000e+00,-1.000000000000000000e+00,6.000000000000000000e+00,-2.000000000000000000e+00,1.259155273437500000e-01,-5.488891601562500000e-01,-1.366577148437500000e-01,-8.150024414062500000e-01
-3.000000000000000000e+00,-4.000000000000000000e+00,-2.500000000000000000e+01,-1.200000000000000000e+01,-8.000000000000000000e+00,-3.000000000000000000e+00,-3.000000000000000000e+00,2.000000000000000000e+00,1.259155273437500000e-01,-5.488891601562500000e-01,-1.366577148437500000e-01,-8.150024414062500000e-01
-6.000000000000000000e+00,-4.000000000000000000e+00,-1.300000000000000000e+01,1.000000000000000000e+00,1.000000000000000000e+00,1.000000000000000000e+00,-3.000000000000000000e+00,-3.000000000000000000e+00,1.259155273437500000e-01,-5.488891601562500000e-01,-1.366577148437500000e-01,-8.150024414062500000e-01
5.000000000000000000e+00,1.000000000000000000e+00,4.000000000000000000e+00,1.000000000000000000e+00,-3.000000000000000000e+00,-1.000000000000000000e+00,3.000000000000000000e+00,2.000000000000000000e+00,1.259155273437500000e-01,-5.488891601562500000e-01,-1.366577148437500000e-01,-8.150024414062500000e-01
-6.000000000000000000e+00,2.000000000000000000e+00,1.100000000000000000e+01,5.000000000000000000e+00,7.000000000000000000e+00,3.000000000000000000e+00,1.300000000000000000e+01,5.000000000000000000e+00,1.256103515625000000e-01,-5.489501953125000000e-01,-1.364135742187500000e-01,-8.150634765625000000e-01
1.000000000000000000e+00,-3.000000000000000000e+00,-5.000000000000000000e+00,-5.000000000000000000e+00,-4.000000000000000000e+00,-2.000000000000000000e+00,-3.000000000000000000e+00,-3.000000000000000000e+00,1.256103515625000000e-01,-5.489501953125000000e-01,-1.364135742187500000e-01,-8.150634765625000000e-01
0.000000000000000000e+00,-6.000000000000000000e+00,1.000000000000000000e+00,-1.000000000000000000e+00,-5.000000000000000000e+00,-9.000000000000000000e+00,-3.000000000000000000e+00,2.000000000000000000e+00,1.256103515625000000e-01,-5.489501953125000000e-01,-1.364135742187500000e-01,-8.150634765625000000e-01
-6.000000000000000000e+00,3.000000000000000000e+00,-8.000000000000000000e+00,-1.000000000000000000e+00,2.000000000000000000e+00,9.000000000000000000e+00,1.400000000000000000e+01,4.000000000000000000e+00,1.256103515625000000e-01,-5.489501953125000000e-01,-1.364135742187500000e-01,-8.150634765625000000e-01
-9.000000000000000000e+00,-1.000000000000000000e+00,7.000000000000000000e+00,1.000000000000000000e+00,0.000000000000000000e+00,-2.000000000000000000e+00,-1.700000000000000000e+01,-1.000000000000000000e+01,1.256103515625000000e-01,-5.487060546875000000e-01,-1.366577148437500000e-01,-8.151855468750000000e-01
1.600000000000000000e+01,-1.000000000000000000e+00,-2.300000000000000000e+01,-3.000000000000000000e+00,3.000000000000000000e+00,5.000000000000000000e+00,1.500000000000000000e+01,9.000000000000000000e+00,1.256103515625000000e-01,-5.487060546875000000e-01,-1.366577148437500000e-01,-8.151855468750000000e-01
1.000000000000000000e+00,1.200000000000000000e+01,5.200000000000000000e+01,1.000000000000000000e+01,-1.000000000000000000e+00,-5.000000000000000000e+00,1.000000000000000000e+00,2.000000000000000000e+00,1.256103515625000000e-01,-5.487060546875000000e-01,-1.366577148437500000e-01,-8.151855468750000000e-01
-7.000000000000000000e+00,-1.300000000000000000e+01,-2.700000000000000000e+01,1.000000000000000000e+00,-1.000000000000000000e+00,0.000000000000000000e+00,1.000000000000000000e+00,-4.000000000000000000e+00,1.256103515625000000e-01,-5.487060546875000000e-01,-1.366577148437500000e-01,-8.151855468750000000e-01
0.000000000000000000e+00,0.000000000000000000e+00,-5.000000000000000000e+00,-3.000000000000000000e+00,-1.000000000000000000e+00,-1.000000000000000000e+00,-6.000000000000000000e+00,-1.000000000000000000e+00,1.258544921875000000e-01,-5.483398437500000000e-01,-1.372070312500000000e-01,-8.153686523437500000e-01
-7.000000000000000000e+00,-5.000000000000000000e+00,-9.000000000000000000e+00,-9.000000000000000000e+00,-3.000000000000000000e+00,-7.000000000000000000e+00,-9.000000000000000000e+00,-9.000000000000000000e+00,1.258544921875000000e-01,-5.483398437500000000e-01,-1.372070312500000000e-01,-8.153686523437500000e-01
-1.000000000000000000e+00,1.000000000000000000e+00,-5.000000000000000000e+00,7.000000000000000000e+00,-1.100000000000000000e+01,0.000000000000000000e+00,0.000000000000000000e+00,0.000000000000000000e+00,1.258544921875000000e-01,-5.483398437500000000e-01,-1.372070312500000000e-01,-8.153686523437500000e-01
1.000000000000000000e+01,-2.000000000000000000e+00,-3.000000000000000000e+00,-3.000000000000000000e+00,5.000000000000000000e+00,0.000000000000000000e+00,2.000000000000000000e+00,5.000000000000000000e+00,1.258544921875000000e-01,-5.483398437500000000e-01,-1.372070312500000000e-01,-8.153686523437500000e-01
-2.200000000000000000e+01,7.000000000000000000e+00,3.300000000000000000e+01,-3.000000000000000000e+00,-4.000000000000000000e+00,2.000000000000000000e+00,-1.000000000000000000e+01,-9.000000000000000000e+00,1.260986328125000000e-01,-5.477905273437500000e-01,-1.376342773437500000e-01,-8.155517578125000000e-01
1.000000000000000000e+01,-6.000000000000000000e+00,-2.300000000000000000e+01,9.000000000000000000e+00,1.400000000000000000e+01,-1.000000000000000000e+00,-9.000000000000000000e+00,-5.000000000000000000e+00,1.260986328125000000e-01,-5.477905273437500000e-01,-1.376342773437500000e-01,-8.155517578125000000e-01
4.000000000000000000e+00,-2.000000000000000000e+00,-2.000000000000000000e+01,-9.000000000000000000e+00,1.000000000000000000e+00,2.000000000000000000e+00,2.300000000000000000e+01,1.500000000000000000e+01,1.260986328125000000e-01,-5.477905273437500000e-01,-1.376342773437500000e-01,-8.155517578125000000e-01
-3.000000000000000000e+00,-1.000000000000000000e+00,-1.000000000000000000e+00,-1.000000000000000000e+00,-8.000000000000000000e+00,-5.000000000000000000e+00,-1.100000000000000000e+01,-4.000000000000000000e+00,1.260986328125000000e-01,-5.477905273437500000e-01,-1.376342773437500000e-01,-8.155517578125000000e-01
-5.000000000000000000e+00,-9.000000000000000000e+00,-1.000000000000000000e+01,2.000000000000000000e+00,6.000000000000000000e+00,-5.000000000000000000e+00,9.000000000000000000e+00,5.000000000000000000e+00,1.254882812500000000e-01,-5.475463867187500000e-01,-1.373901367187500000e-01,-8.158569335937500000e-01
-8.000000000000000000e+00,4.000000000000000000e+00,3.100000000000000000e+01,2.000000000000000000e+00,-9.000000000000000000e+00,8.000000000000000000e+00,-1.300000000000000000e+01,-1.000000000000000000e+01,1.254882812500000000e-01,-5.475463867187500000e-01,-1.373901367187500000e-01,-8.158569335937500000e-01
-4.000000000000000000e+00,1.000000000000000000e+00,-6.000000000000000000e+00,-2.000000000000000000e+00,-1.000000000000000000e+00,3.000000000000000000e+00,-4.000000000000000000e+00,-5.000000000000000000e+00,1.254882812500000000e-01,-5.475463867187500000e-01,-1.373901367187500000e-01,-8.158569335937500000e-01
5.000000000000000000e+00,-3.000000000000000000e+00,-1.200000000000000000e+01,-1.000000000000000000e+00,-3.000000000000000000e+00,-6.000000000000000000e+00,-6.000000000000000000e+00,-3.000000000000000000e+00,1.254882812500000000e-01,-5.475463867187500000e-01,-1.373901367187500000e-01,-8.158569335937500000e-01
-1.000000000000000000e+01,-4.000000000000000000e+00,9.000000000000000000e+00,4.000000000000000000e+00,-3.000000000000000000e+00,0.000000000000000000e+00,9.000000000000000000e+00,2.000000000000000000e+00,1.251831054687500000e-01,-5.472412109375000000e-01,-1.371459960937500000e-01,-8.161621093750000000e-01
5.000000000000000000e+00,2.000000000000000000e+00,-1.500000000000000000e+01,-7.000000000000000000e+00,-4.000000000000000000e+00,-2.000000000000000000e+00,1.000000000000000000e+00,2.000000000000000000e+00,1.251831054687500000e-01,-5.472412109375000000e-01,-1.371459960937500000e-01,-8.161621093750000000e-01
3.000000000000000000e+00,0.000000000000000000e+00,1.800000000000000000e+01,7.000000000000000000e+00,3.000000000000000000e+00,-3.000000000000000000e+00,-4.000000000000000000e+00,-1.000000000000000000e+00,1.251831054687500000e-01,-5.472412109375000000e-01,-1.371459960937500000e-01,-8.161621093750000000e-01
-6.000000000000000000e+00,-2.000000000000000000e+00,-7.000000000000000000e+00,-3.000000000000000000e+00,1.000000000000000000e+00,-1.000000000000000000e+00,0.000000000000000000e+00,-1.000000000000000000e+00,1.251831054687500000e-01,-5.472412109375000000e-01,-1.371459960937500000e-01,-8.161621093750000000e-01
0.000000000000000000e+00,-3.000000000000000000e+00,-1.100000000000000000e+01,-9.000000000000000000e+00,-5.000000000000000000e+00,-6.000000000000000000e+00,-1.600000000000000000e+01,-6.000000000000000000e+00,1.251220703125000000e-01,-5.471191406250000000e-01,-1.373901367187500000e-01,-8.162231445312500000e-01
-4.000000000000000000e+00,-1.000000000000000000e+00,1.500000000000000000e+01,8.000000000000000000e+00,1.000000000000000000e+00,-2.000000000000000000e+00,3.000000000000000000e+00,0.000000000000000000e+00,1.251220703125000000e-01,-5.471191406250000000e-01,-1.373901367187500000e-01,-8.162231445312500000e-01
-7.000000000000000000e+00,-1.000000000000000000e+00,-1.500000000000000000e+01,-1.100000000000000000e+01,-1.500000000000000000e+01,-4.000000000000000000e+00,-5.000000000000000000e+00,-4.000000000000000000e+00,1.251220703125000000e-01,-5.471191406250000000e-01,-1.373901367187500000e-01,-8.162231445312500000e-01
8.000000000000000000e+00,3.000000000000000000e+00,2.600000000000000000e+01,1.900000000000000000e+01,2.800000000000000000e+01,6.000000000000000000e+00,6.000000000000000000e+00,1.000000000000000000e+00,1.251220703125000000e-01,-5.471191406250000000e-01,-1.373901367187500000e-01,-8.162231445312500000e-01
1.000000000000000000e+01,-9.000000000000000000e+00,-1.100000000000000000e+01,-1.000000000000000000e+00,2.000000000000000000e+00,1.000000000000000000e+00,-5.000000000000000000e+00,-4.000000000000000000e+00,1.256713867187500000e-01,-5.469970703125000000e-01,-1.378173828125000000e-01,-8.161621093750000000e-01
-1.200000000000000000e+01,0.000000000000000000e+00,-1.100000000000000000e+01,-1.300000000000000000e+01,-8.000000000000000000e+00,-4.000000000000000000e+00,2.000000000000000000e+00,-1.000000000000000000e+00,1.256713867187500000e-01,-5.469970703125000000e-01,-1.378173828125000000e-01,-8.161621093750000000e-01
-4.000000000000000000e+00,-1.000000000000000000e+00,-1.000000000000000000e+01,-5.000000000000000000e+00,0.000000000000000000e+00,0.000000000000000000e+00,-3.000000000000000000e+00,-1.000000000000000000e+00,1.256713867187500000e-01,-5.469970703125000000e-01,-1.378173828125000000e-01,-8.161621093750000000e-01
2.000000000000000000e+00,3.000000000000000000e+00,-6.000000000000000000e+00,-3.000000000000000000e+01,-1.300000000000000000e+01,-3.000000000000000000e+00,7.000000000000000000e+00,1.000000000000000000e+00,1.256713867187500000e-01,-5.469970703125000000e-01,-1.378173828125000000e-01,-8.161621093750000000e-01
1.000000000000000000e+01,-2.000000000000000000e+00,0.000000000000000000e+00,2.600000000000000000e+01,2.000000000000000000e+00,0.000000000000000000e+00,-5.000000000000000000e+00,-2.000000000000000000e+00,1.260375976562500000e-01,-5.469360351562500000e-01,-1.375732421875000000e-01,-8.161621093750000000e-01
1.000000000000000000e+00,0.000000000000000000e+00,9.000000000000000000e+00,-1.000000000000000000e+00,1.000000000000000000e+00,-1.000000000000000000e+00,-5.000000000000000000e+00,-4.000000000000000000e+00,1.260375976562500000e-01,-5.469360351562500000e-01,-1.375732421875000000e-01,-8.161621093750000000e-01
5.000000000000000000e+00,2.000000000000000000e+00,-6.000000000000000000e+00,4.000000000000000000e+00,3.000000000000000000e+00,3.000000000000000000e+00,0.000000000000000000e+00,3.000000000000000000e+00,1.260375976562500000e-01,-5.469360351562500000e-01,-1.375732421875000000e-01,-8.161621093750000000e-01
3.000000000000000000e+00,-2.000000000000000000e+00,-1.000000000000000000e+00,-2.000000000000000000e+00,-6.000000000000000000e+00,0.000000000000000000e+00,1.900000000000000000e+01,1.100000000000000000e+01,1.260375976562500000e-01,-5.469360351562500000e-01,-1.375732421875000000e-01,-8.161621093750000000e-01
-2.100000000000000000e+01,-1.000000000000000000e+00,0.000000000000000000e+00,-8.000000000000000000e+00,-1.000000000000000000e+00,-1.000000000000000000e+00,-3.000000000000000000e+00,0.000000000000000000e+00,1.260375976562500000e-01,-5.468750000000000000e-01,-1.367187500000000000e-01,-8.163452148437500000e-01
5.000000000000000000e+00,0.000000000000000000e+00,6.000000000000000000e+00,1.000000000000000000e+00,-3.000000000000000000e+00,-3.000000000000000000e+00,-2.000000000000000000e+00,-9.000000000000000000e+00,1.260375976562500000e-01,-5.468750000000000000e-01,-1.367187500000000000e-01,-8.163452148437500000e-01
-4.000000000000000000e+00,-2.000000000000000000e+00,-4.000000000000000000e+00,5.000000000000000000e+00,3.000000000000000000e+00,1.000000000000000000e+00,-4.000000000000000000e+00,-3.000000000000000000e+00,1.260375976562500000e-01,-5.468750000000000000e-01,-1.367187500000000000e-01,-8.163452148437500000e-01
-1.000000000000000000e+00,3.000000000000000000e+00,5.000000000000000000e+00,6.000000000000000000e+00,-4.000000000000000000e+00,-3.000000000000000000e+00,-1.100000000000000000e+01,-1.000000000000000000e+00,1.260375976562500000e-01,-5.468750000000000000e-01,-1.367187500000000000e-01,-8.163452148437500000e-01
5.000000000000000000e+00,4.000000000000000000e+00,-1.300000000000000000e+01,-1.200000000000000000e+01,-1.000000000000000000e+00,2.000000000000000000e+00,6.000000000000000000e+00,5.000000000000000000e+00,1.256103515625000000e-01,-5.472412109375000000e-01,-1.361694335937500000e-01,-8.162841796875000000e-01
-7.000000000000000000e+00,-5.000000000000000000e+00,-7.000000000000000000e+00,3.000000000000000000e+00,0.000000000000000000e+00,-3.000000000000000000e+00,0.000000000000000000e+00,1.000000000000000000e+00,1.256103515625000000e-01,-5.472412109375000000e-01,-1.361694335937500000e-01,-8.162841796875000000e-01
-8.000000000000000000e+00,-4.000000000000000000e+00,2.000000000000000000e+00,-1.100000000000000000e+01,-4.000000000000000000e+00,-2.000000000000000000e+00,-5.000000000000000000e+00,-1.000000000000000000e+01,1.256103515625000000e-01,-5.472412109375000000e-01,-1.361694335937500000e-01,-8.162841796875000000e-01
1.000000000000000000e+00,-1.000000000000000000e+01,-3.800000000000000000e+01,-1.400000000000000000e+01,-1.100000000000000000e+01,-6.000000000000000000e+00,-2.000000000000000000e+00,3.000000000000000000e+00,1.256103515625000000e-01,-5.472412109375000000e-01,-1.361694335937500000e-01,-8.162841796875000000e-01
6.000000000000000000e+00,1.200000000000000000e+01,4.200000000000000000e+01,5.000000000000000000e+00,3.000000000000000000e+00,1.000000000000000000e+00,0.000000000000000000e+00,0.000000000000000000e+00,1.258544921875000000e-01,-5.473022460937500000e-01,-1.365356445312500000e-01,-8.161010742187500000e-01
-6.000000000000000000e+00,1.500000000000000000e+01,2.000000000000000000e+01,4.000000000000000000e+00,5.000000000000000000e+00,1.000000000000000000e+00,-4.000000000000000000e+00,-1.000000000000000000e+00,1.258544921875000000e-01,-5.473022460937500000e-01,-1.365356445312500000e-01,-8.161010742187500000e-01
0.000000000000000000e+00,-6.000000000000000000e+00,-1.600000000000000000e+01,0.000000000000000000e+00,1.000000000000000000e+00,-6.000000000000000000e+00,0.000000000000000000e+00,-2.000000000000000000e+00,1.258544921875000000e-01,-5.473022460937500000e-01,-1.365356445312500000e-01,-8.161010742187500000e-01
1.400000000000000000e+01,6.000000000000000000e+00,0.000000000000000000e+00,3.000000000000000000e+00,-3.000000000000000000e+00,0.000000000000000000e+00,-1.000000000000000000e+00,-1.000000000000000000e+00,1.258544921875000000e-01,-5.473022460937500000e-01,-1.365356445312500000e-01,-8.161010742187500000e-01
-4.400000000000000000e+01,-1.400000000000000000e+01,-9.000000000000000000e+00,-1.300000000000000000e+01,-9.000000000000000000e+00,-1.000000000000000000e+00,-5.000000000000000000e+00,-7.000000000000000000e+00,1.262817382812500000e-01,-5.472412109375000000e-01,-1.371459960937500000e-01,-8.160400390625000000e-01
1.400000000000000000e+01,-1.000000000000000000e+00,7.000000000000000000e+00,2.000000000000000000e+01,0.000000000000000000e+00,1.000000000000000000e+00,4.000000000000000000e+00,9.000000000000000000e+00,1.262817382812500000e-01,-5.472412109375000000e-01,-1.371459960937500000e-01,-8.160400390625000000e-01
-2.000000000000000000e+00,2.000000000000000000e+00,-4.000000000000000000e+00,-7.000000000000000000e+00,-1.000000000000000000e+00,-4.000000000000000000e+00,-4.000000000000000000e+00,-3.000000000000000000e+00,1.262817382812500000e-01,-5.472412109375000000e-01,-1.371459960937500000e-01,-8.160400390625000000e-01
-8.000000000000000000e+00,-6.000000000000000000e+00,2.000000000000000000e+01,9.000000000000000000e+00,-3.000000000000000000e+00,-4.000000000000000000e+00,-4.000000000000000000e+00,-5.000000000000000000e+00,1.262817382812500000e-01,-5.472412109375000000e-01,-1.371459960937500000e-01,-8.160400390625000000e-01
1.300000000000000000e+01,3.000000000000000000e+00,-1.200000000000000000e+01,-3.000000000000000000e+00,1.000000000000000000e+00,-2.000000000000000000e+00,1.000000000000000000e+00,5.000000000000000000e+00,1.263427734375000000e-01,-5.471801757812500000e-01,-1.371459960937500000e-01,-8.160400390625000000e-01
-2.000000000000000000e+00,0.000000000000000000e+00,7.000000000000000000e+00,-8.000000000000000000e+00,-4.000000000000000000e+00,-2.000000000000000000e+00,3.000000000000000000e+00,3.000000000000000000e+00,1.263427734375000000e-01,-5.471801757812500000e-01,-1.371459960937500000e-01,-8.160400390625000000e-01
-5.000000000000000000e+00,1.000000000000000000e+00,2.000000000000000000e+00,4.000000000000000000e+00,5.000000000000000000e+00,0.000000000000000000e+00,-9.000000000000000000e+00,-4.000000000000000000e+00,1.263427734375000000e-01,-5.471801757812500000e-01,-1.371459960937500000e-01,-8.160400390625000000e-01
-1.300000000000000000e+01,-2.000000000000000000e+00,-1.500000000000000000e+01,-1.000000000000000000e+00,-1.000000000000000000e+00,-3.000000000000000000e+00,-1.100000000000000000e+01,-9.000000000000000000e+00,1.263427734375000000e-01,-5.471801757812500000e-01,-1.371459960937500000e-01,-8.160400390625000000e-01
0.000000000000000000e+00,-9.000000000000000000e+00,-4.000000000000000000e+00,0.000000000000000000e+00,2.000000000000000000e+00,2.000000000000000000e+00,5.000000000000000000e+00,-3.000000000000000000e+00,1.257934570312500000e-01,-5.472412109375000000e-01,-1.363525390625000000e-01,-8.162231445312500000e-01
-4.000000000000000000e+00,0.000000000000000000e+00,6.000000000000000000e+00,-6.000000000000000000e+00,-5.000000000000000000e+00,-4.000000000000000000e+00,0.000000000000000000e+00,3.000000000000000000e+00,1.257934570312500000e-01,-5.472412109375000000e-01,-1.363525390625000000e-01,-8.162231445312500000e-01
