1.000000000000000000e+00,9.000000000000000000e+00,-6.000000000000000000e+00,-1.000000000000000000e+01,5.000000000000000000e+00,4.000000000000000000e+00,3.000000000000000000e+00,1.000000000000000000e+00,4.766845703125000000e-02,5.054321289062500000e-01,-1.846923828125000000e-01,8.414916992187500000e-01
-4.000000000000000000e+00,-8.000000000000000000e+00,1.000000000000000000e+00,1.400000000000000000e+01,0.000000000000000000e+00,-1.000000000000000000e+00,-4.000000000000000000e+00,-1.000000000000000000e+00,4.766845703125000000e-02,5.054321289062500000e-01,-1.846923828125000000e-01,8.414916992187500000e-01
0.000000000000000000e+00,1.000000000000000000e+00,5.000000000000000000e+00,1.500000000000000000e+01,-1.000000000000000000e+00,-2.000000000000000000e+00,-1.000000000000000000e+00,0.000000000000000000e+00,4.754638671875000000e-02,5.051879882812500000e-01,-1.853027343750000000e-01,8.414916992187500000e-01
-4.000000000000000000e+00,-1.900000000000000000e+01,9.000000000000000000e+00,-1.100000000000000000e+01,1.000000000000000000e+00,0.000000000000000000e+00,-3.000000000000000000e+00,-2.000000000000000000e+00,4.754638671875000000e-02,5.051879882812500000e-01,-1.853027343750000000e-01,8.414916992187500000e-01
1.000000000000000000e+00,-5.800000000000000000e+01,1.900000000000000000e+01,6.000000000000000000e+00,1.000000000000000000e+00,3.000000000000000000e+00,2.000000000000000000e+00,1.000000000000000000e+00,4.754638671875000000e-02,5.051879882812500000e-01,-1.853027343750000000e-01,8.414916992187500000e-01
-3.000000000000000000e+00,-3.800000000000000000e+01,-2.500000000000000000e+01,-9.000000000000000000e+00,-5.000000000000000000e+00,-5.000000000000000000e+00,-2.000000000000000000e+00,-1.000000000000000000e+00,4.754638671875000000e-02,5.051879882812500000e-01,-1.853027343750000000e-01,8.414916992187500000e-01
0.000000000000000000e+00,-8.000000000000000000e+00,-2.000000000000000000e+00,-1.000000000000000000e+00,-1.000000000000000000e+00,0.000000000000000000e+00,1.000000000000000000e+00,0.000000000000000000e+00,4.742431640625000000e-02,5.048828125000000000e-01,-1.857299804687500000e-01,8.416137695312500000e-01
-2.000000000000000000e+00,2.800000000000000000e+01,-1.800000000000000000e+01,-1.500000000000000000e+01,-1.000000000000000000e+00,1.000000000000000000e+00,-1.000000000000000000e+00,0.000000000000000000e+00,4.742431640625000000e-02,5.048828125000000000e-01,-1.857299804687500000e-01,8.416137695312500000e-01
-4.000000000000000000e+00,3.000000000000000000e+01,7.000000000000000000e+00,5.000000000000000000e+00,-2.000000000000000000e+00,-4.000000000000000000e+00,-2.000000000000000000e+00,-1.000000000000000000e+00,4.742431640625000000e-02,5.048828125000000000e-01,-1.857299804687500000e-01,8.416137695312500000e-01
-1.000000000000000000e+00,2.500000000000000000e+01,1.000000000000000000e+01,-1.000000000000000000e+00,0.000000000000000000e+00,3.000000000000000000e+00,2.000000000000000000e+00,0.000000000000000000e+00,4.742431640625000000e-02,5.048828125000000000e-01,-1.857299804687500000e-01,8.416137695312500000e-01
2.000000000000000000e+00,2.800000000000000000e+01,2.000000000000000000e+00,-4.000000000000000000e+00,-5.000000000000000000e+00,-6.000000000000000000e+00,-5.000000000000000000e+00,-1.000000000000000000e+00,4.699707031250000000e-02,5.046386718750000000e-01,-1.860351562500000000e-01,8.416748046875000000e-01
-3.000000000000000000e+00,7.000000000000000000e+00,-2.100000000000000000e+01,7.000000000000000000e+00,3.000000000000000000e+00,2.000000000000000000e+00,-1.000000000000000000e+00,-3.000000000000000000e+00,4.699707031250000000e-02,5.046386718750000000e-01,-1.860351562500000000e-01,8.416748046875000000e-01
1.000000000000000000e+00,1.400000000000000000e+01,-5.000000000000000000e+00,2.000000000000000000e+00,-2.000000000000000000e+00,-5.000000000000000000e+00,-2.000000000000000000e+00,0.000000000000000000e+00,4.699707031250000000e-02,5.046386718750000000e-01,-1.860351562500000000e-01,8.416748046875000000e-01
-2.000000000000000000e+00,2.000000000000000000e+00,1.000000000000000000e+00,1.100000000000000000e+01,0.000000000000000000e+00,1.000000000000000000e+00,-1.000000000000000000e+00,-2.000000000000000000e+00,4.699707031250000000e-02,5.046386718750000000e-01,-1.860351562500000000e-01,8.416748046875000000e-01
-1.000000000000000000e+00,6.000000000000000000e+00,1.300000000000000000e+01,-2.800000000000000000e+01,-1.100000000000000000e+01,-1.000000000000000000e+00,0.000000000000000000e+00,-2.000000000000000000e+00,4.675292968750000000e-02,5.043945312500000000e-01,-1.864624023437500000e-01,8.417358398437500000e-01
-1.000000000000000000e+00,-5.000000000000000000e+00,-1.400000000000000000e+01,6.000000000000000000e+00,-3.000000000000000000e+00,-5.000000000000000000e+00,-1.000000000000000000e+00,-1.000000000000000000e+00,4.675292968750000000e-02,5.043945312500000000e-01,-1.864624023437500000e-01,8.417358398437500000e-01
-1.000000000000000000e+00,-1.000000000000000000e+00,-1.500000000000000000e+01,-5.000000000000000000e+00,-1.000000000000000000e+00,0.000000000000000000e+00,1.000000000000000000e+00,-1.000000000000000000e+00,4.675292968750000000e-02,5.043945312500000000e-01,-1.864624023437500000e-01,8.417358398437500000e-01
0.000000000000000000e+00,3.000000000000000000e+00,4.000000000000000000e+00,1.000000000000000000e+01,1.000000000000000000e+00,1.000000000000000000e+00,-3.000000000000000000e+00,-1.000000000000000000e+00,4.675292968750000000e-02,5.043945312500000000e-01,-1.864624023437500000e-01,8.417358398437500000e-01
-1.000000000000000000e+00,-6.000000000000000000e+00,1.900000000000000000e+01,-8.000000000000000000e+00,-4.000000000000000000e+00,-3.000000000000000000e+00,0.000000000000000000e+00,-2.000000000000000000e+00,4.681396484375000000e-02,5.043334960937500000e-01,-1.868286132812500000e-01,8.417358398437500000e-01
-3.000000000000000000e+00,-1.300000000000000000e+01,-3.100000000000000000e+01,-8.000000000000000000e+00,0.000000000000000000e+00,3.000000000000000000e+00,-1.000000000000000000e+00,-2.000000000000000000e+00,4.681396484375000000e-02,5.043334960937500000e-01,-1.868286132812500000e-01,8.417358398437500000e-01
0.000000000000000000e+00,1.100000000000000000e+01,-2.000000000000000000e+00,-1.500000000000000000e+01,-4.000000000000000000e+00,-1.000000000000000000e+00,-1.000000000000000000e+00,-2.000000000000000000e+00,4.681396484375000000e-02,5.043334960937500000e-01,-1.868286132812500000e-01,8.417358398437500000e-01
-3.000000000000000000e+00,-5.000000000000000000e+00,7.000000000000000000e+00,3.000000000000000000e+00,-2.000000000000000000e+00,-7.000000000000000000e+00,-3.000000000000000000e+00,-2.000000000000000000e+00,4.681396484375000000e-02,5.043334960937500000e-01,-1.868286132812500000e-01,8.417358398437500000e-01
-1.000000000000000000e+00,-8.000000000000000000e+00,-1.100000000000000000e+01,6.000000000000000000e+00,6.000000000000000000e+00,4.000000000000000000e+00,1.000000000000000000e+00,-1.000000000000000000e+00,4.687500000000000000e-02,5.042114257812500000e-01,-1.870727539062500000e-01,8.417358398437500000e-01
1.000000000000000000e+00,-6.000000000000000000e+00,-9.000000000000000000e+00,-1.000000000000000000e+00,-3.000000000000000000e+00,-3.000000000000000000e+00,-1.000000000000000000e+00,1.000000000000000000e+00,4.687500000000000000e-02,5.042114257812500000e-01,-1.870727539062500000e-01,8.417358398437500000e-01
-3.000000000000000000e+00,-7.000000000000000000e+00,-4.000000000000000000e+00,0.000000000000000000e+00,0.000000000000000000e+00,-1.000000000000000000e+00,0.000000000000000000e+00,0.000000000000000000e+00,4.687500000000000000e-02,5.042114257812500000e-01,-1.870727539062500000e-01,8.417358398437500000e-01
2.000000000000000000e+00,8.000000000000000000e+00,-8.000000000000000000e+00,-8.000000000000000000e+00,1.000000000000000000e+00,4.000000000000000000e+00,1.000000000000000000e+00,1.000000000000000000e+00,4.687500000000000000e-02,5.042114257812500000e-01,-1.870727539062500000e-01,8.417358398437500000e-01
0.000000000000000000e+00,1.000000000000000000e+00,9.000000000000000000e+00,1.000000000000000000e+00,-4.000000000000000000e+00,-5.000000000000000000e+00,-4.000000000000000000e+00,-1.000000000000000000e+00,4.699707031250000000e-02,5.039062500000000000e-01,-1.871948242187500000e-01,8.418579101562500000e-01
0.000000000000000000e+00,2.000000000000000000e+00,-3.000000000000000000e+00,-8.000000000000000000e+00,-2.000000000000000000e+00,-4.000000000000000000e+00,-2.000000000000000000e+00,-3.000000000000000000e+00,4.699707031250000000e-02,5.039062500000000000e-01,-1.871948242187500000e-01,8.418579101562500000e-01
0.000000000000000000e+00,-4.000000000000000000e+00,-3.000000000000000000e+00,7.000000000000000000e+00,3.000000000000000000e+00,1.000000000000000000e+00,1.000000000000000000e+00,0.000000000000000000e+00,4.699707031250000000e-02,5.039062500000000000e-01,-1.871948242187500000e-01,8.418579101562500000e-01
-2.000000000000000000e+00,-3.000000000000000000e+00,7.000000000000000000e+00,-3.000000000000000000e+00,-2.000000000000000000e+00,-4.000000000000000000e+00,-2.000000000000000000e+00,-1.000000000000000000e+00,4.699707031250000000e-02,5.039062500000000000e-01,-1.871948242187500000e-01,8.418579101562500000e-01
2.000000000000000000e+00,-1.000000000000000000e+00,-5.000000000000000000e+00,5.000000000000000000e+00,2.000000000000000000e+00,2.000000000000000000e+00,1.000000000000000000e+00,3.000000000000000000e+00,4.699707031250000000e-02,5.034790039062500000e-01,-1.871337890625000000e-01,8.421630859375000000e-01
-1.000000000000000000e+00,-5.000000000000000000e+00,-1.000000000000000000e+01,-7.000000000000000000e+00,-1.000000000000000000e+00,-2.000000000000000000e+00,-2.000000000000000000e+00,-1.000000000000000000e+00,4.699707031250000000e-02,5.034790039062500000e-01,-1.871337890625000000e-01,8.421630859375000000e-01
0.000000000000000000e+00,-1.000000000000000000e+00,-3.000000000000000000e+00,0.000000000000000000e+00,-1.000000000000000000e+00,-1.000000000000000000e+00,-2.000000000000000000e+00,-1.000000000000000000e+00,4.699707031250000000e-02,5.034790039062500000e-01,-1.871337890625000000e-01,8.421630859375000000e-01
0.000000000000000000e+00,-2.000000000000000000e+00,-1.000000000000000000e+00,-7.000000000000000000e+00,1.000000000000000000e+00,-2.000000000000000000e+00,-1.000000000000000000e+00,-2.000000000000000000e+00,4.699707031250000000e-02,5.034790039062500000e-01,-1.871337890625000000e-01,8.421630859375000000e-01
-4.000000000000000000e+00,-4.000000000000000000e+00,-2.000000000000000000e+00,2.000000000000000000e+00,-2.000000000000000000e+00,-3.000000000000000000e+00,-2.000000000000000000e+00,0.000000000000000000e+00,4.705810546875000000e-02,5.032348632812500000e-01,-1.869506835937500000e-01,8.423461914062500000e-01
1.000000000000000000e+00,-4.000000000000000000e+00,-1.000000000000000000e+00,1.000000000000000000e+00,-2.000000000000000000e+00,0.000000000000000000e+00,1.000000000000000000e+00,0.000000000000000000e+00,4.705810546875000000e-02,5.032348632812500000e-01,-1.869506835937500000e-01,8.423461914062500000e-01
-2.000000000000000000e+00,-3.000000000000000000e+00,-4.000000000000000000e+00,-5.000000000000000000e+00,-1.000000000000000000e+00,-1.000000000000000000e+00,0.000000000000000000e+00,-2.000000000000000000e+00,4.705810546875000000e-02,5.032348632812500000e-01,-1.869506835937500000e-01,8.423461914062500000e-01
2.000000000000000000e+00,0.000000000000000000e+00,1.300000000000000000e+01,3.300000000000000000e+01,4.000000000000000000e+00,2.000000000000000000e+00,1.000000000000000000e+00,-1.000000000000000000e+00,4.705810546875000000e-02,5.032348632812500000e-01,-1.869506835937500000e-01,8.423461914062500000e-01
-2.000000000000000000e+00,-3.000000000000000000e+00,-2.500000000000000000e+01,-4.100000000000000000e+01,-4.000000000000000000e+00,-2.000000000000000000e+00,-1.000000000000000000e+00,-1.000000000000000000e+00,4.766845703125000000e-02,5.029296875000000000e-01,-1.870727539062500000e-01,8.424682617187500000e-01
0.000000000000000000e+00,7.000000000000000000e+00,2.600000000000000000e+01,4.000000000000000000e+00,4.000000000000000000e+00,3.000000000000000000e+00,2.000000000000000000e+00,0.000000000000000000e+00,4.766845703125000000e-02,5.029296875000000000e-01,-1.870727539062500000e-01,8.424682617187500000e-01
-7.000000000000000000e+00,-1.300000000000000000e+01,-5.000000000000000000e+00,-5.000000000000000000e+00,-1.100000000000000000e+01,-6.000000000000000000e+00,-5.000000000000000000e+00,-5.000000000000000000e+00,4.766845703125000000e-02,5.029296875000000000e-01,-1.870727539062500000e-01,8.424682617187500000e-01
1.000000000000000000e+00,9.000000000000000000e+00,-1.500000000000000000e+01,-1.000000000000000000e+01,-4.000000000000000000e+00,-3.000000000000000000e+00,-2.000000000000000000e+00,0.000000000000000000e+00,4.766845703125000000e-02,5.029296875000000000e-01,-1.870727539062500000e-01,8.424682617187500000e-01
-3.000000000000000000e+00,-4.000000000000000000e+00,2.000000000000000000e+01,1.800000000000000000e+01,4.000000000000000000e+00,0.000000000000000000e+00,0.000000000000000000e+00,-3.000000000000000000e+00,4.870605468750000000e-02,5.026245117187500000e-01,-1.870727539062500000e-01,8.425903320312500000e-01
2.000000000000000000e+00,1.000000000000000000e+00,4.000000000000000000e+00,-1.000000000000000000e+01,1.000000000000000000e+00,1.000000000000000000e+00,0.000000000000000000e+00,1.000000000000000000e+00,4.870605468750000000e-02,5.026245117187500000e-01,-1.870727539062500000e-01,8.425903320312500000e-01
1.000000000000000000e+00,5.000000000000000000e+00,0.000000000000000000e+00,7.000000000000000000e+00,3.000000000000000000e+00,0.000000000000000000e+00,-2.000000000000000000e+00,-2.000000000000000000e+00,4.870605468750000000e-02,5.026245117187500000e-01,-1.870727539062500000e-01,8.425903320312500000e-01
2.000000000000000000e+00,-3.000000000000000000e+00,-5.000000000000000000e+00,-6.000000000000000000e+00,-4.000000000000000000e+00,-2.000000000000000000e+00,-1.000000000000000000e+00,-1.000000000000000000e+00,4.870605468750000000e-02,5.026245117187500000e-01,-1.870727539062500000e-01,8.425903320312500000e-01
-3.000000000000000000e+00,-5.000000000000000000e+00,1.000000000000000000e+00,6.000000000000000000e+00,-1.000000000000000000e+00,4.000000000000000000e+00,2.000000000000000000e+00,-1.000000000000000000e+00,4.956054687500000000e-02,5.023803710937500000e-01,-1.866455078125000000e-01,8.427734375000000000e-01
-2.000000000000000000e+00,-3.000000000000000000e+00,2.300000000000000000e+01,-2.000000000000000000e+00,0.000000000000000000e+00,-3.000000000000000000e+00,0.000000000000000000e+00,-1.000000000000000000e+00,4.956054687500000000e-02,5.023803710937500000e-01,-1.866455078125000000e-01,8.427734375000000000e-01
0.000000000000000000e+00,-5.000000000000000000e+00,-6.200000000000000000e+01,7.000000000000000000e+00,2.000000000000000000e+00,-1.000000000000000000e+00,0.000000000000000000e+00,1.000000000000000000e+00,4.956054687500000000e-02,5.023803710937500000e-01,-1.866455078125000000e-01,8.427734375000000000e-01
1.000000000000000000e+00,2.000000000000000000e+00,7.000000000000000000e+00,-1.800000000000000000e+01,-6.000000000000000000e+00,-5.000000000000000000e+00,-4.000000000000000000e+00,-1.000000000000000000e+00,4.956054687500000000e-02,5.023803710937500000e-01,-1.866455078125000000e-01,8.427734375000000000e-01
-3.000000000000000000e+00,-3.000000000000000000e+00,3.000000000000000000e+00,6.000000000000000000e+00,5.000000000000000000e+00,5.000000000000000000e+00,0.000000000000000000e+00,-2.000000000000000000e+00,4.968261718750000000e-02,5.020751953125000000e-01,-1.859130859375000000e-01,8.430786132812500000e-01
0.000000000000000000e+00,2.000000000000000000e+00,1.100000000000000000e+01,1.000000000000000000e+00,-4.000000000000000000e+00,0.000000000000000000e+00,0.000000000000000000e+00,1.000000000000000000e+00,4.968261718750000000e-02,5.020751953125000000e-01,-1.859130859375000000e-01,8.430786132812500000e-01
1.000000000000000000e+00,2.000000000000000000e+00,2.000000000000000000e+01,1.000000000000000000e+00,2.000000000000000000e+00,0.000000000000000000e+00,-1.000000000000000000e+00,0.000000000000000000e+00,4.968261718750000000e-02,5.020751953125000000e-01,-1.859130859375000000e-01,8.430786132812500000e-01
-2.000000000000000000e+00,-1.000000000000000000e+00,-9.000000000000000000e+00,8.000000000000000000e+00,1.000000000000000000e+00,-1.000000000000000000e+00,-1.000000000000000000e+00,0.000000000000000000e+00,4.968261718750000000e-02,5.020751953125000000e-01,-1.859130859375000000e-01,8.430786132812500000e-01
0.000000000000000000e+00,-3.000000000000000000e+00,-1.000000000000000000e+01,1.000000000000000000e+00,-1.000000000000000000e+00,-2.000000000000000000e+00,-3.000000000000000000e+00,-2.000000000000000000e+00,5.035400390625000000e-02,5.024414062500000000e-01,-1.858520507812500000e-01,8.428955078125000000e-01
-1.000000000000000000e+00,-1.000000000000000000e+00,4.000000000000000000e+00,-8.000000000000000000e+00,-2.000000000000000000e+00,0.000000000000000000e+00,-2.000000000000000000e+00,-1.000000000000000000e+00,5.035400390625000000e-02,5.024414062500000000e-01,-1.858520507812500000e-01,8.428955078125000000e-01
0.000000000000000000e+00,1.000000000000000000e+00,7.000000000000000000e+00,0.000000000000000000e+00,-3.000000000000000000e+00,-1.000000000000000000e+00,0.000000000000000000e+00,0.000000000000000000e+00,5.035400390625000000e-02,5.024414062500000000e-01,-1.858520507812500000e-01,8.428955078125000000e-01
-2.000000000000000000e+00,0.000000000000000000e+00,6.000000000000000000e+00,-1.100000000000000000e+01,-3.000000000000000000e+00,0.000000000000000000e+00,-2.000000000000000000e+00,-3.000000000000000000e+00,5.035400390625000000e-02,5.024414062500000000e-01,-1.858520507812500000e-01,8.428955078125000000e-01
-1.000000000000000000e+00,-4.000000000000000000e+00,-1.500000000000000000e+01,8.000000000000000000e+00,-1.000000000000000000e+00,-3.000000000000000000e+00,-2.000000000000000000e+00,-1.000000000000000000e+00,5.169677734375000000e-02,5.031738281250000000e-01,-1.857299804687500000e-01,8.423461914062500000e-01
-1.000000000000000000e+00,-4.000000000000000000e+00,-2.000000000000000000e+01,1.800000000000000000e+01,3.000000000000000000e+00,0.000000000000000000e+00,0.000000000000000000e+00,-1.000000000000000000e+00,5.169677734375000000e-02,5.031738281250000000e-01,-1.857299804687500000e-01,8.423461914062500000e-01
0.000000000000000000e+00,7.000000000000000000e+00,1.500000000000000000e+01,-2.400000000000000000e+01,-2.000000000000000000e+00,5.000000000000000000e+00,3.000000000000000000e+00,2.000000000000000000e+00,5.169677734375000000e-02,5.031738281250000000e-01,-1.857299804687500000e-01,8.423461914062500000e-01
0.000000000000000000e+00,-2.000000000000000000e+00,5.000000000000000000e+00,3.000000000000000000e+00,-1.000000000000000000e+00,-2.000000000000000000e+00,-2.000000000000000000e+00,-1.000000000000000000e+00,5.169677734375000000e-02,5.031738281250000000e-01,-1.857299804687500000e-01,8.423461914062500000e-01
-1.000000000000000000e+00,0.000000000000000000e+00,1.000000000000000000e+00,-6.000000000000000000e+00,-1.000000000000000000e+00,3.000000000000000000e+00,0.000000000000000000e+00,-2.000000000000000000e+00,5.212402343750000000e-02,5.039672851562500000e-01,-1.853027343750000000e-01,8.419799804687500000e-01
-3.000000000000000000e+00,-1.000000000000000000e+01,-1.100000000000000000e+01,3.000000000000000000e+00,-3.000000000000000000e+00,-1.000000000000000000e+00,-1.000000000000000000e+00,-3.000000000000000000e+00,5.212402343750000000e-02,5.039672851562500000e-01,-1.853027343750000000e-01,8.419799804687500000e-01
-4.000000000000000000e+00,3.000000000000000000e+00,8.000000000000000000e+00,-3.000000000000000000e+00,0.000000000000000000e+00,-1.000000000000000000e+00,1.000000000000000000e+00,-1.000000000000000000e+00,5.212402343750000000e-02,5.039672851562500000e-01,-1.853027343750000000e-01,8.419799804687500000e-01
-2.000000000000000000e+00,-2.000000000000000000e+00,7.000000000000000000e+00,9.000000000000000000e+00,0.000000000000000000e+00,-2.000000000000000000e+00,-2.000000000000000000e+00,-2.000000000000000000e+00,5.212402343750000000e-02,5.039672851562500000e-01,-1.853027343750000000e-01,8.419799804687500000e-01
1.000000000000000000e+00,1.000000000000000000e+00,-7.000000000000000000e+00,-1.400000000000000000e+01,0.000000000000000000e+00,-1.000000000000000000e+00,-1.000000000000000000e+00,1.000000000000000000e+00,5.200195312500000000e-02,5.050659179687500000e-01,-1.854248046875000000e-01,8.412475585937500000e-01
-1.000000000000000000e+00,-3.000000000000000000e+00,-1.400000000000000000e+01,-1.100000000000000000e+01,-2.000000000000000000e+00,0.000000000000000000e+00,0.000000000000000000e+00,0.000000000000000000e+00,5.200195312500000000e-02,5.050659179687500000e-01,-1.854248046875000000e-01,8.412475585937500000e-01
1.000000000000000000e+00,-1.000000000000000000e+00,1.300000000000000000e+01,1.500000000000000000e+01,1.000000000000000000e+00,-2.000000000000000000e+00,-1.000000000000000000e+00,-3.000000000000000000e+00,5.200195312500000000e-02,5.050659179687500000e-01,-1.854248046875000000e-01,8.412475585937500000e-01
-2.000000000000000000e+00,-4.000000000000000000e+00,-6.000000000000000000e+00,-6.000000000000000000e+00,0.000000000000000000e+00,2.000000000000000000e+00,3.000000000000000000e+00,0.000000000000000000e+00,5.200195312500000000e-02,5.050659179687500000e-01,-1.854248046875000000e-01,8.412475585937500000e-01
-1.000000000000000000e+00,-1.000000000000000000e+00,6.000000000000000000e+00,1.600000000000000000e+01,-3.000000000000000000e+00,-1.000000000000000000e+00,-1.000000000000000000e+00,-1.000000000000000000e+00,5.139160156250000000e-02,5.062866210937500000e-01,-1.851196289062500000e-01,8.406372070312500000e-01
-5.000000000000000000e+00,-5.000000000000000000e+00,-3.000000000000000000e+00,-1.400000000000000000e+01,-4.000000000000000000e+00,-5.000000000000000000e+00,-5.000000000000000000e+00,-4.000000000000000000e+00,5.139160156250000000e-02,5.062866210937500000e-01,-1.851196289062500000e-01,8.406372070312500000e-01
1.000000000000000000e+00,6.000000000000000000e+00,1.000000000000000000e+01,-9.000000000000000000e+00,-5.000000000000000000e+00,-3.000000000000000000e+00,-3.000000000000000000e+00,-1.000000000000000000e+00,5.139160156250000000e-02,5.062866210937500000e-01,-1.851196289062500000e-01,8.406372070312500000e-01
-2.000000000000000000e+00,-7.000000000000000000e+00,-3.100000000000000000e+01,-4.000000000000000000e+00,6.000000000000000000e+00,4.000000000000000000e+00,2.000000000000000000e+00,-2.000000000000000000e+00,5.139160156250000000e-02,5.062866210937500000e-01,-1.851196289062500000e-01,8.406372070312500000e-01
2.000000000000000000e+00,6.000000000000000000e+00,1.700000000000000000e+01,6.000000000000000000e+00,-2.000000000000000000e+00,-6.000000000000000000e+00,-2.000000000000000000e+00,0.000000000000000000e+00,5.035400390625000000e-02,5.072631835937500000e-01,-1.845703125000000000e-01,8.402099609375000000e-01
1.000000000000000000e+00,1.000000000000000000e+00,6.000000000000000000e+00,-2.000000000000000000e+00,-2.000000000000000000e+00,0.000000000000000000e+00,0.000000000000000000e+00,-1.000000000000000000e+00,5.035400390625000000e-02,5.072631835937500000e-01,-1.845703125000000000e-01,8.402099609375000000e-01
0.000000000000000000e+00,2.000000000000000000e+00,7.000000000000000000e+00,-1.300000000000000000e+01,-6.000000000000000000e+00,-1.000000000000000000e+00,-2.000000000000000000e+00,0.000000000000000000e+00,5.035400390625000000e-02,5.072631835937500000e-01,-1.845703125000000000e-01,8.402099609375000000e-01
-1.000000000000000000e+00,-5.000000000000000000e+00,4.000000000000000000e+00,1.200000000000000000e+01,1.000000000000000000e+00,0.000000000000000000e+00,-2.000000000000000000e+00,-2.000000000000000000e+00,5.035400390625000000e-02,5.072631835937500000e-01,-1.845703125000000000e-01,8.402099609375000000e-01
0.000000000000000000e+00,3.000000000000000000e+00,-1.000000000000000000e+00,-1.300000000000000000e+01,-5.000000000000000000e+00,-3.000000000000000000e+00,-1.000000000000000000e+00,0.000000000000000000e+00,5.010986328125000000e-02,5.079345703125000000e-01,-1.844482421875000000e-01,8.398437500000000000e-01
1.000000000000000000e+00,2.000000000000000000e+00,4.000000000000000000e+00,1.900000000000000000e+01,0.000000000000000000e+00,-2.000000000000000000e+00,-2.000000000000000000e+00,1.000000000000000000e+00,5.010986328125000000e-02,5.079345703125000000e-01,-1.844482421875000000e-01,8.398437500000000000e-01
-5.000000000000000000e+00,-9.000000000000000000e+00,-6.000000000000000000e+00,-1.700000000000000000e+01,3.000000000000000000e+00,0.000000000000000000e+00,-1.000000000000000000e+00,-4.000000000000000000e+00,5.010986328125000000e-02,5.079345703125000000e-01,-1.844482421875000000e-01,8.398437500000000000e-01
0.000000000000000000e+00,3.000000000000000000e+00,2.100000000000000000e+01,1.000000000000000000e+00,-4.000000000000000000e+00,-3.000000000000000000e+00,-2.000000000000000000e+00,1.000000000000000000e+00,5.010986328125000000e-02,5.079345703125000000e-01,-1.844482421875000000e-01,8.398437500000000000e-01
-3.000000000000000000e+00,-1.100000000000000000e+01,-4.000000000000000000e+01,-1.500000000000000000e+01,-1.000000000000000000e+00,-3.000000000000000000e+00,-2.000000000000000000e+00,-1.000000000000000000e+00,5.053710937500000000e-02,5.082397460937500000e-01,-1.844482421875000000e-01,8.396606445312500000e-01
0.000000000000000000e+00,2.000000000000000000e+00,3.400000000000000000e+01,2.300000000000000000e+01,3.000000000000000000e+00,1.000000000000000000e+00,-1.000000000000000000e+00,-2.000000000000000000e+00,5.053710937500000000e-02,5.082397460937500000e-01,-1.844482421875000000e-01,8.396606445312500000e-01
0.000000000000000000e+00,-1.000000000000000000e+00,-2.300000000000000000e+01,4.000000000000000000e+00,0.000000000000000000e+00,-3.000000000000000000e+00,-2.000000000000000000e+00,-1.000000000000000000e+00,5.053710937500000000e-02,5.082397460937500000e-01,-1.844482421875000000e-01,8.396606445312500000e-01
-3.000000000000000000e+00,0.000000000000000000e+00,5.000000000000000000e+00,-4.000000000000000000e+00,-1.000000000000000000e+00,-4.000000000000000000e+00,-2.000000000000000000e+00,-2.000000000000000000e+00,5.053710937500000000e-02,5.082397460937500000e-01,-1.844482421875000000e-01,8.396606445312500000e-01
-2.000000000000000000e+00,1.000000000000000000e+00,2.800000000000000000e+01,2.000000000000000000e+00,-3.000000000000000000e+00,0.000000000000000000e+00,-3.000000000000000000e+00,-3.000000000000000000e+00,5.078125000000000000e-02,5.081176757812500000e-01,-1.837768554687500000e-01,8.398437500000000000e-01
1.000000000000000000e+00,6.000000000000000000e+00,-4.100000000000000000e+01,-1.200000000000000000e+01,-4.000000000000000000e+00,-4.000000000000000000e+00,0.000000000000000000e+00,1.000000000000000000e+00,5.078125000000000000e-02,5.081176757812500000e-01,-1.837768554687500000e-01,8.398437500000000000e-01
0.000000000000000000e+00,-3.000000000000000000e+00,3.000000000000000000e+00,2.000000000000000000e+00,1.000000000000000000e+00,-1.000000000000000000e+00,-1.000000000000000000e+00,-2.000000000000000000e+00,5.078125000000000000e-02,5.081176757812500000e-01,-1.837768554687500000e-01,8.398437500000000000e-01
-1.000000000000000000e+00,-1.000000000000000000e+00,-4.000000000000000000e+00,1.000000000000000000e+01,3.000000000000000000e+00,1.000000000000000000e+00,1.000000000000000000e+00,1.000000000000000000e+00,5.078125000000000000e-02,5.081176757812500000e-01,-1.837768554687500000e-01,8.398437500000000000e-01
1.000000000000000000e+00,4.000000000000000000e+00,1.700000000000000000e+01,-1.000000000000000000e+00,-4.000000000000000000e+00,-3.000000000000000000e+00,-1.000000000000000000e+00,-1.000000000000000000e+00,5.053710937500000000e-02,5.078125000000000000e-01,-1.829223632812500000e-01,8.402709960937500000e-01
-1.000000000000000000e+00,-1.000000000000000000e+01,1.100000000000000000e+01,1.200000000000000000e+01,0.000000000000000000e+00,0.000000000000000000e+00,0.000000000000000000e+00,-1.000000000000000000e+00,5.053710937500000000e-02,5.078125000000000000e-01,-1.829223632812500000e-01,8.402709960937500000e-01
0.000000000000000000e+00,7.000000000000000000e+00,7.000000000000000000e+00,-1.100000000000000000e+01,2.000000000000000000e+00,1.000000000000000000e+00,-1.000000000000000000e+00,1.000000000000000000e+00,5.053710937500000000e-02,5.078125000000000000e-01,-1.829223632812500000e-01,8.402709960937500000e-01
0.000000000000000000e+00,1.000000000000000000e+00,-1.700000000000000000e+01,-2.000000000000000000e+00,-3.000000000000000000e+00,-1.000000000000000000e+00,-3.000000000000000000e+00,0.000000000000000000e+00,5.053710937500000000e-02,5.078125000000000000e-01,-1.829223632812500000e-01,8.402709960937500000e-01
0.000000000000000000e+00,-2.000000000000000000e+00,-7.000000000000000000e+00,-1.800000000000000000e+01,-2.000000000000000000e+00,1.000000000000000000e+00,-1.000000000000000000e+00,0.000000000000000000e+00,5.035400390625000000e-02,5.073852539062500000e-01,-1.824340820312500000e-01,8.406372070312500000e-01
-2.000000000000000000e+00,1.000000000000000000e+00,-2.000000000000000000e+00,2.200000000000000000e+01,2.000000000000000000e+00,-1.000000000000000000e+00,-1.000000000000000000e+00,1.000000000000000000e+00,5.035400390625000000e-02,5.073852539062500000e-01,-1.824340820312500000e-01,8.406372070312500000e-01
0.000000000000000000e+00,-3.000000000000000000e+00,-1.800000000000000000e+01,9.000000000000000000e+00,1.000000000000000000e+00,1.000000000000000000e+00,0.000000000000000000e+00,0.000000000000000000e+00,5.035400390625000000e-02,5.073852539062500000e-01,-1.824340820312500000e-01,8.406372070312500000e-01
2.000000000000000000e+00,1.000000000000000000e+00,1.400000000000000000e+01,-1.100000000000000000e+01,-4.000000000000000000e+00,-1.000000000000000000e+00,1.000000000000000000e+00,0.000000000000000000e+00,5.035400390625000000e-02,5.073852539062500000e-01,-1.824340820312500000e-01,8.406372070312500000e-01
-1.000000000000000000e+00,-1.000000000000000000e+00,-3.000000000000000000e+01,-1.000000000000000000e+01,3.000000000000000000e+00,2.000000000000000000e+00,2.000000000000000000e+00,-2.000000000000000000e+00,5.072021484375000000e-02,5.066528320312500000e-01,-1.824340820312500000e-01,8.410644531250000000e-01
-3.000000000000000000e+00,-3.000000000000000000e+00,3.600000000000000000e+01,8.000000000000000000e+00,-1.000000000000000000e+00,-2.000000000000000000e+00,-1.000000000000000000e+00,-1.000000000000000000e+00,5.072021484375000000e-02,5.066528320312500000e-01,-1.824340820312500000e-01,8.410644531250000000e-01
-2.000000000000000000e+00,-1.000000000000000000e+00,6.000000000000000000e+00,1.400000000000000000e+01,-2.000000000000000000e+00,1.000000000000000000e+00,-1.000000000000000000e+00,0.000000000000000000e+00,5.072021484375000000e-02,5.066528320312500000e-01,-1.824340820312500000e-01,8.410644531250000000e-01
-1.000000000000000000e+00,-3.000000000000000000e+00,-1.000000000000000000e+01,1.000000000000000000e+00,-3.000000000000000000e+00,-5.000000000000000000e+00,-3.000000000000000000e+00,-1.000000000000000000e+00,5.072021484375000000e-02,5.066528320312500000e-01,-1.824340820312500000e-01,8.410644531250000000e-01
0.000000000000000000e+00,-3.000000000000000000e+00,1.200000000000000000e+01,-2.000000000000000000e+00,2.000000000000000000e+00,-1.000000000000000000e+00,-1.000000000000000000e+00,0.000000000000000000e+00,5.114746093750000000e-02,5.058593750000000000e-01,-1.824951171875000000e-01,8.414916992187500000e-01
-1.000000000000000000e+00,-2.000000000000000000e+00,-4.800000000000000000e+01,-2.600000000000000000e+01,-2.000000000000000000e+00,-8.000000000000000000e+00,-3.000000000000000000e+00,0.000000000000000000e+00,5.114746093750000000e-02,5.058593750000000000e-01,-1.824951171875000000e-01,8.414916992187500000e-01
-3.000000000000000000e+00,-5.000000000000000000e+00,-2.700000000000000000e+01,0.000000000000000000e+00,-3.000000000000000000e+00,-3.000000000000000000e+00,-3.000000000000000000e+00,-3.000000000000000000e+00,5.114746093750000000e-02,5.058593750000000000e-01,-1.824951171875000000e-01,8.414916992187500000e-01
0.000000000000000000e+00,1.000000000000000000e+00,1.200000000000000000e+01,1.000000000000000000e+00,-1.000000000000000000e+00,3.000000000000000000e+00,4.000000000000000000e+00,1.000000000000000000e+00,5.114746093750000000e-02,5.058593750000000000e-01,-1.824951171875000000e-01,8.414916992187500000e-01
-2.000000000000000000e+00,2.000000000000000000e+00,4.300000000000000000e+01,-3.800000000000000000e+01,-1.100000000000000000e+01,-3.000000000000000000e+00,-2.000000000000000000e+00,-2.000000000000000000e+00,5.151367187500000000e-02,5.052490234375000000e-01,-1.822509765625000000e-01,8.418579101562500000e-01
-5.000000000000000000e+00,-6.000000000000000000e+00,-2.700000000000000000e+01,1.500000000000000000e+01,4.000000000000000000e+00,1.000000000000000000e+00,1.000000000000000000e+00,-4.000000000000000000e+00,5.151367187500000000e-02,5.052490234375000000e-01,-1.822509765625000000e-01,8.418579101562500000e-01
2.000000000000000000e+00,2.000000000000000000e+00,-7.000000000000000000e+00,-3.500000000000000000e+01,-7.000000000000000000e+00,-3.000000000000000000e+00,0.000000000000000000e+00,0.000000000000000000e+00,5.151367187500000000e-02,5.052490234375000000e-01,-1.822509765625000000e-01,8.418579101562500000e-01
-2.000000000000000000e+00,5.000000000000000000e+00,8.000000000000000000e+00,1.400000000000000000e+01,3.000000000000000000e+00,-4.000000000000000000e+00,0.000000000000000000e+00,-1.000000000000000000e+00,5.151367187500000000e-02,5.052490234375000000e-01,-1.822509765625000000e-01,8.418579101562500000e-01
-2.000000000000000000e+00,0.000000000000000000e+00,2.000000000000000000e+00,6.000000000000000000e+00,-3.000000000000000000e+00,-1.000000000000000000e+00,-2.000000000000000000e+00,2.000000000000000000e+00,5.126953125000000000e-02,5.051269531250000000e-01,-1.815185546875000000e-01,8.421630859375000000e-01
1.000000000000000000e+00,4.000000000000000000e+00,3.000000000000000000e+00,-1.300000000000000000e+01,-1.000000000000000000e+00,0.000000000000000000e+00,-1.000000000000000000e+00,-2.000000000000000000e+00,5.126953125000000000e-02,5.051269531250000000e-01,-1.815185546875000000e-01,8.421630859375000000e-01
-2.000000000000000000e+00,-3.000000000000000000e+00,1.400000000000000000e+01,1.700000000000000000e+01,4.000000000000000000e+00,-4.000000000000000000e+00,-5.000000000000000000e+00,-3.000000000000000000e+00,5.126953125000000000e-02,5.051269531250000000e-01,-1.815185546875000000e-01,8.421630859375000000e-01
-1.000000000000000000e+00,-5.000000000000000000e+00,-3.100000000000000000e+01,-1.500000000000000000e+01,-2.000000000000000000e+00,-1.000000000000000000e+00,1.000000000000000000e+00,-3.000000000000000000e+00,5.126953125000000000e-02,5.051269531250000000e-01,-1.815185546875000000e-01,8.421630859375000000e-01
0.000000000000000000e+00,-1.000000000000000000e+00,2.000000000000000000e+00,2.100000000000000000e+01,6.000000000000000000e+00,-3.000000000000000000e+00,-2.000000000000000000e+00,1.000000000000000000e+00,5.114746093750000000e-02,5.052490234375000000e-01,-1.810302734375000000e-01,8.421630859375000000e-01
-4.000000000000000000e+00,-1.000000000000000000e+00,1.300000000000000000e+01,-8.000000000000000000e+00,-3.000000000000000000e+00,-5.000000000000000000e+00,-4.000000000000000000e+00,-4.000000000000000000e+00,5.114746093750000000e-02,5.052490234375000000e-01,-1.810302734375000000e-01,8.421630859375000000e-01
1.000000000000000000e+00,0.000000000000000000e+00,2.000000000000000000e+00,7.000000000000000000e+00,-1.000000000000000000e+00,1.000000000000000000e+01,7.000000000000000000e+00,2.000000000000000000e+00,5.114746093750000000e-02,5.052490234375000000e-01,-1.810302734375000000e-01,8.421630859375000000e-01
0.000000000000000000e+00,-2.000000000000000000e+00,-2.000000000000000000e+00,-2.000000000000000000e+00,3.000000000000000000e+00,-3.000000000000000000e+00,-4.000000000000000000e+00,-2.000000000000000000e+00,5.114746093750000000e-02,5.052490234375000000e-01,-1.810302734375000000e-01,8.421630859375000000e-01
0.000000000000000000e+00,-3.000000000000000000e+00,-1.800000000000000000e+01,3.000000000000000000e+00,1.000000000000000000e+00,4.000000000000000000e+00,8.000000000000000000e+00,-1.000000000000000000e+00,5.151367187500000000e-02,5.054931640625000000e-01,-1.810913085937500000e-01,8.419799804687500000e-01
-1.000000000000000000e+00,0.000000000000000000e+00,1.100000000000000000e+01,-6.000000000000000000e+00,0.000000000000000000e+00,3.000000000000000000e+00,5.000000000000000000e+00,-1.000000000000000000e+00,5.151367187500000000e-02,5.054931640625000000e-01,-1.810913085937500000e-01,8.419799804687500000e-01
0.000000000000000000e+00,-2.000000000000000000e+00,-1.600000000000000000e+01,-2.000000000000000000e+00,-4.000000000000000000e+00,-6.000000000000000000e+00,-2.000000000000000000e+00,-2.000000000000000000e+00,5.151367187500000000e-02,5.054931640625000000e-01,-1.810913085937500000e-01,8.419799804687500000e-01
3.000000000000000000e+00,4.000000000000000000e+00,-2.000000000000000000e+00,-1.000000000000000000e+00,0.000000000000000000e+00,3.000000000000000000e+00,4.000000000000000000e+00,2.000000000000000000e+00,5.151367187500000000e-02,5.054931640625000000e-01,-1.810913085937500000e-01,8.419799804687500000e-01
-1.000000000000000000e+00,-2.000000000000000000e+00,1.800000000000000000e+01,1.500000000000000000e+01,-3.000000000000000000e+00,-1.000000000000000000e+01,-1.300000000000000000e+01,-3.000000000000000000e+00,5.212402343750000000e-02,5.057983398437500000e-01,-1.809082031250000000e-01,8.417968750000000000e-01
0.000000000000000000e+00,5.000000000000000000e+00,7.000000000000000000e+00,-1.400000000000000000e+01,-4.000000000000000000e+00,-6.000000000000000000e+00,-5.000000000000000000e+00,-1.000000000000000000e+00,5.212402343750000000e-02,5.057983398437500000e-01,-1.809082031250000000e-01,8.417968750000000000e-01
1.000000000000000000e+00,-5.000000000000000000e+00,-1.400000000000000000e+01,2.000000000000000000e+01,6.000000000000000000e+00,2.100000000000000000e+01,1.500000000000000000e+01,3.000000000000000000e+00,5.212402343750000000e-02,5.057983398437500000e-01,-1.809082031250000000e-01,8.417968750000000000e-01
-5.000000000000000000e+00,-5.000000000000000000e+00,0.000000000000000000e+00,-9.000000000000000000e+00,-1.000000000000000000e+00,-5.000000000000000000e+00,-5.000000000000000000e+00,-4.000000000000000000e+00,5.212402343750000000e-02,5.057983398437500000e-01,-1.809082031250000000e-01,8.417968750000000000e-01
-1.000000000000000000e+00,-2.000000000000000000e+00,-1.500000000000000000e+01,7.000000000000000000e+00,2.000000000000000000e+00,4.000000000000000000e+00,2.000000000000000000e+00,1.000000000000000000e+00,5.255126953125000000e-02,5.062255859375000000e-01,-1.806030273437500000e-01,8.416137695312500000e-01
2.000000000000000000e+00,2.000000000000000000e+00,1.000000000000000000e+00,2.400000000000000000e+01,0.000000000000000000e+00,0.000000000000000000e+00,-2.000000000000000000e+00,0.000000000000000000e+00,5.255126953125000000e-02,5.062255859375000000e-01,-1.806030273437500000e-01,8.416137695312500000e-01
0.000000000000000000e+00,1.000000000000000000e+00,-4.000000000000000000e+00,-3.500000000000000000e+01,-5.000000000000000000e+00,-5.000000000000000000e+00,-7.000000000000000000e+00,-2.000000000000000000e+00,5.255126953125000000e-02,5.062255859375000000e-01,-1.806030273437500000e-01,8.416137695312500000e-01
-2.000000000000000000e+00,-2.000000000000000000e+00,1.800000000000000000e+01,-5.000000000000000000e+00,-3.000000000000000000e+00,-3.000000000000000000e+00,-3.000000000000000000e+00,-1.000000000000000000e+00,5.255126953125000000e-02,5.062255859375000000e-01,-1.806030273437500000e-01,8.416137695312500000e-01
-2.000000000000000000e+00,-6.000000000000000000e+00,-4.900000000000000000e+01,-5.000000000000000000e+00,0.000000000000000000e+00,2.000000000000000000e+00,1.000000000000000000e+00,0.000000000000000000e+00,5.242919921875000000e-02,5.065917968750000000e-01,-1.806640625000000000e-01,8.413696289062500000e-01
-2.000000000000000000e+00,-8.000000000000000000e+00,3.000000000000000000e+00,-1.700000000000000000e+01,-8.000000000000000000e+00,-3.000000000000000000e+00,-4.000000000000000000e+00,-2.000000000000000000e+00,5.242919921875000000e-02,5.065917968750000000e-01,-1.806640625000000000e-01,8.413696289062500000e-01
-2.000000000000000000e+00,7.000000000000000000e+00,-1.000000000000000000e+00,8.000000000000000000e+00,1.000000000000000000e+00,-6.000000000000000000e+00,-4.000000000000000000e+00,-1.000000000000000000e+00,5.242919921875000000e-02,5.065917968750000000e-01,-1.806640625000000000e-01,8.413696289062500000e-01
0.000000000000000000e+00,-4.000000000000000000e+00,-1.000000000000000000e+01,1.000000000000000000e+00,2.000000000000000000e+00,4.000000000000000000e+00,0.000000000000000000e+00,-2.000000000000000000e+00,5.242919921875000000e-02,5.065917968750000000e-01,-1.806640625000000000e-01,8.413696289062500000e-01
-3.000000000000000000e+00,2.000000000000000000e+00,1.100000000000000000e+01,4.000000000000000000e+00,-4.000000000000000000e+00,-3.000000000000000000e+00,-2.000000000000000000e+00,-3.000000000000000000e+00,5.224609375000000000e-02,5.067749023437500000e-01,-1.809692382812500000e-01,8.411865234375000000e-01
2.000000000000000000e+00,4.000000000000000000e+00,1.000000000000000000e+00,-3.000000000000000000e+00,6.000000000000000000e+00,5.000000000000000000e+00,0.000000000000000000e+00,2.000000000000000000e+00,5.224609375000000000e-02,5.067749023437500000e-01,-1.809692382812500000e-01,8.411865234375000000e-01
3.000000000000000000e+00,-5.000000000000000000e+00,-2.600000000000000000e+01,-1.400000000000000000e+01,-9.000000000000000000e+00,-7.000000000000000000e+00,-3.000000000000000000e+00,1.000000000000000000e+00,5.224609375000000000e-02,5.067749023437500000e-01,-1.809692382812500000e-01,8.411865234375000000e-01
0.000000000000000000e+00,-2.000000000000000000e+00,2.100000000000000000e+01,1.000000000000000000e+00,2.000000000000000000e+00,2.000000000000000000e+00,-1.000000000000000000e+00,-2.000000000000000000e+00,5.224609375000000000e-02,5.067749023437500000e-01,-1.809692382812500000e-01,8.411865234375000000e-01
-1.000000000000000000e+00,0.000000000000000000e+00,-4.000000000000000000e+00,6.000000000000000000e+00,-5.000000000000000000e+00,-3.000000000000000000e+00,-2.000000000000000000e+00,-4.000000000000000000e+00,5.224609375000000000e-02,5.065917968750000000e-01,-1.813964843750000000e-01,8.411865234375000000e-01
0.000000000000000000e+00,-2.000000000000000000e+00,-4.000000000000000000e+00,-6.000000000000000000e+00,-2.000000000000000000e+00,-2.000000000000000000e+00,-1.000000000000000000e+00,-1.000000000000000000e+00,5.224609375000000000e-02,5.065917968750000000e-01,-1.813964843750000000e-01,8.411865234375000000e-01
-3.000000000000000000e+00,-2.000000000000000000e+00,2.300000000000000000e+01,9.000000000000000000e+00,2.000000000000000000e+00,-2.000000000000000000e+00,-4.000000000000000000e+00,-3.000000000000000000e+00,5.224609375000000000e-02,5.065917968750000000e-01,-1.813964843750000000e-01,8.411865234375000000e-01
-2.000000000000000000e+00,-1.000000000000000000e+00,-3.000000000000000000e+00,1.100000000000000000e+01,-3.000000000000000000e+00,-1.000000000000000000e+00,0.000000000000000000e+00,0.000000000000000000e+00,5.224609375000000000e-02,5.065917968750000000e-01,-1.813964843750000000e-01,8.411865234375000000e-01
1.000000000000000000e+00,6.000000000000000000e+00,3.000000000000000000e+00,6.000000000000000000e+00,2.000000000000000000e+00,2.000000000000000000e+00,2.000000000000000000e+00,0.000000000000000000e+00,5.145263671875000000e-02,5.061035156250000000e-01,-1.817016601562500000e-01,8.414916992187500000e-01
-2.000000000000000000e+00,3.000000000000000000e+00,5.000000000000000000e+00,-1.100000000000000000e+01,-3.000000000000000000e+00,-1.000000000000000000e+00,-1.000000000000000000e+00,0.000000000000000000e+00,5.145263671875000000e-02,5.061035156250000000e-01,-1.817016601562500000e-01,8.414916992187500000e-01
-3.000000000000000000e+00,-2.000000000000000000e+00,8.000000000000000000e+00,1.500000000000000000e+01,2.000000000000000000e+00,-2.000000000000000000e+00,-1.000000000000000000e+00,-4.000000000000000000e+00,5.145263671875000000e-02,5.061035156250000000e-01,-1.817016601562500000e-01,8.414916992187500000e-01
-2.000000000000000000e+00,-1.000000000000000000e+00,-2.000000000000000000e+00,-2.500000000000000000e+01,-7.000000000000000000e+00,-2.000000000000000000e+00,-2.000000000000000000e+00,-1.000000000000000000e+00,5.145263671875000000e-02,5.061035156250000000e-01,-1.817016601562500000e-01,8.414916992187500000e-01
0.000000000000000000e+00,-9.000000000000000000e+00,1.900000000000000000e+01,4.000000000000000000e+00,-1.000000000000000000e+00,-8.000000000000000000e+00,-5.000000000000000000e+00,-1.000000000000000000e+00,5.023193359375000000e-02,5.055541992187500000e-01,-1.820678710937500000e-01,8.417968750000000000e-01
-1.000000000000000000e+00,-3.000000000000000000e+00,-2.600000000000000000e+01,6.000000000000000000e+00,0.000000000000000000e+00,4.000000000000000000e+00,4.000000000000000000e+00,-3.000000000000000000e+00,5.023193359375000000e-02,5.055541992187500000e-01,-1.820678710937500000e-01,8.417968750000000000e-01
1.000000000000000000e+00,1.000000000000000000e+00,2.000000000000000000e+00,-5.000000000000000000e+00,4.000000000000000000e+00,3.000000000000000000e+00,0.000000000000000000e+00,1.000000000000000000e+00,5.023193359375000000e-02,5.055541992187500000e-01,-1.820678710937500000e-01,8.417968750000000000e-01
0.000000000000000000e+00,-2.000000000000000000e+00,-1.300000000000000000e+01,2.000000000000000000e+00,-1.000000000000000000e+00,-3.000000000000000000e+00,0.000000000000000000e+00,-1.000000000000000000e+00,5.023193359375000000e-02,5.055541992187500000e-01,-1.820678710937500000e-01,8.417968750000000000e-01
3.000000000000000000e+00,3.000000000000000000e+00,1.000000000000000000e+01,3.000000000000000000e+00,1.000000000000000000e+00,1.000000000000000000e+00,-1.000000000000000000e+00,4.000000000000000000e+00,4.901123046875000000e-02,5.049438476562500000e-01,-1.825561523437500000e-01,8.421630859375000000e-01
-3.000000000000000000e+00,-3.000000000000000000e+00,1.000000000000000000e+01,-1.900000000000000000e+01,-5.000000000000000000e+00,-6.000000000000000000e+00,-4.000000000000000000e+00,-3.000000000000000000e+00,4.901123046875000000e-02,5.049438476562500000e-01,-1.825561523437500000e-01,8.421630859375000000e-01
-4.000000000000000000e+00,-4.000000000000000000e+00,-1.000000000000000000e+00,9.000000000000000000e+00,-2.000000000000000000e+00,-6.000000000000000000e+00,-2.000000000000000000e+00,-2.000000000000000000e+00,4.901123046875000000e-02,5.049438476562500000e-01,-1.825561523437500000e-01,8.421630859375000000e-01
-2.000000000000000000e+00,-2.000000000000000000e+00,6.000000000000000000e+00,-1.000000000000000000e+01,-1.000000000000000000e+00,0.000000000000000000e+00,-1.000000000000000000e+00,-3.000000000000000000e+00,4.901123046875000000e-02,5.049438476562500000e-01,-1.825561523437500000e-01,8.421630859375000000e-01
1.000000000000000000e+00,1.000000000000000000e+00,-3.300000000000000000e+01,9.000000000000000000e+00,2.000000000000000000e+00,1.000000000000000000e+00,0.000000000000000000e+00,-1.000000000000000000e+00,4.797363281250000000e-02,5.045776367187500000e-01,-1.829223632812500000e-01,8.423461914062500000e-01
-2.000000000000000000e+00,-1.000000000000000000e+00,2.600000000000000000e+01,-7.000000000000000000e+00,-8.000000000000000000e+00,-2.000000000000000000e+00,-1.000000000000000000e+00,-1.000000000000000000e+00,4.797363281250000000e-02,5.045776367187500000e-01,-1.829223632812500000e-01,8.423461914062500000e-01
-1.000000000000000000e+00,-3.000000000000000000e+00,-7.000000000000000000e+00,-1.300000000000000000e+01,-7.000000000000000000e+00,-6.000000000000000000e+00,-3.000000000000000000e+00,0.000000000000000000e+00,4.797363281250000000e-02,5.045776367187500000e-01,-1.829223632812500000e-01,8.423461914062500000e-01
-2.000000000000000000e+00,-8.000000000000000000e+00,5.000000000000000000e+00,8.000000000000000000e+00,-6.000000000000000000e+00,-2.000000000000000000e+00,-2.000000000000000000e+00,-2.000000000000000000e+00,4.797363281250000000e-02,5.045776367187500000e-01,-1.829223632812500000e-01,8.423461914062500000e-01
-2.000000000000000000e+00,6.000000000000000000e+00,-1.100000000000000000e+01,-1.400000000000000000e+01,6.000000000000000000e+00,2.000000000000000000e+00,1.000000000000000000e+00,2.000000000000000000e+00,4.724121093750000000e-02,5.042114257812500000e-01,-1.834106445312500000e-01,8.425292968750000000e-01
1.000000000000000000e+00,0.000000000000000000e+00,1.300000000000000000e+01,1.800000000000000000e+01,1.000000000000000000e+00,0.000000000000000000e+00,1.000000000000000000e+00,0.000000000000000000e+00,4.724121093750000000e-02,5.042114257812500000e-01,-1.834106445312500000e-01,8.425292968750000000e-01
-2.000000000000000000e+00,0.000000000000000000e+00,2.800000000000000000e+01,4.000000000000000000e+00,3.000000000000000000e+00,0.000000000000000000e+00,-2.000000000000000000e+00,-3.000000000000000000e+00,4.724121093750000000e-02,5.042114257812500000e-01,-1.834106445312500000e-01,8.425292968750000000e-01
2.000000000000000000e+00,1.000000000000000000e+00,-4.000000000000000000e+00,-1.000000000000000000e+00,-2.000000000000000000e+00,3.000000000000000000e+00,0.000000000000000000e+00,-1.000000000000000000e+00,4.724121093750000000e-02,5.042114257812500000e-01,-1.834106445312500000e-01,8.425292968750000000e-01
-4.000000000000000000e+00,-1.000000000000000000e+01,-1.500000000000000000e+01,-2.000000000000000000e+00,-4.000000000000000000e+00,-3.000000000000000000e+00,0.000000000000000000e+00,-3.000000000000000000e+00,4.675292968750000000e-02,5.038452148437500000e-01,-1.837768554687500000e-01,8.427124023437500000e-01
1.000000000000000000e+00,1.000000000000000000e+00,-2.200000000000000000e+01,8.000000000000000000e+00,1.000000000000000000e+00,4.000000000000000000e+00,0.000000000000000000e+00,-1.000000000000000000e+00,4.675292968750000000e-02,5.038452148437500000e-01,-1.837768554687500000e-01,8.427124023437500000e-01
1.000000000000000000e+00,3.000000000000000000e+00,1.800000000000000000e+01,-8.000000000000000000e+00,-2.000000000000000000e+00,0.000000000000000000e+00,-1.000000000000000000e+00,0.000000000000000000e+00,4.675292968750000000e-02,5.038452148437500000e-01,-1.837768554687500000e-01,8.427124023437500000e-01
-3.000000000000000000e+00,-4.000000000000000000e+00,-1.600000000000000000e+01,6.000000000000000000e+00,2.000000000000000000e+00,-5.000000000000000000e+00,-3.000000000000000000e+00,-1.000000000000000000e+00,4.675292968750000000e-02,5.038452148437500000e-01,-1.837768554687500000e-01,8.427124023437500000e-01
0.000000000000000000e+00,3.000000000000000000e+00,3.000000000000000000e+00,-1.400000000000000000e+01,-1.000000000000000000e+00,0.000000000000000000e+00,1.000000000000000000e+00,-1.000000000000000000e+00,4.620361328125000000e-02,5.034179687500000000e-01,-1.840209960937500000e-01,8.428955078125000000e-01
-2.000000000000000000e+00,2.000000000000000000e+00,2.100000000000000000e+01,1.500000000000000000e+01,7.000000000000000000e+00,3.000000000000000000e+00,2.000000000000000000e+00,2.000000000000000000e+00,4.620361328125000000e-02,5.034179687500000000e-01,-1.840209960937500000e-01,8.428955078125000000e-01
-1.000000000000000000e+00,-5.000000000000000000e+00,-1.700000000000000000e+01,5.000000000000000000e+01,2.000000000000000000e+00,-5.000000000000000000e+00,-2.000000000000000000e+00,-2.000000000000000000e+00,4.602050781250000000e-02,5.030517578125000000e-01,-1.845092773437500000e-01,8.430175781250000000e-01
-2.000000000000000000e+00,3.000000000000000000e+00,-3.000000000000000000e+00,-5.000000000000000000e+01,-6.000000000000000000e+00,-1.000000000000000000e+00,-7.000000000000000000e+00,1.000000000000000000e+00,4.602050781250000000e-02,5.030517578125000000e-01,-1.845092773437500000e-01,8.430175781250000000e-01
-3.000000000000000000e+00,-3.000000000000000000e+00,1.300000000000000000e+01,-3.000000000000000000e+00,-1.000000000000000000e+00,-2.000000000000000000e+00,0.000000000000000000e+00,-3.000000000000000000e+00,4.602050781250000000e-02,5.030517578125000000e-01,-1.845092773437500000e-01,8.430175781250000000e-01
-1.000000000000000000e+00,-1.000000000000000000e+00,0.000000000000000000e+00,-2.000000000000000000e+00,0.000000000000000000e+00,-4.000000000000000000e+00,-3.000000000000000000e+00,-1.000000000000000000e+00,4.602050781250000000e-02,5.030517578125000000e-01,-1.845092773437500000e-01,8.430175781250000000e-01
0.000000000000000000e+00,0.000000000000000000e+00,-1.000000000000000000e+01,2.500000000000000000e+01,5.000000000000000000e+00,3.000000000000000000e+00,4.000000000000000000e+00,-1.000000000000000000e+00,4.614257812500000000e-02,5.031738281250000000e-01,-1.848144531250000000e-01,8.428955078125000000e-01
-1.000000000000000000e+00,0.000000000000000000e+00,1.500000000000000000e+01,-2.000000000000000000e+00,-2.000000000000000000e+00,-2.000000000000000000e+00,0.000000000000000000e+00,-1.000000000000000000e+00,4.614257812500000000e-02,5.031738281250000000e-01,-1.848144531250000000e-01,8.428955078125000000e-01
-3.000000000000000000e+00,-6.000000000000000000e+00,-1.400000000000000000e+01,-2.000000000000000000e+01,-6.000000000000000000e+00,-3.000000000000000000e+00,-3.000000000000000000e+00,-3.000000000000000000e+00,4.614257812500000000e-02,5.031738281250000000e-01,-1.848144531250000000e-01,8.428955078125000000e-01
1.000000000000000000e+00,-2.000000000000000000e+00,-1.600000000000000000e+01,-7.000000000000000000e+00,-1.000000000000000000e+00,1.000000000000000000e+00,0.000000000000000000e+00,0.000000000000000000e+00,4.614257812500000000e-02,5.031738281250000000e-01,-1.848144531250000000e-01,8.428955078125000000e-01
1.000000000000000000e+00,1.000000000000000000e+00,-2.800000000000000000e+01,-7.000000000000000000e+00,2.000000000000000000e+00,3.000000000000000000e+00,0.000000000000000000e+00,0.000000000000000000e+00,4.589843750000000000e-02,5.033569335937500000e-01,-1.849975585937500000e-01,8.427124023437500000e-01
-3.000000000000000000e+00,-2.000000000000000000e+00,3.300000000000000000e+01,2.800000000000000000e+01,4.000000000000000000e+00,2.000000000000000000e+00,1.000000000000000000e+00,-2.000000000000000000e+00,4.589843750000000000e-02,5.033569335937500000e-01,-1.849975585937500000e-01,8.427124023437500000e-01
-1.000000000000000000e+00,-5.000000000000000000e+00,4.000000000000000000e+00,3.300000000000000000e+01,1.000000000000000000e+00,-3.000000000000000000e+00,-3.000000000000000000e+00,-1.000000000000000000e+00,4.589843750000000000e-02,5.033569335937500000e-01,-1.849975585937500000e-01,8.427124023437500000e-01
-1.000000000000000000e+00,3.000000000000000000e+00,3.000000000000000000e+00,-4.800000000000000000e+01,-6.000000000000000000e+00,0.000000000000000000e+00,-1.000000000000000000e+00,0.000000000000000000e+00,4.589843750000000000e-02,5.033569335937500000e-01,-1.849975585937500000e-01,8.427124023437500000e-01
0.000000000000000000e+00,3.000000000000000000e+00,5.000000000000000000e+00,-2.000000000000000000e+01,-5.000000000000000000e+00,-5.000000000000000000e+00,-3.000000000000000000e+00,0.000000000000000000e+00,4.589843750000000000e-02,5.036621093750000000e-01,-1.854858398437500000e-01,8.424682617187500000e-01
-1.000000000000000000e+00,1.000000000000000000e+00,-1.600000000000000000e+01,-5.000000000000000000e+00,-3.000000000000000000e+00,-3.000000000000000000e+00,-1.000000000000000000e+00,0.000000000000000000e+00,4.589843750000000000e-02,5.036621093750000000e-01,-1.854858398437500000e-01,8.424682617187500000e-01
-3.000000000000000000e+00,-5.000000000000000000e+00,-2.100000000000000000e+01,1.400000000000000000e+01,3.000000000000000000e+00,2.000000000000000000e+00,0.000000000000000000e+00,-2.000000000000000000e+00,4.589843750000000000e-02,5.036621093750000000e-01,-1.854858398437500000e-01,8.424682617187500000e-01
1.000000000000000000e+00,-6.000000000000000000e+00,-2.000000000000000000e+00,5.000000000000000000e+00,-4.000000000000000000e+00,-4.000000000000000000e+00,-3.000000000000000000e+00,0.000000000000000000e+00,4.589843750000000000e-02,5.036621093750000000e-01,-1.854858398437500000e-01,8.424682617187500000e-01
0.000000000000000000e+00,0.000000000000000000e+00,2.400000000000000000e+01,4.000000000000000000e+00,0.000000000000000000e+00,1.000000000000000000e+00,-1.000000000000000000e+00,0.000000000000000000e+00,4.595947265625000000e-02,5.037231445312500000e-01,-1.860351562500000000e-01,8.422851562500000000e-01
-1.000000000000000000e+00,-4.000000000000000000e+00,-2.000000000000000000e+01,-1.800000000000000000e+01,-2.000000000000000000e+00,0.000000000000000000e+00,-1.000000000000000000e+00,-1.000000000000000000e+00,4.595947265625000000e-02,5.037231445312500000e-01,-1.860351562500000000e-01,8.422851562500000000e-01
0.000000000000000000e+00,-1.000000000000000000e+00,8.000000000000000000e+00,2.000000000000000000e+00,-2.000000000000000000e+00,-7.000000000000000000e+00,-4.000000000000000000e+00,-1.000000000000000000e+00,4.595947265625000000e-02,5.037231445312500000e-01,-1.860351562500000000e-01,8.422851562500000000e-01
2.000000000000000000e+00,2.000000000000000000e+00,-8.000000000000000000e+00,-1.000000000000000000e+00,-1.000000000000000000e+00,-1.000000000000000000e+00,-1.000000000000000000e+00,-1.000000000000000000e+00,4.595947265625000000e-02,5.037231445312500000e-01,-1.860351562500000000e-01,8.422851562500000000e-01
-2.000000000000000000e+00,1.000000000000000000e+00,1.100000000000000000e+01,-1.500000000000000000e+01,-3.000000000000000000e+00,-3.000000000000000000e+00,-1.000000000000000000e+00,-1.000000000000000000e+00,4.583740234375000000e-02,5.038452148437500000e-01,-1.864624023437500000e-01,8.421630859375000000e-01
2.000000000000000000e+00,2.000000000000000000e+00,1.300000000000000000e+01,3.100000000000000000e+01,2.000000000000000000e+00,-1.000000000000000000e+00,-1.000000000000000000e+00,0.000000000000000000e+00,4.583740234375000000e-02,5.038452148437500000e-01,-1.864624023437500000e-01,8.421630859375000000e-01
-2.000000000000000000e+00,-6.000000000000000000e+00,-3.000000000000000000e+01,-2.700000000000000000e+01,-5.000000000000000000e+00,0.000000000000000000e+00,0.000000000000000000e+00,0.000000000000000000e+00,4.583740234375000000e-02,5.038452148437500000e-01,-1.864624023437500000e-01,8.421630859375000000e-01
-2.000000000000000000e+00,-2.000000000000000000e+00,-3.000000000000000000e+00,-1.500000000000000000e+01,0.000000000000000000e+00,-4.000000000000000000e+00,-4.000000000000000000e+00,-3.000000000000000000e+00,4.583740234375000000e-02,5.038452148437500000e-01,-1.864624023437500000e-01,8.421630859375000000e-01
-1.000000000000000000e+00,2.000000000000000000e+00,2.000000000000000000e+00,5.000000000000000000e+00,0.000000000000000000e+00,-2.000000000000000000e+00,0.000000000000000000e+00,0.000000000000000000e+00,4.541015625000000000e-02,5.043945312500000000e-01,-1.865234375000000000e-01,8.417968750000000000e-01
-2.000000000000000000e+00,-2.000000000000000000e+00,-1.800000000000000000e+01,-3.000000000000000000e+00,2.000000000000000000e+00,-3.000000000000000000e+00,-3.000000000000000000e+00,0.000000000000000000e+00,4.541015625000000000e-02,5.043945312500000000e-01,-1.865234375000000000e-01,8.417968750000000000e-01
0.000000000000000000e+00,6.000000000000000000e+00,4.000000000000000000e+00,2.000000000000000000e+00,1.000000000000000000e+00,4.000000000000000000e+00,5.000000000000000000e+00,1.000000000000000000e+00,4.541015625000000000e-02,5.043945312500000000e-01,-1.865234375000000000e-01,8.417968750000000000e-01
-1.000000000000000000e+00,-9.000000000000000000e+00,-1.700000000000000000e+01,6.000000000000000000e+00,-4.000000000000000000e+00,-3.000000000000000000e+00,-2.000000000000000000e+00,-2.000000000000000000e+00,4.541015625000000000e-02,5.043945312500000000e-01,-1.865234375000000000e-01,8.417968750000000000e-01
-3.000000000000000000e+00,-4.000000000000000000e+00,-8.000000000000000000e+00,2.300000000000000000e+01,7.000000000000000000e+00,5.000000000000000000e+00,1.000000000000000000e+00,-2.000000000000000000e+00,4.486083984375000000e-02,5.048828125000000000e-01,-1.864624023437500000e-01,8.416137695312500000e-01
0.000000000000000000e+00,5.000000000000000000e+00,0.000000000000000000e+00,-2.000000000000000000e+01,-3.000000000000000000e+00,-2.000000000000000000e+00,-1.000000000000000000e+00,1.000000000000000000e+00,4.486083984375000000e-02,5.048828125000000000e-01,-1.864624023437500000e-01,8.416137695312500000e-01
0.000000000000000000e+00,-1.000000000000000000e+00,7.000000000000000000e+00,-7.000000000000000000e+00,-1.000000000000000000e+00,-1.000000000000000000e+00,-1.000000000000000000e+00,-1.000000000000000000e+00,4.486083984375000000e-02,5.048828125000000000e-01,-1.864624023437500000e-01,8.416137695312500000e-01
0.000000000000000000e+00,2.000000000000000000e+00,7.000000000000000000e+00,2.000000000000000000e+00,-1.000000000000000000e+00,2.000000000000000000e+00,-1.000000000000000000e+00,-2.000000000000000000e+00,4.486083984375000000e-02,5.048828125000000000e-01,-1.864624023437500000e-01,8.416137695312500000e-01
-1.000000000000000000e+00,-5.000000000000000000e+00,-7.000000000000000000e+00,8.000000000000000000e+00,-3.000000000000000000e+00,-4.000000000000000000e+00,-1.000000000000000000e+00,1.000000000000000000e+00,4.443359375000000000e-02,5.048828125000000000e-01,-1.867065429687500000e-01,8.415527343750000000e-01
0.000000000000000000e+00,-2.000000000000000000e+00,7.000000000000000000e+00,-3.000000000000000000e+00,1.000000000000000000e+00,1.000000000000000000e+00,0.000000000000000000e+00,-1.000000000000000000e+00,4.443359375000000000e-02,5.048828125000000000e-01,-1.867065429687500000e-01,8.415527343750000000e-01
-2.000000000000000000e+00,0.000000000000000000e+00,-2.000000000000000000e+01,-2.000000000000000000e+00,2.000000000000000000e+00,0.000000000000000000e+00,-3.000000000000000000e+00,-1.000000000000000000e+00,4.443359375000000000e-02,5.048828125000000000e-01,-1.867065429687500000e-01,8.415527343750000000e-01
-2.000000000000000000e+00,-1.000000000000000000e+00,1.300000000000000000e+01,0.000000000000000000e+00,-1.000000000000000000e+00,-3.000000000000000000e+00,0.000000000000000000e+00,0.000000000000000000e+00,4.443359375000000000e-02,5.048828125000000000e-01,-1.867065429687500000e-01,8.415527343750000000e-01
-1.000000000000000000e+00,-2.000000000000000000e+00,-1.000000000000000000e+00,-7.000000000000000000e+00,0.000000000000000000e+00,4.000000000000000000e+00,1.000000000000000000e+00,-2.000000000000000000e+00,4.400634765625000000e-02,5.047607421875000000e-01,-1.870727539062500000e-01,8.415527343750000000e-01
-1.000000000000000000e+00,1.000000000000000000e+00,-1.900000000000000000e+01,-3.000000000000000000e+00,5.000000000000000000e+00,2.000000000000000000e+00,0.000000000000000000e+00,-2.000000000000000000e+00,4.400634765625000000e-02,5.047607421875000000e-01,-1.870727539062500000e-01,8.415527343750000000e-01
-1.000000000000000000e+00,-4.000000000000000000e+00,2.800000000000000000e+01,7.000000000000000000e+00,-3.000000000000000000e+00,-2.000000000000000000e+00,-1.000000000000000000e+00,0.000000000000000000e+00,4.400634765625000000e-02,5.047607421875000000e-01,-1.870727539062500000e-01,8.415527343750000000e-01
0.000000000000000000e+00,1.000000000000000000e+00,-4.000000000000000000e+00,1.300000000000000000e+01,2.000000000000000000e+00,1.000000000000000000e+00,0.000000000000000000e+00,-2.000000000000000000e+00,4.400634765625000000e-02,5.047607421875000000e-01,-1.870727539062500000e-01,8.415527343750000000e-01
-1.000000000000000000e+00,1.000000000000000000e+00,0.000000000000000000e+00,-1.900000000000000000e+01,-5.000000000000000000e+00,-3.000000000000000000e+00,-2.000000000000000000e+00,0.000000000000000000e+00,4.418945312500000000e-02,5.046386718750000000e-01,-1.872558593750000000e-01,8.415527343750000000e-01
-2.000000000000000000e+00,-3.000000000000000000e+00,-5.000000000000000000e+00,-4.000000000000000000e+00,-5.000000000000000000e+00,-3.000000000000000000e+00,-1.000000000000000000e+00,0.000000000000000000e+00,4.418945312500000000e-02,5.046386718750000000e-01,-1.872558593750000000e-01,8.415527343750000000e-01
0.000000000000000000e+00,-3.000000000000000000e+00,1.000000000000000000e+00,3.400000000000000000e+01,2.000000000000000000e+00,-1.000000000000000000e+00,-1.000000000000000000e+00,-2.000000000000000000e+00,4.418945312500000000e-02,5.046386718750000000e-01,-1.872558593750000000e-01,8.415527343750000000e-01
1.000000000000000000e+00,-2.000000000000000000e+00,-2.800000000000000000e+01,-2.400000000000000000e+01,1.000000000000000000e+00,1.000000000000000000e+00,-1.000000000000000000e+00,1.000000000000000000e+00,4.418945312500000000e-02,5.046386718750000000e-01,-1.872558593750000000e-01,8.415527343750000000e-01
-2.000000000000000000e+00,-2.000000000000000000e+00,1.700000000000000000e+01,-1.400000000000000000e+01,-3.000000000000000000e+00,-3.000000000000000000e+00,-3.000000000000000000e+00,-1.000000000000000000e+00,4.394531250000000000e-02,5.045776367187500000e-01,-1.870117187500000000e-01,8.416748046875000000e-01
2.000000000000000000e+00,1.200000000000000000e+01,2.000000000000000000e+01,6.000000000000000000e+00,-1.000000000000000000e+00,-1.000000000000000000e+00,0.000000000000000000e+00,1.000000000000000000e+00,4.394531250000000000e-02,5.045776367187500000e-01,-1.870117187500000000e-01,8.416748046875000000e-01
-2.000000000000000000e+00,1.000000000000000000e+00,-3.000000000000000000e+00,4.000000000000000000e+00,-1.000000000000000000e+00,-1.000000000000000000e+00,-3.000000000000000000e+00,-1.000000000000000000e+00,4.394531250000000000e-02,5.045776367187500000e-01,-1.870117187500000000e-01,8.416748046875000000e-01
-3.000000000000000000e+00,1.000000000000000000e+00,5.000000000000000000e+00,-6.000000000000000000e+00,-4.000000000000000000e+00,1.000000000000000000e+00,1.000000000000000000e+00,-2.000000000000000000e+00,4.394531250000000000e-02,5.045776367187500000e-01,-1.870117187500000000e-01,8.416748046875000000e-01
-2.000000000000000000e+00,-5.000000000000000000e+00,-1.500000000000000000e+01,-1.000000000000000000e+00,-8.000000000000000000e+00,-4.000000000000000000e+00,-3.000000000000000000e+00,1.000000000000000000e+00,4.309082031250000000e-02,5.046386718750000000e-01,-1.866455078125000000e-01,8.417968750000000000e-01
-3.000000000000000000e+00,-5.000000000000000000e+00,4.000000000000000000e+01,-4.000000000000000000e+00,3.000000000000000000e+00,0.000000000000000000e+00,0.000000000000000000e+00,-2.000000000000000000e+00,4.309082031250000000e-02,5.046386718750000000e-01,-1.866455078125000000e-01,8.417968750000000000e-01
0.000000000000000000e+00,0.000000000000000000e+00,2.200000000000000000e+01,2.000000000000000000e+00,1.000000000000000000e+00,0.000000000000000000e+00,-1.000000000000000000e+00,-3.000000000000000000e+00,4.309082031250000000e-02,5.046386718750000000e-01,-1.866455078125000000e-01,8.417968750000000000e-01
-1.000000000000000000e+00,-4.000000000000000000e+00,-5.000000000000000000e+00,3.000000000000000000e+01,0.000000000000000000e+00,-2.000000000000000000e+00,-1.000000000000000000e+00,-1.000000000000000000e+00,4.309082031250000000e-02,5.046386718750000000e-01,-1.866455078125000000e-01,8.417968750000000000e-01
-2.000000000000000000e+00,3.000000000000000000e+00,9.000000000000000000e+00,-4.100000000000000000e+01,-3.000000000000000000e+00,1.000000000000000000e+00,-1.000000000000000000e+00,0.000000000000000000e+00,4.248046875000000000e-02,5.042114257812500000e-01,-1.870117187500000000e-01,8.419799804687500000e-01
1.000000000000000000e+00,-2.000000000000000000e+00,-3.900000000000000000e+01,3.000000000000000000e+00,-7.000000000000000000e+00,-6.000000000000000000e+00,-4.000000000000000000e+00,0.000000000000000000e+00,4.248046875000000000e-02,5.042114257812500000e-01,-1.870117187500000000e-01,8.419799804687500000e-01
1.000000000000000000e+00,3.000000000000000000e+00,1.700000000000000000e+01,2.000000000000000000e+00,2.000000000000000000e+00,1.000000000000000000e+00,2.000000000000000000e+00,0.000000000000000000e+00,4.248046875000000000e-02,5.042114257812500000e-01,-1.870117187500000000e-01,8.419799804687500000e-01
-2.000000000000000000e+00,-2.000000000000000000e+00,-2.500000000000000000e+01,-1.400000000000000000e+01,-3.000000000000000000e+00,-1.000000000000000000e+00,-1.000000000000000000e+00,-1.000000000000000000e+00,4.248046875000000000e-02,5.042114257812500000e-01,-1.870117187500000000e-01,8.419799804687500000e-01
-3.000000000000000000e+00,-5.000000000000000000e+00,1.000000000000000000e+00,1.200000000000000000e+01,-2.000000000000000000e+00,-2.000000000000000000e+00,-1.000000000000000000e+00,-2.000000000000000000e+00,4.254150390625000000e-02,5.037841796875000000e-01,-1.876220703125000000e-01,8.421020507812500000e-01
-5.000000000000000000e+00,-4.000000000000000000e+00,-3.000000000000000000e+00,1.300000000000000000e+01,-4.000000000000000000e+00,-6.000000000000000000e+00,-2.000000000000000000e+00,-4.000000000000000000e+00,4.254150390625000000e-02,5.037841796875000000e-01,-1.876220703125000000e-01,8.421020507812500000e-01
4.000000000000000000e+00,3.000000000000000000e+00,-3.000000000000000000e+00,-3.200000000000000000e+01,-7.000000000000000000e+00,-1.000000000000000000e+00,-2.000000000000000000e+00,1.000000000000000000e+00,4.254150390625000000e-02,5.037841796875000000e-01,-1.876220703125000000e-01,8.421020507812500000e-01
-1.000000000000000000e+00,0.000000000000000000e+00,1.700000000000000000e+01,2.000000000000000000e+01,1.000000000000000000e+00,-1.000000000000000000e+00,1.000000000000000000e+00,0.000000000000000000e+00,4.254150390625000000e-02,5.037841796875000000e-01,-1.876220703125000000e-01,8.421020507812500000e-01
1.000000000000000000e+00,5.000000000000000000e+00,3.000000000000000000e+01,1.400000000000000000e+01,6.000000000000000000e+00,-3.000000000000000000e+00,-3.000000000000000000e+00,-1.000000000000000000e+00,4.272460937500000000e-02,5.036621093750000000e-01,-1.881103515625000000e-01,8.420410156250000000e-01
-2.000000000000000000e+00,-7.000000000000000000e+00,-3.500000000000000000e+01,-3.100000000000000000e+01,-6.000000000000000000e+00,0.000000000000000000e+00,-2.000000000000000000e+00,-2.000000000000000000e+00,4.272460937500000000e-02,5.036621093750000000e-01,-1.881103515625000000e-01,8.420410156250000000e-01
3.000000000000000000e+00,5.000000000000000000e+00,3.500000000000000000e+01,-3.000000000000000000e+00,0.000000000000000000e+00,3.000000000000000000e+00,2.000000000000000000e+00,3.000000000000000000e+00,4.272460937500000000e-02,5.036621093750000000e-01,-1.881103515625000000e-01,8.420410156250000000e-01
-5.000000000000000000e+00,-1.100000000000000000e+01,-2.800000000000000000e+01,5.000000000000000000e+00,-4.000000000000000000e+00,-4.000000000000000000e+00,-2.000000000000000000e+00,-1.000000000000000000e+00,4.272460937500000000e-02,5.036621093750000000e-01,-1.881103515625000000e-01,8.420410156250000000e-01
-2.000000000000000000e+00,-2.000000000000000000e+00,-8.000000000000000000e+00,0.000000000000000000e+00,1.000000000000000000e+00,2.000000000000000000e+00,0.000000000000000000e+00,-1.000000000000000000e+00,4.254150390625000000e-02,5.039062500000000000e-01,-1.884155273437500000e-01,8.418579101562500000e-01
-1.000000000000000000e+00,-4.000000000000000000e+00,6.000000000000000000e+00,4.100000000000000000e+01,4.000000000000000000e+00,1.000000000000000000e+00,-1.000000000000000000e+00,-3.000000000000000000e+00,4.254150390625000000e-02,5.039062500000000000e-01,-1.884155273437500000e-01,8.418579101562500000e-01
-2.000000000000000000e+00,1.000000000000000000e+00,-1.100000000000000000e+01,-1.000000000000000000e+01,-1.000000000000000000e+00,-3.000000000000000000e+00,-2.000000000000000000e+00,-1.000000000000000000e+00,4.254150390625000000e-02,5.039062500000000000e-01,-1.884155273437500000e-01,8.418579101562500000e-01
4.000000000000000000e+00,1.500000000000000000e+01,4.100000000000000000e+01,-3.300000000000000000e+01,2.000000000000000000e+00,4.000000000000000000e+00,3.000000000000000000e+00,3.000000000000000000e+00,4.254150390625000000e-02,5.039062500000000000e-01,-1.884155273437500000e-01,8.418579101562500000e-01
-4.000000000000000000e+00,-1.400000000000000000e+01,-4.600000000000000000e+01,9.000000000000000000e+00,-5.000000000000000000e+00,-6.000000000000000000e+00,-4.000000000000000000e+00,-3.000000000000000000e+00,4.180908203125000000e-02,5.040893554687500000e-01,-1.887817382812500000e-01,8.416748046875000000e-01
0.000000000000000000e+00,-2.000000000000000000e+00,-1.300000000000000000e+01,-2.600000000000000000e+01,-4.000000000000000000e+00,-1.000000000000000000e+00,-1.000000000000000000e+00,0.000000000000000000e+00,4.180908203125000000e-02,5.040893554687500000e-01,-1.887817382812500000e-01,8.416748046875000000e-01
-2.000000000000000000e+00,-3.000000000000000000e+00,-8.000000000000000000e+00,2.500000000000000000e+01,2.000000000000000000e+00,-2.000000000000000000e+00,-3.000000000000000000e+00,-3.000000000000000000e+00,4.180908203125000000e-02,5.040893554687500000e-01,-1.887817382812500000e-01,8.416748046875000000e-01
1.000000000000000000e+00,1.000000000000000000e+00,4.000000000000000000e+00,-6.000000000000000000e+00,-2.000000000000000000e+00,-1.000000000000000000e+00,-2.000000000000000000e+00,-1.000000000000000000e+00,4.180908203125000000e-02,5.040893554687500000e-01,-1.887817382812500000e-01,8.416748046875000000e-01
0.000000000000000000e+00,3.000000000000000000e+00,-5.000000000000000000e+00,-1.000000000000000000e+00,2.000000000000000000e+00,-1.000000000000000000e+00,-2.000000000000000000e+00,-1.000000000000000000e+00,4.174804687500000000e-02,5.043334960937500000e-01,-1.896362304687500000e-01,8.413696289062500000e-01
0.000000000000000000e+00,0.000000000000000000e+00,7.000000000000000000e+00,1.100000000000000000e+01,2.000000000000000000e+00,4.000000000000000000e+00,2.000000000000000000e+00,0.000000000000000000e+00,4.174804687500000000e-02,5.043334960937500000e-01,-1.896362304687500000e-01,8.413696289062500000e-01
-2.000000000000000000e+00,-3.000000000000000000e+00,-1.000000000000000000e+00,-1.300000000000000000e+01,-3.000000000000000000e+00,0.000000000000000000e+00,2.000000000000000000e+00,2.000000000000000000e+00,4.174804687500000000e-02,5.043334960937500000e-01,-1.896362304687500000e-01,8.413696289062500000e-01
-1.000000000000000000e+00,2.000000000000000000e+00,5.000000000000000000e+00,9.000000000000000000e+00,-2.000000000000000000e+00,0.000000000000000000e+00,-2.000000000000000000e+00,-2.000000000000000000e+00,4.174804687500000000e-02,5.043334960937500000e-01,-1.896362304687500000e-01,8.413696289062500000e-01
-1.000000000000000000e+00,-2.000000000000000000e+00,-1.400000000000000000e+01,8.000000000000000000e+00,-3.000000000000000000e+00,-4.000000000000000000e+00,1.000000000000000000e+00,0.000000000000000000e+00,4.241943359375000000e-02,5.048217773437500000e-01,-1.904296875000000000e-01,8.408813476562500000e-01
-1.000000000000000000e+00,-1.000000000000000000e+00,2.000000000000000000e+00,-2.500000000000000000e+01,-3.000000000000000000e+00,1.000000000000000000e+00,-3.000000000000000000e+00,-1.000000000000000000e+00,4.241943359375000000e-02,5.048217773437500000e-01,-1.904296875000000000e-01,8.408813476562500000e-01
0.000000000000000000e+00,4.000000000000000000e+00,9.000000000000000000e+00,7.000000000000000000e+00,3.000000000000000000e+00,4.000000000000000000e+00,1.000000000000000000e+00,0.000000000000000000e+00,4.241943359375000000e-02,5.048217773437500000e-01,-1.904296875000000000e-01,8.408813476562500000e-01
-2.000000000000000000e+00,-7.000000000000000000e+00,-1.400000000000000000e+01,2.100000000000000000e+01,3.000000000000000000e+00,-2.000000000000000000e+00,0.000000000000000000e+00,-2.000000000000000000e+00,4.241943359375000000e-02,5.048217773437500000e-01,-1.904296875000000000e-01,8.408813476562500000e-01
5.000000000000000000e+00,9.000000000000000000e+00,3.000000000000000000e+01,-6.000000000000000000e+00,1.000000000000000000e+00,6.000000000000000000e+00,3.000000000000000000e+00,2.000000000000000000e+00,4.309082031250000000e-02,5.056152343750000000e-01,-1.907958984375000000e-01,8.402709960937500000e-01
-1.000000000000000000e+00,-1.000000000000000000e+00,-4.000000000000000000e+00,-8.000000000000000000e+00,1.000000000000000000e+00,-3.000000000000000000e+00,0.000000000000000000e+00,-3.000000000000000000e+00,4.309082031250000000e-02,5.056152343750000000e-01,-1.907958984375000000e-01,8.402709960937500000e-01
