-5.000000000000000000e+00,-5.000000000000000000e+00,6.000000000000000000e+00,1.400000000000000000e+01,1.800000000000000000e+01,4.000000000000000000e+00,6.000000000000000000e+00,-2.000000000000000000e+00,-4.356689453125000000e-01,2.885131835937500000e-01,5.484619140625000000e-01,6.527709960937500000e-01
4.000000000000000000e+00,3.000000000000000000e+00,8.000000000000000000e+00,2.400000000000000000e+01,-4.000000000000000000e+00,0.000000000000000000e+00,-3.000000000000000000e+00,1.000000000000000000e+00,-4.356689453125000000e-01,2.885131835937500000e-01,5.484619140625000000e-01,6.527709960937500000e-01
-5.000000000000000000e+00,-5.000000000000000000e+00,-4.000000000000000000e+00,-3.100000000000000000e+01,1.600000000000000000e+01,1.000000000000000000e+00,0.000000000000000000e+00,-2.000000000000000000e+00,-4.356689453125000000e-01,2.885131835937500000e-01,5.484619140625000000e-01,6.527709960937500000e-01
-3.000000000000000000e+00,-3.000000000000000000e+00,-1.300000000000000000e+01,-9.000000000000000000e+00,-1.300000000000000000e+01,2.000000000000000000e+00,-4.000000000000000000e+00,-3.000000000000000000e+00,-4.356689453125000000e-01,2.885131835937500000e-01,5.484619140625000000e-01,6.527709960937500000e-01
1.000000000000000000e+00,1.000000000000000000e+00,-2.000000000000000000e+00,1.300000000000000000e+01,5.000000000000000000e+00,-9.000000000000000000e+00,-5.000000000000000000e+00,-3.000000000000000000e+00,-4.354248046875000000e-01,2.908935546875000000e-01,5.480957031250000000e-01,6.521606445312500000e-01
2.000000000000000000e+00,2.000000000000000000e+00,2.100000000000000000e+01,-1.700000000000000000e+01,-1.900000000000000000e+01,-1.500000000000000000e+01,-1.400000000000000000e+01,-1.000000000000000000e+00,-4.354248046875000000e-01,2.908935546875000000e-01,5.480957031250000000e-01,6.521606445312500000e-01
-1.000000000000000000e+00,-2.000000000000000000e+00,-4.800000000000000000e+01,1.400000000000000000e+01,-6.000000000000000000e+00,8.000000000000000000e+00,-2.000000000000000000e+00,0.000000000000000000e+00,-4.354248046875000000e-01,2.908935546875000000e-01,5.480957031250000000e-01,6.521606445312500000e-01
-3.000000000000000000e+00,0.000000000000000000e+00,2.100000000000000000e+01,-2.000000000000000000e+00,1.100000000000000000e+01,1.000000000000000000e+01,1.000000000000000000e+01,1.000000000000000000e+00,-4.354248046875000000e-01,2.908935546875000000e-01,5.480957031250000000e-01,6.521606445312500000e-01
8.000000000000000000e+00,2.000000000000000000e+00,-1.900000000000000000e+01,-5.000000000000000000e+00,5.000000000000000000e+00,7.000000000000000000e+00,2.300000000000000000e+01,2.000000000000000000e+00,-4.357910156250000000e-01,2.924804687500000000e-01,5.479125976562500000e-01,6.513671875000000000e-01
-8.000000000000000000e+00,-9.000000000000000000e+00,4.000000000000000000e+00,4.100000000000000000e+01,7.000000000000000000e+00,-1.100000000000000000e+01,2.000000000000000000e+00,-2.000000000000000000e+00,-4.357910156250000000e-01,2.924804687500000000e-01,5.479125976562500000e-01,6.513671875000000000e-01
6.000000000000000000e+00,1.300000000000000000e+01,1.600000000000000000e+01,-3.600000000000000000e+01,-4.000000000000000000e+00,8.000000000000000000e+00,8.000000000000000000e+00,2.000000000000000000e+00,-4.357910156250000000e-01,2.924804687500000000e-01,5.479125976562500000e-01,6.513671875000000000e-01
2.000000000000000000e+00,7.000000000000000000e+00,4.000000000000000000e+00,7.000000000000000000e+00,-2.000000000000000000e+00,0.000000000000000000e+00,-6.000000000000000000e+00,0.000000000000000000e+00,-4.357910156250000000e-01,2.924804687500000000e-01,5.479125976562500000e-01,6.513671875000000000e-01
-3.000000000000000000e+00,-3.000000000000000000e+00,4.000000000000000000e+00,-3.700000000000000000e+01,-1.600000000000000000e+01,-1.000000000000000000e+00,-5.000000000000000000e+00,-2.000000000000000000e+00,-4.365844726562500000e-01,2.931518554687500000e-01,5.479736328125000000e-01,6.504516601562500000e-01
2.000000000000000000e+00,1.000000000000000000e+00,3.000000000000000000e+00,2.000000000000000000e+01,-1.200000000000000000e+01,-3.000000000000000000e+00,-1.000000000000000000e+00,-2.000000000000000000e+00,-4.365844726562500000e-01,2.931518554687500000e-01,5.479736328125000000e-01,6.504516601562500000e-01
-4.000000000000000000e+00,-7.000000000000000000e+00,-6.000000000000000000e+00,3.400000000000000000e+01,3.500000000000000000e+01,1.000000000000000000e+00,-4.000000000000000000e+00,-1.000000000000000000e+00,-4.365844726562500000e-01,2.931518554687500000e-01,5.479736328125000000e-01,6.504516601562500000e-01
-3.000000000000000000e+00,-2.000000000000000000e+00,6.000000000000000000e+00,-3.000000000000000000e+00,1.100000000000000000e+01,2.000000000000000000e+00,6.000000000000000000e+00,-1.000000000000000000e+00,-4.365844726562500000e-01,2.931518554687500000e-01,5.479736328125000000e-01,6.504516601562500000e-01
3.000000000000000000e+00,2.000000000000000000e+00,9.000000000000000000e+00,1.000000000000000000e+01,0.000000000000000000e+00,-2.000000000000000000e+00,-5.000000000000000000e+00,2.000000000000000000e+00,-4.370117187500000000e-01,2.941894531250000000e-01,5.479736328125000000e-01,6.497192382812500000e-01
-3.000000000000000000e+00,-5.000000000000000000e+00,-8.000000000000000000e+00,6.000000000000000000e+00,2.000000000000000000e+00,0.000000000000000000e+00,-9.000000000000000000e+00,-5.000000000000000000e+00,-4.370117187500000000e-01,2.941894531250000000e-01,5.479736328125000000e-01,6.497192382812500000e-01
2.000000000000000000e+00,-1.000000000000000000e+00,-5.000000000000000000e+00,-2.300000000000000000e+01,-2.100000000000000000e+01,-3.000000000000000000e+00,1.000000000000000000e+00,-1.000000000000000000e+00,-4.370117187500000000e-01,2.941894531250000000e-01,5.479736328125000000e-01,6.497192382812500000e-01
-1.100000000000000000e+01,1.000000000000000000e+00,1.200000000000000000e+01,2.000000000000000000e+00,3.000000000000000000e+00,2.000000000000000000e+00,1.000000000000000000e+00,-2.000000000000000000e+00,-4.370117187500000000e-01,2.941894531250000000e-01,5.479736328125000000e-01,6.497192382812500000e-01
-2.000000000000000000e+00,-1.000000000000000000e+01,-7.000000000000000000e+00,3.000000000000000000e+00,-4.000000000000000000e+00,-8.000000000000000000e+00,-8.000000000000000000e+00,-3.000000000000000000e+00,-4.365234375000000000e-01,2.955322265625000000e-01,5.478515625000000000e-01,6.495361328125000000e-01
0.000000000000000000e+00,0.000000000000000000e+00,-1.400000000000000000e+01,-6.000000000000000000e+00,-1.000000000000000000e+00,-2.000000000000000000e+00,-3.000000000000000000e+00,0.000000000000000000e+00,-4.365234375000000000e-01,2.955322265625000000e-01,5.478515625000000000e-01,6.495361328125000000e-01
-4.000000000000000000e+00,-3.000000000000000000e+00,1.000000000000000000e+00,8.000000000000000000e+00,-6.000000000000000000e+00,-6.000000000000000000e+00,-9.000000000000000000e+00,-2.000000000000000000e+00,-4.365234375000000000e-01,2.955322265625000000e-01,5.478515625000000000e-01,6.495361328125000000e-01
6.000000000000000000e+00,5.000000000000000000e+00,2.700000000000000000e+01,7.000000000000000000e+00,0.000000000000000000e+00,-7.000000000000000000e+00,-1.000000000000000000e+01,2.000000000000000000e+00,-4.365234375000000000e-01,2.955322265625000000e-01,5.478515625000000000e-01,6.495361328125000000e-01
3.000000000000000000e+00,1.000000000000000000e+00,-7.000000000000000000e+00,-7.000000000000000000e+00,5.000000000000000000e+00,2.700000000000000000e+01,2.800000000000000000e+01,6.000000000000000000e+00,-4.362792968750000000e-01,2.960815429687500000e-01,5.479736328125000000e-01,6.493530273437500000e-01
-3.000000000000000000e+00,-3.000000000000000000e+00,-6.000000000000000000e+00,-2.000000000000000000e+01,-2.000000000000000000e+00,6.000000000000000000e+00,1.300000000000000000e+01,-1.000000000000000000e+00,-4.362792968750000000e-01,2.960815429687500000e-01,5.479736328125000000e-01,6.493530273437500000e-01
0.000000000000000000e+00,-1.000000000000000000e+00,4.000000000000000000e+00,1.000000000000000000e+00,-5.000000000000000000e+00,-3.000000000000000000e+00,-2.000000000000000000e+00,0.000000000000000000e+00,-4.362792968750000000e-01,2.960815429687500000e-01,5.479736328125000000e-01,6.493530273437500000e-01
2.000000000000000000e+00,-2.000000000000000000e+00,9.000000000000000000e+00,1.700000000000000000e+01,-8.000000000000000000e+00,-5.000000000000000000e+00,-3.000000000000000000e+00,-2.000000000000000000e+00,-4.362792968750000000e-01,2.960815429687500000e-01,5.479736328125000000e-01,6.493530273437500000e-01
-8.000000000000000000e+00,-4.000000000000000000e+00,-2.900000000000000000e+01,1.000000000000000000e+01,-2.000000000000000000e+00,-2.300000000000000000e+01,-4.300000000000000000e+01,-6.000000000000000000e+00,-4.366455078125000000e-01,2.959594726562500000e-01,5.483398437500000000e-01,6.488647460937500000e-01
-8.000000000000000000e+00,-8.000000000000000000e+00,-1.300000000000000000e+01,-2.900000000000000000e+01,-6.000000000000000000e+00,1.300000000000000000e+01,1.300000000000000000e+01,-2.000000000000000000e+00,-4.366455078125000000e-01,2.959594726562500000e-01,5.483398437500000000e-01,6.488647460937500000e-01
1.000000000000000000e+00,3.000000000000000000e+00,8.000000000000000000e+00,1.600000000000000000e+01,-2.000000000000000000e+00,-6.000000000000000000e+00,7.000000000000000000e+00,1.000000000000000000e+00,-4.366455078125000000e-01,2.959594726562500000e-01,5.483398437500000000e-01,6.488647460937500000e-01
1.000000000000000000e+00,2.000000000000000000e+00,-1.300000000000000000e+01,-1.500000000000000000e+01,9.000000000000000000e+00,1.300000000000000000e+01,9.000000000000000000e+00,0.000000000000000000e+00,-4.366455078125000000e-01,2.959594726562500000e-01,5.483398437500000000e-01,6.488647460937500000e-01
-1.000000000000000000e+00,-5.000000000000000000e+00,1.300000000000000000e+01,-4.000000000000000000e+00,-8.000000000000000000e+00,-9.000000000000000000e+00,-4.000000000000000000e+00,-2.000000000000000000e+00,-4.370117187500000000e-01,2.960205078125000000e-01,5.483398437500000000e-01,6.486206054687500000e-01
4.000000000000000000e+00,8.000000000000000000e+00,2.700000000000000000e+01,1.600000000000000000e+01,4.000000000000000000e+00,-7.000000000000000000e+00,-1.100000000000000000e+01,-2.000000000000000000e+00,-4.370117187500000000e-01,2.960205078125000000e-01,5.483398437500000000e-01,6.486206054687500000e-01
1.000000000000000000e+00,-3.000000000000000000e+00,-2.200000000000000000e+01,-2.500000000000000000e+01,-1.200000000000000000e+01,-1.000000000000000000e+01,-7.000000000000000000e+00,-2.000000000000000000e+00,-4.370117187500000000e-01,2.960205078125000000e-01,5.483398437500000000e-01,6.486206054687500000e-01
-2.000000000000000000e+00,7.000000000000000000e+00,9.000000000000000000e+00,3.900000000000000000e+01,1.000000000000000000e+01,5.000000000000000000e+00,5.000000000000000000e+00,1.000000000000000000e+00,-4.370117187500000000e-01,2.960205078125000000e-01,5.483398437500000000e-01,6.486206054687500000e-01
-5.000000000000000000e+00,-7.000000000000000000e+00,-1.300000000000000000e+01,-1.200000000000000000e+01,-9.000000000000000000e+00,-1.000000000000000000e+01,-7.000000000000000000e+00,-3.000000000000000000e+00,-4.370117187500000000e-01,2.960815429687500000e-01,5.480346679687500000e-01,6.488647460937500000e-01
-7.000000000000000000e+00,-2.000000000000000000e+01,-4.000000000000000000e+00,-5.000000000000000000e+00,3.000000000000000000e+00,-4.000000000000000000e+00,-1.300000000000000000e+01,-5.000000000000000000e+00,-4.370117187500000000e-01,2.960815429687500000e-01,5.480346679687500000e-01,6.488647460937500000e-01
1.000000000000000000e+00,0.000000000000000000e+00,1.500000000000000000e+01,3.000000000000000000e+00,4.000000000000000000e+00,8.000000000000000000e+00,1.100000000000000000e+01,4.000000000000000000e+00,-4.370117187500000000e-01,2.960815429687500000e-01,5.480346679687500000e-01,6.488647460937500000e-01
3.000000000000000000e+00,0.000000000000000000e+00,-2.400000000000000000e+01,-1.800000000000000000e+01,-1.500000000000000000e+01,0.000000000000000000e+00,7.000000000000000000e+00,2.000000000000000000e+00,-4.370117187500000000e-01,2.960815429687500000e-01,5.480346679687500000e-01,6.488647460937500000e-01
3.000000000000000000e+00,1.400000000000000000e+01,2.900000000000000000e+01,-1.300000000000000000e+01,9.000000000000000000e+00,3.000000000000000000e+00,-3.000000000000000000e+00,1.000000000000000000e+00,-4.365844726562500000e-01,2.958984375000000000e-01,5.477294921875000000e-01,6.494140625000000000e-01
3.000000000000000000e+00,5.000000000000000000e+00,-2.400000000000000000e+01,3.200000000000000000e+01,5.000000000000000000e+00,3.000000000000000000e+00,-4.000000000000000000e+00,3.000000000000000000e+00,-4.365844726562500000e-01,2.958984375000000000e-01,5.477294921875000000e-01,6.494140625000000000e-01
-1.000000000000000000e+00,5.000000000000000000e+00,5.000000000000000000e+00,-5.400000000000000000e+01,-1.400000000000000000e+01,-1.800000000000000000e+01,0.000000000000000000e+00,-8.000000000000000000e+00,-4.365844726562500000e-01,2.958984375000000000e-01,5.477294921875000000e-01,6.494140625000000000e-01
-3.000000000000000000e+00,-1.000000000000000000e+00,1.800000000000000000e+01,2.500000000000000000e+01,1.000000000000000000e+01,1.700000000000000000e+01,1.000000000000000000e+00,1.000000000000000000e+00,-4.365844726562500000e-01,2.958984375000000000e-01,5.477294921875000000e-01,6.494140625000000000e-01
-1.000000000000000000e+00,-3.000000000000000000e+00,4.000000000000000000e+00,1.500000000000000000e+01,-5.000000000000000000e+00,-7.000000000000000000e+00,-6.000000000000000000e+00,-3.000000000000000000e+00,-4.362792968750000000e-01,2.954101562500000000e-01,5.479736328125000000e-01,6.495971679687500000e-01
0.000000000000000000e+00,-7.000000000000000000e+00,-3.900000000000000000e+01,-2.100000000000000000e+01,7.000000000000000000e+00,-5.000000000000000000e+00,0.000000000000000000e+00,0.000000000000000000e+00,-4.362792968750000000e-01,2.954101562500000000e-01,5.479736328125000000e-01,6.495971679687500000e-01
-3.000000000000000000e+00,3.000000000000000000e+00,5.000000000000000000e+00,1.500000000000000000e+01,-5.000000000000000000e+00,4.000000000000000000e+00,-1.000000000000000000e+00,-2.000000000000000000e+00,-4.362792968750000000e-01,2.954101562500000000e-01,5.479736328125000000e-01,6.495971679687500000e-01
-1.000000000000000000e+00,-4.000000000000000000e+00,1.600000000000000000e+01,-1.600000000000000000e+01,-1.000000000000000000e+00,-9.000000000000000000e+00,-6.000000000000000000e+00,-1.000000000000000000e+00,-4.362792968750000000e-01,2.954101562500000000e-01,5.479736328125000000e-01,6.495971679687500000e-01
-2.000000000000000000e+00,-6.000000000000000000e+00,-4.400000000000000000e+01,1.000000000000000000e+01,-2.000000000000000000e+00,-6.000000000000000000e+00,0.000000000000000000e+00,-6.000000000000000000e+00,-4.361572265625000000e-01,2.951660156250000000e-01,5.484008789062500000e-01,6.494750976562500000e-01
0.000000000000000000e+00,-2.000000000000000000e+00,2.400000000000000000e+01,-3.100000000000000000e+01,-1.500000000000000000e+01,7.000000000000000000e+00,-4.000000000000000000e+00,0.000000000000000000e+00,-4.361572265625000000e-01,2.951660156250000000e-01,5.484008789062500000e-01,6.494750976562500000e-01
-4.000000000000000000e+00,-2.000000000000000000e+00,-9.000000000000000000e+00,4.300000000000000000e+01,1.500000000000000000e+01,1.000000000000000000e+00,3.000000000000000000e+00,0.000000000000000000e+00,-4.361572265625000000e-01,2.951660156250000000e-01,5.484008789062500000e-01,6.494750976562500000e-01
-4.000000000000000000e+00,-6.000000000000000000e+00,-1.500000000000000000e+01,-1.000000000000000000e+01,-1.200000000000000000e+01,-4.000000000000000000e+00,-1.000000000000000000e+00,-3.000000000000000000e+00,-4.361572265625000000e-01,2.951660156250000000e-01,5.484008789062500000e-01,6.494750976562500000e-01
2.000000000000000000e+00,1.000000000000000000e+00,1.200000000000000000e+01,-2.100000000000000000e+01,-3.000000000000000000e+00,1.000000000000000000e+00,4.000000000000000000e+00,4.000000000000000000e+00,-4.364624023437500000e-01,2.945556640625000000e-01,5.487060546875000000e-01,6.493530273437500000e-01
2.000000000000000000e+00,9.000000000000000000e+00,2.200000000000000000e+01,-7.000000000000000000e+00,-5.000000000000000000e+00,-9.000000000000000000e+00,-6.000000000000000000e+00,-3.000000000000000000e+00,-4.364624023437500000e-01,2.945556640625000000e-01,5.487060546875000000e-01,6.493530273437500000e-01
-7.000000000000000000e+00,-1.200000000000000000e+01,-3.000000000000000000e+01,2.400000000000000000e+01,0.000000000000000000e+00,2.000000000000000000e+00,7.000000000000000000e+00,-1.200000000000000000e+01,-4.364624023437500000e-01,2.945556640625000000e-01,5.487060546875000000e-01,6.493530273437500000e-01
1.000000000000000000e+00,-1.000000000000000000e+00,1.100000000000000000e+01,-2.500000000000000000e+01,-2.000000000000000000e+00,2.000000000000000000e+00,-4.000000000000000000e+00,1.000000000000000000e+00,-4.364624023437500000e-01,2.945556640625000000e-01,5.487060546875000000e-01,6.493530273437500000e-01
0.000000000000000000e+00,4.000000000000000000e+00,9.000000000000000000e+00,-2.200000000000000000e+01,-5.000000000000000000e+00,-4.000000000000000000e+00,-6.000000000000000000e+00,-2.000000000000000000e+00,-4.364624023437500000e-01,2.944335937500000000e-01,5.486450195312500000e-01,6.494140625000000000e-01
-1.000000000000000000e+00,1.000000000000000000e+00,-3.000000000000000000e+00,-5.000000000000000000e+00,-1.200000000000000000e+01,-1.200000000000000000e+01,-8.000000000000000000e+00,2.000000000000000000e+00,-4.364624023437500000e-01,2.944335937500000000e-01,5.486450195312500000e-01,6.494140625000000000e-01
-5.000000000000000000e+00,-5.000000000000000000e+00,1.400000000000000000e+01,3.000000000000000000e+00,0.000000000000000000e+00,-1.000000000000000000e+00,-1.000000000000000000e+01,-1.000000000000000000e+00,-4.364624023437500000e-01,2.944335937500000000e-01,5.486450195312500000e-01,6.494140625000000000e-01
0.000000000000000000e+00,-2.000000000000000000e+00,-3.000000000000000000e+00,1.200000000000000000e+01,-4.000000000000000000e+00,1.100000000000000000e+01,2.400000000000000000e+01,-1.000000000000000000e+00,-4.364624023437500000e-01,2.944335937500000000e-01,5.486450195312500000e-01,6.494140625000000000e-01
-1.000000000000000000e+00,-3.000000000000000000e+00,-2.300000000000000000e+01,-6.000000000000000000e+00,8.000000000000000000e+00,6.000000000000000000e+00,1.100000000000000000e+01,3.000000000000000000e+00,-4.357910156250000000e-01,2.947387695312500000e-01,5.485839843750000000e-01,6.497802734375000000e-01
-2.000000000000000000e+00,1.000000000000000000e+00,3.900000000000000000e+01,1.900000000000000000e+01,4.000000000000000000e+00,-1.000000000000000000e+00,-9.000000000000000000e+00,-1.000000000000000000e+00,-4.357910156250000000e-01,2.947387695312500000e-01,5.485839843750000000e-01,6.497802734375000000e-01
2.000000000000000000e+00,-1.000000000000000000e+00,-3.800000000000000000e+01,-1.400000000000000000e+01,-6.000000000000000000e+00,-6.000000000000000000e+00,3.000000000000000000e+00,2.000000000000000000e+00,-4.357910156250000000e-01,2.947387695312500000e-01,5.485839843750000000e-01,6.497802734375000000e-01
-3.000000000000000000e+00,-5.000000000000000000e+00,0.000000000000000000e+00,1.200000000000000000e+01,1.000000000000000000e+00,-8.000000000000000000e+00,-1.800000000000000000e+01,-5.000000000000000000e+00,-4.357910156250000000e-01,2.947387695312500000e-01,5.485839843750000000e-01,6.497802734375000000e-01
-1.000000000000000000e+00,5.000000000000000000e+00,2.800000000000000000e+01,-2.000000000000000000e+00,1.000000000000000000e+00,4.000000000000000000e+00,2.000000000000000000e+00,-2.000000000000000000e+00,-4.357299804687500000e-01,2.947387695312500000e-01,5.486450195312500000e-01,6.497802734375000000e-01
-2.000000000000000000e+00,-8.000000000000000000e+00,-2.600000000000000000e+01,2.400000000000000000e+01,6.000000000000000000e+00,3.000000000000000000e+00,-1.000000000000000000e+00,0.000000000000000000e+00,-4.357299804687500000e-01,2.947387695312500000e-01,5.486450195312500000e-01,6.497802734375000000e-01
-1.000000000000000000e+00,2.000000000000000000e+00,4.100000000000000000e+01,1.700000000000000000e+01,9.000000000000000000e+00,2.000000000000000000e+00,-6.000000000000000000e+00,0.000000000000000000e+00,-4.357299804687500000e-01,2.947387695312500000e-01,5.486450195312500000e-01,6.497802734375000000e-01
-3.000000000000000000e+00,-3.000000000000000000e+00,-3.200000000000000000e+01,-3.900000000000000000e+01,0.000000000000000000e+00,-2.000000000000000000e+00,7.000000000000000000e+00,-1.000000000000000000e+00,-4.357299804687500000e-01,2.947387695312500000e-01,5.486450195312500000e-01,6.497802734375000000e-01
2.000000000000000000e+00,5.000000000000000000e+00,7.000000000000000000e+00,1.200000000000000000e+01,-1.000000000000000000e+00,-2.000000000000000000e+00,-1.000000000000000000e+01,-2.000000000000000000e+00,-4.360351562500000000e-01,2.937622070312500000e-01,5.490722656250000000e-01,6.496582031250000000e-01
-3.000000000000000000e+00,1.000000000000000000e+00,3.000000000000000000e+00,4.000000000000000000e+00,-1.000000000000000000e+00,-5.000000000000000000e+00,-4.000000000000000000e+00,-3.000000000000000000e+00,-4.360351562500000000e-01,2.937622070312500000e-01,5.490722656250000000e-01,6.496582031250000000e-01
7.000000000000000000e+00,1.000000000000000000e+00,-8.000000000000000000e+00,-2.700000000000000000e+01,-1.200000000000000000e+01,-1.000000000000000000e+00,-7.000000000000000000e+00,2.000000000000000000e+00,-4.360351562500000000e-01,2.937622070312500000e-01,5.490722656250000000e-01,6.496582031250000000e-01
-8.000000000000000000e+00,-6.000000000000000000e+00,6.000000000000000000e+00,1.200000000000000000e+01,1.000000000000000000e+00,2.000000000000000000e+00,3.000000000000000000e+00,-2.000000000000000000e+00,-4.360351562500000000e-01,2.937622070312500000e-01,5.490722656250000000e-01,6.496582031250000000e-01
-3.000000000000000000e+00,0.000000000000000000e+00,-9.000000000000000000e+00,3.400000000000000000e+01,2.000000000000000000e+00,3.000000000000000000e+00,1.700000000000000000e+01,-1.000000000000000000e+00,-4.357910156250000000e-01,2.930297851562500000e-01,5.492553710937500000e-01,6.499633789062500000e-01
1.000000000000000000e+00,0.000000000000000000e+00,-3.000000000000000000e+00,-4.100000000000000000e+01,-1.000000000000000000e+01,-4.000000000000000000e+00,-5.000000000000000000e+00,1.000000000000000000e+00,-4.357910156250000000e-01,2.930297851562500000e-01,5.492553710937500000e-01,6.499633789062500000e-01
-6.000000000000000000e+00,-3.000000000000000000e+00,-6.000000000000000000e+00,4.000000000000000000e+00,-1.000000000000000000e+00,-2.000000000000000000e+00,-5.000000000000000000e+00,0.000000000000000000e+00,-4.357910156250000000e-01,2.930297851562500000e-01,5.492553710937500000e-01,6.499633789062500000e-01
9.000000000000000000e+00,2.000000000000000000e+00,1.400000000000000000e+01,9.000000000000000000e+00,6.000000000000000000e+00,1.000000000000000000e+00,3.000000000000000000e+00,4.000000000000000000e+00,-4.357910156250000000e-01,2.930297851562500000e-01,5.492553710937500000e-01,6.499633789062500000e-01
3.000000000000000000e+00,1.000000000000000000e+00,0.000000000000000000e+00,4.000000000000000000e+00,0.000000000000000000e+00,2.000000000000000000e+00,3.000000000000000000e+00,1.000000000000000000e+00,-4.348144531250000000e-01,2.927856445312500000e-01,5.494995117187500000e-01,6.505737304687500000e-01
-5.000000000000000000e+00,-2.000000000000000000e+00,-8.000000000000000000e+00,-1.200000000000000000e+01,2.000000000000000000e+00,-1.000000000000000000e+00,4.000000000000000000e+00,-1.000000000000000000e+00,-4.348144531250000000e-01,2.927856445312500000e-01,5.494995117187500000e-01,6.505737304687500000e-01
3.000000000000000000e+00,4.000000000000000000e+00,2.000000000000000000e+00,1.300000000000000000e+01,-3.000000000000000000e+00,3.000000000000000000e+00,3.000000000000000000e+00,-1.000000000000000000e+00,-4.348144531250000000e-01,2.927856445312500000e-01,5.494995117187500000e-01,6.505737304687500000e-01
-5.000000000000000000e+00,-4.000000000000000000e+00,6.000000000000000000e+00,-4.000000000000000000e+00,-1.000000000000000000e+01,-1.200000000000000000e+01,-1.400000000000000000e+01,-5.000000000000000000e+00,-4.348144531250000000e-01,2.927856445312500000e-01,5.494995117187500000e-01,6.505737304687500000e-01
-3.000000000000000000e+00,-8.000000000000000000e+00,-1.600000000000000000e+01,-1.900000000000000000e+01,-3.000000000000000000e+00,0.000000000000000000e+00,-4.000000000000000000e+00,-2.000000000000000000e+00,-4.338378906250000000e-01,2.925415039062500000e-01,5.499267578125000000e-01,6.509399414062500000e-01
1.000000000000000000e+00,-1.000000000000000000e+00,-2.000000000000000000e+00,1.500000000000000000e+01,1.000000000000000000e+01,3.000000000000000000e+00,0.000000000000000000e+00,0.000000000000000000e+00,-4.338378906250000000e-01,2.925415039062500000e-01,5.499267578125000000e-01,6.509399414062500000e-01
-1.000000000000000000e+00,-4.000000000000000000e+00,-4.000000000000000000e+00,-3.000000000000000000e+00,-2.000000000000000000e+00,-3.000000000000000000e+00,-6.000000000000000000e+00,-1.000000000000000000e+00,-4.338378906250000000e-01,2.925415039062500000e-01,5.499267578125000000e-01,6.509399414062500000e-01
0.000000000000000000e+00,1.000000000000000000e+00,-1.000000000000000000e+01,-2.800000000000000000e+01,2.000000000000000000e+00,-2.000000000000000000e+00,-3.000000000000000000e+00,-2.000000000000000000e+00,-4.338378906250000000e-01,2.925415039062500000e-01,5.499267578125000000e-01,6.509399414062500000e-01
-2.000000000000000000e+00,-2.000000000000000000e+00,-1.000000000000000000e+00,1.500000000000000000e+01,7.000000000000000000e+00,1.000000000000000000e+00,-3.000000000000000000e+00,-1.000000000000000000e+00,-4.326171875000000000e-01,2.921142578125000000e-01,5.508422851562500000e-01,6.511840820312500000e-01
3.000000000000000000e+00,4.000000000000000000e+00,9.000000000000000000e+00,0.000000000000000000e+00,-1.100000000000000000e+01,-1.000000000000000000e+00,-4.000000000000000000e+00,-1.000000000000000000e+00,-4.326171875000000000e-01,2.921142578125000000e-01,5.508422851562500000e-01,6.511840820312500000e-01
-3.000000000000000000e+00,1.000000000000000000e+00,-1.100000000000000000e+01,6.000000000000000000e+00,7.000000000000000000e+00,-1.000000000000000000e+00,4.000000000000000000e+00,3.000000000000000000e+00,-4.326171875000000000e-01,2.921142578125000000e-01,5.508422851562500000e-01,6.511840820312500000e-01
-6.000000000000000000e+00,-7.000000000000000000e+00,-7.000000000000000000e+00,-3.000000000000000000e+00,-1.300000000000000000e+01,-8.000000000000000000e+00,7.000000000000000000e+00,-3.000000000000000000e+00,-4.326171875000000000e-01,2.921142578125000000e-01,5.508422851562500000e-01,6.511840820312500000e-01
2.000000000000000000e+00,2.000000000000000000e+00,1.900000000000000000e+01,-2.000000000000000000e+00,0.000000000000000000e+00,-4.000000000000000000e+00,-1.700000000000000000e+01,-1.000000000000000000e+00,-4.311523437500000000e-01,2.912597656250000000e-01,5.524291992187500000e-01,6.511840820312500000e-01
3.000000000000000000e+00,2.000000000000000000e+00,-2.000000000000000000e+00,-2.000000000000000000e+00,4.000000000000000000e+00,9.000000000000000000e+00,7.000000000000000000e+00,-2.000000000000000000e+00,-4.311523437500000000e-01,2.912597656250000000e-01,5.524291992187500000e-01,6.511840820312500000e-01
-2.000000000000000000e+00,3.000000000000000000e+00,2.000000000000000000e+01,6.000000000000000000e+00,4.000000000000000000e+00,-4.000000000000000000e+00,-1.000000000000000000e+00,-3.000000000000000000e+00,-4.311523437500000000e-01,2.912597656250000000e-01,5.524291992187500000e-01,6.511840820312500000e-01
1.000000000000000000e+00,3.000000000000000000e+00,1.500000000000000000e+01,2.100000000000000000e+01,-4.000000000000000000e+00,-2.000000000000000000e+00,-5.000000000000000000e+00,-1.000000000000000000e+00,-4.311523437500000000e-01,2.912597656250000000e-01,5.524291992187500000e-01,6.511840820312500000e-01
-2.000000000000000000e+00,-4.000000000000000000e+00,-1.200000000000000000e+01,-2.400000000000000000e+01,-1.000000000000000000e+00,-3.000000000000000000e+00,1.000000000000000000e+00,-2.000000000000000000e+00,-4.302978515625000000e-01,2.896728515625000000e-01,5.543823242187500000e-01,6.508178710937500000e-01
-1.000000000000000000e+00,2.000000000000000000e+00,1.000000000000000000e+00,-3.000000000000000000e+00,-6.000000000000000000e+00,-5.000000000000000000e+00,0.000000000000000000e+00,-2.000000000000000000e+00,-4.302978515625000000e-01,2.896728515625000000e-01,5.543823242187500000e-01,6.508178710937500000e-01
-4.000000000000000000e+00,-4.000000000000000000e+00,-5.000000000000000000e+00,-1.900000000000000000e+01,-6.000000000000000000e+00,4.000000000000000000e+00,2.000000000000000000e+00,1.000000000000000000e+00,-4.302978515625000000e-01,2.896728515625000000e-01,5.543823242187500000e-01,6.508178710937500000e-01
0.000000000000000000e+00,1.000000000000000000e+00,1.000000000000000000e+01,0.000000000000000000e+00,-4.000000000000000000e+00,-1.000000000000000000e+00,-1.000000000000000000e+00,-1.000000000000000000e+00,-4.302978515625000000e-01,2.896728515625000000e-01,5.543823242187500000e-01,6.508178710937500000e-01
-1.000000000000000000e+00,-1.000000000000000000e+00,-1.100000000000000000e+01,1.600000000000000000e+01,0.000000000000000000e+00,-3.000000000000000000e+00,-2.000000000000000000e+00,2.000000000000000000e+00,-4.295043945312500000e-01,2.885742187500000000e-01,5.561523437500000000e-01,6.503295898437500000e-01
0.000000000000000000e+00,1.000000000000000000e+00,6.000000000000000000e+00,1.600000000000000000e+01,1.800000000000000000e+01,4.000000000000000000e+00,-3.000000000000000000e+00,0.000000000000000000e+00,-4.295043945312500000e-01,2.885742187500000000e-01,5.561523437500000000e-01,6.503295898437500000e-01
-3.000000000000000000e+00,-8.000000000000000000e+00,-1.800000000000000000e+01,-2.300000000000000000e+01,-9.000000000000000000e+00,-5.000000000000000000e+00,0.000000000000000000e+00,-4.000000000000000000e+00,-4.295043945312500000e-01,2.885742187500000000e-01,5.561523437500000000e-01,6.503295898437500000e-01
0.000000000000000000e+00,3.000000000000000000e+00,8.000000000000000000e+00,1.400000000000000000e+01,1.600000000000000000e+01,3.000000000000000000e+00,-1.000000000000000000e+00,0.000000000000000000e+00,-4.295043945312500000e-01,2.885742187500000000e-01,5.561523437500000000e-01,6.503295898437500000e-01
-2.000000000000000000e+00,-1.000000000000000000e+00,-8.000000000000000000e+00,2.600000000000000000e+01,-6.000000000000000000e+00,-1.000000000000000000e+00,-2.000000000000000000e+00,-2.000000000000000000e+00,-4.281616210937500000e-01,2.884521484375000000e-01,5.573120117187500000e-01,6.502685546875000000e-01
1.000000000000000000e+00,4.000000000000000000e+00,4.000000000000000000e+00,-2.600000000000000000e+01,-1.400000000000000000e+01,-1.000000000000000000e+00,6.000000000000000000e+00,1.000000000000000000e+00,-4.281616210937500000e-01,2.884521484375000000e-01,5.573120117187500000e-01,6.502685546875000000e-01
0.000000000000000000e+00,-3.000000000000000000e+00,-2.300000000000000000e+01,-1.800000000000000000e+01,1.700000000000000000e+01,2.000000000000000000e+00,-2.000000000000000000e+00,-1.000000000000000000e+00,-4.281616210937500000e-01,2.884521484375000000e-01,5.573120117187500000e-01,6.502685546875000000e-01
3.000000000000000000e+00,1.000000000000000000e+00,0.000000000000000000e+00,3.000000000000000000e+00,-6.000000000000000000e+00,-6.000000000000000000e+00,-5.000000000000000000e+00,-1.000000000000000000e+00,-4.281616210937500000e-01,2.884521484375000000e-01,5.573120117187500000e-01,6.502685546875000000e-01
-7.000000000000000000e+00,-6.000000000000000000e+00,1.400000000000000000e+01,4.000000000000000000e+00,-1.000000000000000000e+00,-1.000000000000000000e+00,0.000000000000000000e+00,-3.000000000000000000e+00,-4.268798828125000000e-01,2.886352539062500000e-01,5.581054687500000000e-01,6.503295898437500000e-01
-1.000000000000000000e+00,-5.000000000000000000e+00,-1.200000000000000000e+01,1.200000000000000000e+01,3.000000000000000000e+00,0.000000000000000000e+00,-6.000000000000000000e+00,-1.000000000000000000e+00,-4.268798828125000000e-01,2.886352539062500000e-01,5.581054687500000000e-01,6.503295898437500000e-01
0.000000000000000000e+00,-2.000000000000000000e+00,6.000000000000000000e+00,2.200000000000000000e+01,-2.000000000000000000e+00,0.000000000000000000e+00,4.000000000000000000e+00,0.000000000000000000e+00,-4.256591796875000000e-01,2.890625000000000000e-01,5.587768554687500000e-01,6.503906250000000000e-01
-1.000000000000000000e+00,-3.000000000000000000e+00,-4.000000000000000000e+00,-2.000000000000000000e+01,-7.000000000000000000e+00,-2.000000000000000000e+00,-2.000000000000000000e+00,-1.000000000000000000e+00,-4.256591796875000000e-01,2.890625000000000000e-01,5.587768554687500000e-01,6.503906250000000000e-01
3.000000000000000000e+00,4.000000000000000000e+00,1.200000000000000000e+01,-6.000000000000000000e+00,1.000000000000000000e+00,0.000000000000000000e+00,-1.200000000000000000e+01,-3.000000000000000000e+00,-4.256591796875000000e-01,2.890625000000000000e-01,5.587768554687500000e-01,6.503906250000000000e-01
-1.000000000000000000e+00,1.000000000000000000e+00,2.400000000000000000e+01,6.000000000000000000e+00,2.000000000000000000e+00,6.000000000000000000e+00,1.600000000000000000e+01,4.000000000000000000e+00,-4.256591796875000000e-01,2.890625000000000000e-01,5.587768554687500000e-01,6.503906250000000000e-01
0.000000000000000000e+00,-1.000000000000000000e+00,1.100000000000000000e+01,8.000000000000000000e+00,-4.000000000000000000e+00,1.000000000000000000e+00,1.000000000000000000e+00,1.000000000000000000e+00,-4.248657226562500000e-01,2.890625000000000000e-01,5.593872070312500000e-01,6.503295898437500000e-01
-1.000000000000000000e+00,0.000000000000000000e+00,-9.000000000000000000e+00,-1.700000000000000000e+01,1.000000000000000000e+00,-2.000000000000000000e+00,0.000000000000000000e+00,-1.000000000000000000e+00,-4.248657226562500000e-01,2.890625000000000000e-01,5.593872070312500000e-01,6.503295898437500000e-01
-1.000000000000000000e+00,-7.000000000000000000e+00,-1.600000000000000000e+01,-1.600000000000000000e+01,-1.000000000000000000e+01,-7.000000000000000000e+00,2.000000000000000000e+00,0.000000000000000000e+00,-4.248657226562500000e-01,2.890625000000000000e-01,5.593872070312500000e-01,6.503295898437500000e-01
-4.000000000000000000e+00,-4.000000000000000000e+00,5.000000000000000000e+00,-1.800000000000000000e+01,-4.000000000000000000e+00,-7.000000000000000000e+00,-5.000000000000000000e+00,-3.000000000000000000e+00,-4.248657226562500000e-01,2.890625000000000000e-01,5.593872070312500000e-01,6.503295898437500000e-01
-4.000000000000000000e+00,-4.000000000000000000e+00,-3.000000000000000000e+00,2.200000000000000000e+01,-2.000000000000000000e+00,-5.000000000000000000e+00,-7.000000000000000000e+00,-3.000000000000000000e+00,-4.248046875000000000e-01,2.886352539062500000e-01,5.599365234375000000e-01,6.500854492187500000e-01
2.000000000000000000e+00,4.000000000000000000e+00,-1.000000000000000000e+00,3.200000000000000000e+01,1.700000000000000000e+01,5.000000000000000000e+00,3.000000000000000000e+00,1.000000000000000000e+00,-4.248046875000000000e-01,2.886352539062500000e-01,5.599365234375000000e-01,6.500854492187500000e-01
2.000000000000000000e+00,4.000000000000000000e+00,2.200000000000000000e+01,-6.000000000000000000e+00,-5.000000000000000000e+00,-1.000000000000000000e+00,0.000000000000000000e+00,-1.000000000000000000e+00,-4.248046875000000000e-01,2.886352539062500000e-01,5.599365234375000000e-01,6.500854492187500000e-01
-2.000000000000000000e+00,-3.000000000000000000e+00,-1.300000000000000000e+01,-7.000000000000000000e+00,1.000000000000000000e+00,3.000000000000000000e+00,-2.000000000000000000e+00,-3.000000000000000000e+00,-4.248046875000000000e-01,2.886352539062500000e-01,5.599365234375000000e-01,6.500854492187500000e-01
0.000000000000000000e+00,-1.000000000000000000e+00,2.000000000000000000e+00,-1.000000000000000000e+01,2.000000000000000000e+00,-5.000000000000000000e+00,-1.000000000000000000e+00,1.000000000000000000e+00,-4.250488281250000000e-01,2.880859375000000000e-01,5.604248046875000000e-01,6.497192382812500000e-01
1.000000000000000000e+00,2.000000000000000000e+00,-1.200000000000000000e+01,-9.000000000000000000e+00,-1.700000000000000000e+01,1.000000000000000000e+00,-2.000000000000000000e+00,1.000000000000000000e+00,-4.250488281250000000e-01,2.880859375000000000e-01,5.604248046875000000e-01,6.497192382812500000e-01
-3.000000000000000000e+00,0.000000000000000000e+00,1.900000000000000000e+01,2.700000000000000000e+01,1.500000000000000000e+01,-1.000000000000000000e+00,-5.000000000000000000e+00,-1.000000000000000000e+00,-4.250488281250000000e-01,2.880859375000000000e-01,5.604248046875000000e-01,6.497192382812500000e-01
-1.000000000000000000e+00,-3.000000000000000000e+00,-7.000000000000000000e+00,3.000000000000000000e+00,-6.000000000000000000e+00,6.000000000000000000e+00,2.000000000000000000e+00,0.000000000000000000e+00,-4.250488281250000000e-01,2.880859375000000000e-01,5.604248046875000000e-01,6.497192382812500000e-01
0.000000000000000000e+00,-1.000000000000000000e+00,-2.300000000000000000e+01,-2.600000000000000000e+01,-3.000000000000000000e+00,1.000000000000000000e+00,-8.000000000000000000e+00,-2.000000000000000000e+00,-4.255981445312500000e-01,2.872314453125000000e-01,5.604858398437500000e-01,6.497192382812500000e-01
1.000000000000000000e+00,-2.000000000000000000e+00,1.000000000000000000e+00,-7.000000000000000000e+00,-7.000000000000000000e+00,-6.000000000000000000e+00,-1.000000000000000000e+00,-2.000000000000000000e+00,-4.255981445312500000e-01,2.872314453125000000e-01,5.604858398437500000e-01,6.497192382812500000e-01
0.000000000000000000e+00,3.000000000000000000e+00,-5.000000000000000000e+00,1.000000000000000000e+00,2.000000000000000000e+00,3.000000000000000000e+00,-3.000000000000000000e+00,-2.000000000000000000e+00,-4.255981445312500000e-01,2.872314453125000000e-01,5.604858398437500000e-01,6.497192382812500000e-01
-8.000000000000000000e+00,-2.000000000000000000e+00,0.000000000000000000e+00,1.500000000000000000e+01,-3.000000000000000000e+00,-1.000000000000000000e+01,-8.000000000000000000e+00,-5.000000000000000000e+00,-4.255981445312500000e-01,2.872314453125000000e-01,5.604858398437500000e-01,6.497192382812500000e-01
1.000000000000000000e+00,-1.000000000000000000e+00,3.300000000000000000e+01,-5.000000000000000000e+00,0.000000000000000000e+00,8.000000000000000000e+00,1.600000000000000000e+01,3.000000000000000000e+00,-4.256591796875000000e-01,2.863769531250000000e-01,5.603027343750000000e-01,6.502075195312500000e-01
0.000000000000000000e+00,-2.000000000000000000e+00,-2.400000000000000000e+01,-7.000000000000000000e+00,1.000000000000000000e+00,-2.000000000000000000e+00,-1.400000000000000000e+01,0.000000000000000000e+00,-4.256591796875000000e-01,2.863769531250000000e-01,5.603027343750000000e-01,6.502075195312500000e-01
3.000000000000000000e+00,5.000000000000000000e+00,1.500000000000000000e+01,-1.400000000000000000e+01,-4.000000000000000000e+00,2.000000000000000000e+00,2.300000000000000000e+01,1.000000000000000000e+00,-4.256591796875000000e-01,2.863769531250000000e-01,5.603027343750000000e-01,6.502075195312500000e-01
0.000000000000000000e+00,-4.000000000000000000e+00,-2.400000000000000000e+01,5.000000000000000000e+00,0.000000000000000000e+00,-8.000000000000000000e+00,-1.100000000000000000e+01,-2.000000000000000000e+00,-4.256591796875000000e-01,2.863769531250000000e-01,5.603027343750000000e-01,6.502075195312500000e-01
-3.000000000000000000e+00,-2.000000000000000000e+00,0.000000000000000000e+00,-1.400000000000000000e+01,-4.000000000000000000e+00,-6.000000000000000000e+00,-1.200000000000000000e+01,-2.000000000000000000e+00,-4.253540039062500000e-01,2.860717773437500000e-01,5.598754882812500000e-01,6.508789062500000000e-01
-4.000000000000000000e+00,-2.000000000000000000e+00,4.000000000000000000e+00,1.100000000000000000e+01,0.000000000000000000e+00,0.000000000000000000e+00,1.000000000000000000e+00,-1.000000000000000000e+00,-4.253540039062500000e-01,2.860717773437500000e-01,5.598754882812500000e-01,6.508789062500000000e-01
1.000000000000000000e+00,-2.000000000000000000e+00,-2.000000000000000000e+00,8.000000000000000000e+00,-6.000000000000000000e+00,-4.000000000000000000e+00,0.000000000000000000e+00,2.000000000000000000e+00,-4.253540039062500000e-01,2.860717773437500000e-01,5.598754882812500000e-01,6.508789062500000000e-01
6.000000000000000000e+00,3.000000000000000000e+00,-5.000000000000000000e+00,-7.000000000000000000e+00,-6.000000000000000000e+00,3.000000000000000000e+00,5.000000000000000000e+00,1.000000000000000000e+00,-4.253540039062500000e-01,2.860717773437500000e-01,5.598754882812500000e-01,6.508789062500000000e-01
-9.000000000000000000e+00,-7.000000000000000000e+00,7.000000000000000000e+00,2.200000000000000000e+01,9.000000000000000000e+00,5.000000000000000000e+00,3.000000000000000000e+00,0.000000000000000000e+00,-4.249267578125000000e-01,2.860107421875000000e-01,5.597534179687500000e-01,6.513671875000000000e-01
-2.000000000000000000e+00,-3.000000000000000000e+00,-2.400000000000000000e+01,-2.100000000000000000e+01,-6.000000000000000000e+00,-6.000000000000000000e+00,-3.000000000000000000e+00,-3.000000000000000000e+00,-4.249267578125000000e-01,2.860107421875000000e-01,5.597534179687500000e-01,6.513671875000000000e-01
-5.000000000000000000e+00,-1.000000000000000000e+00,-3.000000000000000000e+00,-3.600000000000000000e+01,-1.900000000000000000e+01,-4.000000000000000000e+00,-1.000000000000000000e+01,-4.000000000000000000e+00,-4.249267578125000000e-01,2.860107421875000000e-01,5.597534179687500000e-01,6.513671875000000000e-01
4.000000000000000000e+00,1.000000000000000000e+00,-2.000000000000000000e+00,2.100000000000000000e+01,1.200000000000000000e+01,5.000000000000000000e+00,8.000000000000000000e+00,1.000000000000000000e+00,-4.249267578125000000e-01,2.860107421875000000e-01,5.597534179687500000e-01,6.513671875000000000e-01
0.000000000000000000e+00,-4.000000000000000000e+00,-1.000000000000000000e+00,1.000000000000000000e+01,-1.000000000000000000e+00,-6.000000000000000000e+00,-8.000000000000000000e+00,-2.000000000000000000e+00,-4.252929687500000000e-01,2.853393554687500000e-01,5.596923828125000000e-01,6.514282226562500000e-01
0.000000000000000000e+00,-1.000000000000000000e+00,-1.000000000000000000e+01,-1.000000000000000000e+00,-5.000000000000000000e+00,4.000000000000000000e+00,2.400000000000000000e+01,1.000000000000000000e+00,-4.252929687500000000e-01,2.853393554687500000e-01,5.596923828125000000e-01,6.514282226562500000e-01
-1.000000000000000000e+00,-4.000000000000000000e+00,-1.000000000000000000e+00,3.000000000000000000e+00,4.000000000000000000e+00,-5.000000000000000000e+00,-2.900000000000000000e+01,-3.000000000000000000e+00,-4.252929687500000000e-01,2.853393554687500000e-01,5.596923828125000000e-01,6.514282226562500000e-01
-3.000000000000000000e+00,-6.000000000000000000e+00,0.000000000000000000e+00,-9.000000000000000000e+00,-1.000000000000000000e+00,9.000000000000000000e+00,1.400000000000000000e+01,2.000000000000000000e+00,-4.252929687500000000e-01,2.853393554687500000e-01,5.596923828125000000e-01,6.514282226562500000e-01
1.000000000000000000e+00,6.000000000000000000e+00,0.000000000000000000e+00,-2.100000000000000000e+01,-2.000000000000000000e+00,-1.000000000000000000e+00,-1.000000000000000000e+00,1.000000000000000000e+00,-4.250488281250000000e-01,2.849731445312500000e-01,5.598754882812500000e-01,6.516723632812500000e-01
2.000000000000000000e+00,-1.000000000000000000e+00,2.000000000000000000e+01,-2.000000000000000000e+00,-1.000000000000000000e+00,2.000000000000000000e+00,4.000000000000000000e+00,-1.000000000000000000e+00,-4.250488281250000000e-01,2.849731445312500000e-01,5.598754882812500000e-01,6.516723632812500000e-01
-1.100000000000000000e+01,-9.000000000000000000e+00,-1.100000000000000000e+01,-1.000000000000000000e+00,-5.000000000000000000e+00,-2.000000000000000000e+00,1.000000000000000000e+01,0.000000000000000000e+00,-4.250488281250000000e-01,2.849731445312500000e-01,5.598754882812500000e-01,6.516723632812500000e-01
2.000000000000000000e+00,2.000000000000000000e+00,6.000000000000000000e+00,-1.000000000000000000e+00,1.000000000000000000e+01,-7.000000000000000000e+00,-7.000000000000000000e+00,1.000000000000000000e+00,-4.250488281250000000e-01,2.849731445312500000e-01,5.598754882812500000e-01,6.516723632812500000e-01
-5.000000000000000000e+00,-2.000000000000000000e+00,-1.000000000000000000e+00,3.000000000000000000e+00,-3.000000000000000000e+00,7.000000000000000000e+00,6.000000000000000000e+00,-1.000000000000000000e+00,-4.244995117187500000e-01,2.850952148437500000e-01,5.599365234375000000e-01,6.518554687500000000e-01
1.000000000000000000e+00,-8.000000000000000000e+00,2.000000000000000000e+00,-1.000000000000000000e+00,-2.000000000000000000e+00,-1.000000000000000000e+00,-3.000000000000000000e+00,-1.000000000000000000e+00,-4.244995117187500000e-01,2.850952148437500000e-01,5.599365234375000000e-01,6.518554687500000000e-01
1.000000000000000000e+01,8.000000000000000000e+00,1.400000000000000000e+01,9.000000000000000000e+00,1.300000000000000000e+01,6.000000000000000000e+00,1.200000000000000000e+01,3.000000000000000000e+00,-4.244995117187500000e-01,2.850952148437500000e-01,5.599365234375000000e-01,6.518554687500000000e-01
-2.000000000000000000e+00,-5.000000000000000000e+00,-1.000000000000000000e+00,-1.200000000000000000e+01,0.000000000000000000e+00,-2.000000000000000000e+00,-1.000000000000000000e+01,-4.000000000000000000e+00,-4.244995117187500000e-01,2.850952148437500000e-01,5.599365234375000000e-01,6.518554687500000000e-01
0.000000000000000000e+00,3.000000000000000000e+00,-5.000000000000000000e+00,-7.000000000000000000e+00,-1.200000000000000000e+01,-3.000000000000000000e+00,-2.000000000000000000e+00,-2.000000000000000000e+00,-4.238891601562500000e-01,2.852172851562500000e-01,5.602416992187500000e-01,6.519775390625000000e-01
1.000000000000000000e+00,6.000000000000000000e+00,3.400000000000000000e+01,-1.000000000000000000e+00,-2.000000000000000000e+00,-3.000000000000000000e+00,-1.300000000000000000e+01,-2.000000000000000000e+00,-4.238891601562500000e-01,2.852172851562500000e-01,5.602416992187500000e-01,6.519775390625000000e-01
-1.000000000000000000e+00,-9.000000000000000000e+00,-5.500000000000000000e+01,-7.000000000000000000e+00,-1.000000000000000000e+00,4.000000000000000000e+00,9.000000000000000000e+00,0.000000000000000000e+00,-4.238891601562500000e-01,2.852172851562500000e-01,5.602416992187500000e-01,6.519775390625000000e-01
-8.000000000000000000e+00,-5.000000000000000000e+00,-3.000000000000000000e+00,-1.100000000000000000e+01,-1.000000000000000000e+00,-2.000000000000000000e+00,6.000000000000000000e+00,-3.000000000000000000e+00,-4.238891601562500000e-01,2.852172851562500000e-01,5.602416992187500000e-01,6.519775390625000000e-01
3.000000000000000000e+00,-1.000000000000000000e+00,-9.000000000000000000e+00,-2.000000000000000000e+00,-4.000000000000000000e+00,-3.000000000000000000e+00,-5.000000000000000000e+00,-2.000000000000000000e+00,-4.231567382812500000e-01,2.852172851562500000e-01,5.604248046875000000e-01,6.522216796875000000e-01
-3.000000000000000000e+00,0.000000000000000000e+00,8.000000000000000000e+00,1.100000000000000000e+01,-4.000000000000000000e+00,-3.000000000000000000e+00,-4.000000000000000000e+00,0.000000000000000000e+00,-4.231567382812500000e-01,2.852172851562500000e-01,5.604248046875000000e-01,6.522216796875000000e-01
-1.000000000000000000e+00,0.000000000000000000e+00,1.500000000000000000e+01,-3.000000000000000000e+00,-3.000000000000000000e+00,-3.000000000000000000e+00,-7.000000000000000000e+00,-2.000000000000000000e+00,-4.231567382812500000e-01,2.852172851562500000e-01,5.604248046875000000e-01,6.522216796875000000e-01
-3.000000000000000000e+00,-2.000000000000000000e+00,-1.000000000000000000e+00,1.200000000000000000e+01,-6.000000000000000000e+00,0.000000000000000000e+00,-5.000000000000000000e+00,-3.000000000000000000e+00,-4.231567382812500000e-01,2.852172851562500000e-01,5.604248046875000000e-01,6.522216796875000000e-01
0.000000000000000000e+00,-7.000000000000000000e+00,-4.100000000000000000e+01,-3.000000000000000000e+01,-8.000000000000000000e+00,-1.000000000000000000e+01,8.000000000000000000e+00,-2.000000000000000000e+00,-4.227294921875000000e-01,2.849731445312500000e-01,5.606079101562500000e-01,6.525268554687500000e-01
-4.000000000000000000e+00,-2.000000000000000000e+00,-1.000000000000000000e+00,1.200000000000000000e+01,4.000000000000000000e+00,2.000000000000000000e+00,-4.000000000000000000e+00,-2.000000000000000000e+00,-4.227294921875000000e-01,2.849731445312500000e-01,5.606079101562500000e-01,6.525268554687500000e-01
-2.000000000000000000e+00,-3.000000000000000000e+00,-1.100000000000000000e+01,-1.200000000000000000e+01,5.000000000000000000e+00,1.400000000000000000e+01,2.700000000000000000e+01,4.000000000000000000e+00,-4.227294921875000000e-01,2.849731445312500000e-01,5.606079101562500000e-01,6.525268554687500000e-01
2.000000000000000000e+00,-1.000000000000000000e+00,-2.000000000000000000e+00,2.000000000000000000e+00,-5.000000000000000000e+00,-8.000000000000000000e+00,-1.500000000000000000e+01,-4.000000000000000000e+00,-4.227294921875000000e-01,2.849731445312500000e-01,5.606079101562500000e-01,6.525268554687500000e-01
1.000000000000000000e+00,0.000000000000000000e+00,2.300000000000000000e+01,2.100000000000000000e+01,5.000000000000000000e+00,0.000000000000000000e+00,0.000000000000000000e+00,0.000000000000000000e+00,-4.222412109375000000e-01,2.849121093750000000e-01,5.608520507812500000e-01,6.526489257812500000e-01
-3.000000000000000000e+00,-3.000000000000000000e+00,-6.000000000000000000e+00,-2.000000000000000000e+00,5.000000000000000000e+00,-5.000000000000000000e+00,-1.600000000000000000e+01,-4.000000000000000000e+00,-4.222412109375000000e-01,2.849121093750000000e-01,5.608520507812500000e-01,6.526489257812500000e-01
3.000000000000000000e+00,3.000000000000000000e+00,-2.000000000000000000e+00,-2.000000000000000000e+00,-2.000000000000000000e+00,-1.000000000000000000e+00,2.000000000000000000e+00,0.000000000000000000e+00,-4.222412109375000000e-01,2.849121093750000000e-01,5.608520507812500000e-01,6.526489257812500000e-01
-4.000000000000000000e+00,0.000000000000000000e+00,-6.000000000000000000e+00,1.000000000000000000e+01,-1.400000000000000000e+01,-1.000000000000000000e+00,4.000000000000000000e+00,-3.000000000000000000e+00,-4.222412109375000000e-01,2.849121093750000000e-01,5.608520507812500000e-01,6.526489257812500000e-01
0.000000000000000000e+00,-1.000000000000000000e+00,-1.000000000000000000e+00,-3.300000000000000000e+01,-1.000000000000000000e+00,-3.000000000000000000e+00,-1.200000000000000000e+01,-2.000000000000000000e+00,-4.221801757812500000e-01,2.849121093750000000e-01,5.609130859375000000e-01,6.526489257812500000e-01
-1.000000000000000000e+00,-3.000000000000000000e+00,-2.100000000000000000e+01,1.800000000000000000e+01,7.000000000000000000e+00,-1.000000000000000000e+00,2.000000000000000000e+00,0.000000000000000000e+00,-4.221801757812500000e-01,2.849121093750000000e-01,5.609130859375000000e-01,6.526489257812500000e-01
-3.000000000000000000e+00,-1.000000000000000000e+00,1.300000000000000000e+01,2.400000000000000000e+01,-1.000000000000000000e+00,1.000000000000000000e+00,-8.000000000000000000e+00,-2.000000000000000000e+00,-4.221801757812500000e-01,2.849121093750000000e-01,5.609130859375000000e-01,6.526489257812500000e-01
1.000000000000000000e+00,1.000000000000000000e+00,-4.000000000000000000e+00,-1.600000000000000000e+01,1.000000000000000000e+01,0.000000000000000000e+00,-2.000000000000000000e+00,1.000000000000000000e+00,-4.221801757812500000e-01,2.849121093750000000e-01,5.609130859375000000e-01,6.526489257812500000e-01
-1.000000000000000000e+00,2.000000000000000000e+00,2.300000000000000000e+01,1.700000000000000000e+01,3.000000000000000000e+00,-2.000000000000000000e+00,-3.000000000000000000e+00,0.000000000000000000e+00,-4.219970703125000000e-01,2.849121093750000000e-01,5.611572265625000000e-01,6.524658203125000000e-01
-4.000000000000000000e+00,-3.000000000000000000e+00,8.000000000000000000e+00,-5.000000000000000000e+00,-1.200000000000000000e+01,-4.000000000000000000e+00,0.000000000000000000e+00,-2.000000000000000000e+00,-4.219970703125000000e-01,2.849121093750000000e-01,5.611572265625000000e-01,6.524658203125000000e-01
1.000000000000000000e+00,0.000000000000000000e+00,5.000000000000000000e+00,-6.000000000000000000e+00,-1.000000000000000000e+00,0.000000000000000000e+00,2.000000000000000000e+00,-1.000000000000000000e+00,-4.219970703125000000e-01,2.849121093750000000e-01,5.611572265625000000e-01,6.524658203125000000e-01
-2.000000000000000000e+00,-4.000000000000000000e+00,-3.500000000000000000e+01,-1.700000000000000000e+01,-3.000000000000000000e+00,-1.000000000000000000e+00,-4.000000000000000000e+00,-1.000000000000000000e+00,-4.219970703125000000e-01,2.849121093750000000e-01,5.611572265625000000e-01,6.524658203125000000e-01
-3.000000000000000000e+00,-3.000000000000000000e+00,-1.500000000000000000e+01,-7.000000000000000000e+00,-7.000000000000000000e+00,-6.000000000000000000e+00,-6.000000000000000000e+00,-2.000000000000000000e+00,-4.220581054687500000e-01,2.844238281250000000e-01,5.614013671875000000e-01,6.525268554687500000e-01
2.000000000000000000e+00,2.000000000000000000e+00,2.000000000000000000e+00,-3.000000000000000000e+00,1.000000000000000000e+00,-5.000000000000000000e+00,8.000000000000000000e+00,-1.000000000000000000e+00,-4.220581054687500000e-01,2.844238281250000000e-01,5.614013671875000000e-01,6.525268554687500000e-01
-6.000000000000000000e+00,-4.000000000000000000e+00,9.000000000000000000e+00,2.000000000000000000e+00,-4.000000000000000000e+00,-5.000000000000000000e+00,-5.200000000000000000e+01,-7.000000000000000000e+00,-4.220581054687500000e-01,2.844238281250000000e-01,5.614013671875000000e-01,6.525268554687500000e-01
-1.000000000000000000e+00,1.000000000000000000e+00,1.200000000000000000e+01,-1.000000000000000000e+00,-2.000000000000000000e+00,3.000000000000000000e+00,4.400000000000000000e+01,3.000000000000000000e+00,-4.220581054687500000e-01,2.844238281250000000e-01,5.614013671875000000e-01,6.525268554687500000e-01
-1.000000000000000000e+00,4.000000000000000000e+00,-1.000000000000000000e+00,1.700000000000000000e+01,3.000000000000000000e+00,-2.000000000000000000e+00,-8.000000000000000000e+00,-1.000000000000000000e+00,-4.220581054687500000e-01,2.840576171875000000e-01,5.614624023437500000e-01,6.525878906250000000e-01
0.000000000000000000e+00,-3.000000000000000000e+00,1.600000000000000000e+01,-1.300000000000000000e+01,-5.000000000000000000e+00,6.000000000000000000e+00,3.000000000000000000e+00,-1.000000000000000000e+00,-4.220581054687500000e-01,2.840576171875000000e-01,5.614624023437500000e-01,6.525878906250000000e-01
0.000000000000000000e+00,-2.000000000000000000e+00,-3.200000000000000000e+01,-1.000000000000000000e+00,5.000000000000000000e+00,-6.000000000000000000e+00,4.000000000000000000e+00,0.000000000000000000e+00,-4.220581054687500000e-01,2.840576171875000000e-01,5.614624023437500000e-01,6.525878906250000000e-01
-2.000000000000000000e+00,-1.000000000000000000e+00,-3.000000000000000000e+00,-1.200000000000000000e+01,-1.500000000000000000e+01,-1.000000000000000000e+01,-2.700000000000000000e+01,-5.000000000000000000e+00,-4.220581054687500000e-01,2.840576171875000000e-01,5.614624023437500000e-01,6.525878906250000000e-01
-1.000000000000000000e+00,-2.000000000000000000e+00,3.000000000000000000e+00,1.300000000000000000e+01,-4.000000000000000000e+00,1.000000000000000000e+00,1.000000000000000000e+00,-1.000000000000000000e+00,-4.223632812500000000e-01,2.838745117187500000e-01,5.612792968750000000e-01,6.525878906250000000e-01
-1.000000000000000000e+00,-2.000000000000000000e+00,0.000000000000000000e+00,3.000000000000000000e+00,1.100000000000000000e+01,-1.000000000000000000e+00,-6.000000000000000000e+00,0.000000000000000000e+00,-4.223632812500000000e-01,2.838745117187500000e-01,5.612792968750000000e-01,6.525878906250000000e-01
0.000000000000000000e+00,2.000000000000000000e+00,5.000000000000000000e+00,8.000000000000000000e+00,2.000000000000000000e+00,1.000000000000000000e+00,4.000000000000000000e+00,-2.000000000000000000e+00,-4.223632812500000000e-01,2.838745117187500000e-01,5.612792968750000000e-01,6.525878906250000000e-01
-2.000000000000000000e+00,-1.000000000000000000e+00,1.000000000000000000e+01,2.000000000000000000e+00,7.000000000000000000e+00,6.000000000000000000e+00,2.000000000000000000e+00,1.000000000000000000e+00,-4.223632812500000000e-01,2.838745117187500000e-01,5.612792968750000000e-01,6.525878906250000000e-01
-1.000000000000000000e+00,-2.000000000000000000e+00,-3.000000000000000000e+00,-1.900000000000000000e+01,-2.900000000000000000e+01,-8.000000000000000000e+00,3.000000000000000000e+00,-1.000000000000000000e+00,-4.223022460937500000e-01,2.840576171875000000e-01,5.609741210937500000e-01,6.528930664062500000e-01
0.000000000000000000e+00,3.000000000000000000e+00,-6.000000000000000000e+00,-4.000000000000000000e+00,1.900000000000000000e+01,4.000000000000000000e+00,-5.000000000000000000e+00,-1.000000000000000000e+00,-4.223022460937500000e-01,2.840576171875000000e-01,5.609741210937500000e-01,6.528930664062500000e-01
-1.000000000000000000e+00,0.000000000000000000e+00,8.000000000000000000e+00,1.900000000000000000e+01,-3.000000000000000000e+00,-1.000000000000000000e+00,8.000000000000000000e+00,1.000000000000000000e+00,-4.223022460937500000e-01,2.840576171875000000e-01,5.609741210937500000e-01,6.528930664062500000e-01
-1.000000000000000000e+00,1.000000000000000000e+00,1.000000000000000000e+00,-1.600000000000000000e+01,-8.000000000000000000e+00,-5.000000000000000000e+00,-2.000000000000000000e+00,-1.000000000000000000e+00,-4.223022460937500000e-01,2.840576171875000000e-01,5.609741210937500000e-01,6.528930664062500000e-01
-2.000000000000000000e+00,0.000000000000000000e+00,2.000000000000000000e+00,2.000000000000000000e+01,7.000000000000000000e+00,3.000000000000000000e+00,-1.000000000000000000e+00,-2.000000000000000000e+00,-4.221191406250000000e-01,2.843017578125000000e-01,5.607910156250000000e-01,6.530151367187500000e-01
-3.000000000000000000e+00,-5.000000000000000000e+00,-9.000000000000000000e+00,-9.000000000000000000e+00,-1.600000000000000000e+01,-6.000000000000000000e+00,-2.000000000000000000e+00,-2.000000000000000000e+00,-4.221191406250000000e-01,2.843017578125000000e-01,5.607910156250000000e-01,6.530151367187500000e-01
0.000000000000000000e+00,0.000000000000000000e+00,1.700000000000000000e+01,-2.300000000000000000e+01,3.000000000000000000e+00,-6.000000000000000000e+00,0.000000000000000000e+00,-1.000000000000000000e+00,-4.221191406250000000e-01,2.843017578125000000e-01,5.607910156250000000e-01,6.530151367187500000e-01
-1.000000000000000000e+00,4.000000000000000000e+00,9.000000000000000000e+00,1.500000000000000000e+01,1.000000000000000000e+00,5.000000000000000000e+00,-1.400000000000000000e+01,-2.000000000000000000e+00,-4.221191406250000000e-01,2.843017578125000000e-01,5.607910156250000000e-01,6.530151367187500000e-01
-3.000000000000000000e+00,-2.000000000000000000e+00,-2.000000000000000000e+00,4.000000000000000000e+00,6.000000000000000000e+00,4.000000000000000000e+00,2.000000000000000000e+00,-2.000000000000000000e+00,-4.224243164062500000e-01,2.841186523437500000e-01,5.608520507812500000e-01,6.528320312500000000e-01
-1.000000000000000000e+00,-1.000000000000000000e+00,-1.000000000000000000e+01,1.700000000000000000e+01,4.000000000000000000e+00,2.000000000000000000e+00,-1.800000000000000000e+01,0.000000000000000000e+00,-4.224243164062500000e-01,2.841186523437500000e-01,5.608520507812500000e-01,6.528320312500000000e-01
1.000000000000000000e+00,0.000000000000000000e+00,-1.000000000000000000e+01,-3.000000000000000000e+01,-8.000000000000000000e+00,-2.000000000000000000e+00,1.900000000000000000e+01,-1.000000000000000000e+00,-4.224243164062500000e-01,2.841186523437500000e-01,5.608520507812500000e-01,6.528320312500000000e-01
0.000000000000000000e+00,0.000000000000000000e+00,1.700000000000000000e+01,1.000000000000000000e+01,-9.000000000000000000e+00,-8.000000000000000000e+00,-1.400000000000000000e+01,-1.000000000000000000e+00,-4.224243164062500000e-01,2.841186523437500000e-01,5.608520507812500000e-01,6.528320312500000000e-01
1.000000000000000000e+00,0.000000000000000000e+00,5.000000000000000000e+00,-5.000000000000000000e+00,1.100000000000000000e+01,4.000000000000000000e+00,1.000000000000000000e+00,0.000000000000000000e+00,-4.229736328125000000e-01,2.838134765625000000e-01,5.610351562500000000e-01,6.524658203125000000e-01
-2.000000000000000000e+00,0.000000000000000000e+00,-7.000000000000000000e+00,5.000000000000000000e+00,0.000000000000000000e+00,4.000000000000000000e+00,2.000000000000000000e+00,1.000000000000000000e+00,-4.229736328125000000e-01,2.838134765625000000e-01,5.610351562500000000e-01,6.524658203125000000e-01
-1.000000000000000000e+00,1.000000000000000000e+00,1.100000000000000000e+01,1.200000000000000000e+01,2.000000000000000000e+00,-6.000000000000000000e+00,-1.200000000000000000e+01,-1.000000000000000000e+00,-4.229736328125000000e-01,2.838134765625000000e-01,5.610351562500000000e-01,6.524658203125000000e-01
1.000000000000000000e+00,-1.000000000000000000e+00,1.600000000000000000e+01,2.400000000000000000e+01,1.600000000000000000e+01,5.000000000000000000e+00,2.000000000000000000e+00,1.000000000000000000e+00,-4.229736328125000000e-01,2.838134765625000000e-01,5.610351562500000000e-01,6.524658203125000000e-01
-1.000000000000000000e+00,0.000000000000000000e+00,-1.800000000000000000e+01,-1.000000000000000000e+01,-1.100000000000000000e+01,-2.000000000000000000e+00,0.000000000000000000e+00,1.000000000000000000e+00,-4.231567382812500000e-01,2.838745117187500000e-01,5.611572265625000000e-01,6.522216796875000000e-01
-4.000000000000000000e+00,-7.000000000000000000e+00,-1.600000000000000000e+01,-4.100000000000000000e+01,2.000000000000000000e+00,-3.000000000000000000e+00,6.000000000000000000e+00,-2.000000000000000000e+00,-4.231567382812500000e-01,2.838745117187500000e-01,5.611572265625000000e-01,6.522216796875000000e-01
-2.000000000000000000e+00,-2.000000000000000000e+00,-5.000000000000000000e+00,-8.000000000000000000e+00,-5.000000000000000000e+00,1.000000000000000000e+00,1.000000000000000000e+00,-2.000000000000000000e+00,-4.231567382812500000e-01,2.838745117187500000e-01,5.611572265625000000e-01,6.522216796875000000e-01
1.000000000000000000e+00,2.000000000000000000e+00,2.300000000000000000e+01,0.000000000000000000e+00,-3.000000000000000000e+00,-1.000000000000000000e+00,4.000000000000000000e+00,0.000000000000000000e+00,-4.231567382812500000e-01,2.838745117187500000e-01,5.611572265625000000e-01,6.522216796875000000e-01
0.000000000000000000e+00,-6.000000000000000000e+00,-1.700000000000000000e+01,1.600000000000000000e+01,4.000000000000000000e+00,1.000000000000000000e+00,4.000000000000000000e+00,-1.000000000000000000e+00,-4.231567382812500000e-01,2.837524414062500000e-01,5.614013671875000000e-01,6.520996093750000000e-01
3.000000000000000000e+00,4.000000000000000000e+00,1.200000000000000000e+01,-1.700000000000000000e+01,-7.000000000000000000e+00,-1.400000000000000000e+01,-1.100000000000000000e+01,-1.000000000000000000e+00,-4.231567382812500000e-01,2.837524414062500000e-01,5.614013671875000000e-01,6.520996093750000000e-01
-9.000000000000000000e+00,-1.300000000000000000e+01,-5.700000000000000000e+01,2.000000000000000000e+00,-3.000000000000000000e+00,1.000000000000000000e+01,1.100000000000000000e+01,-2.000000000000000000e+00,-4.231567382812500000e-01,2.837524414062500000e-01,5.614013671875000000e-01,6.520996093750000000e-01
-3.000000000000000000e+00,-3.000000000000000000e+00,-9.000000000000000000e+00,-1.800000000000000000e+01,1.000000000000000000e+00,2.000000000000000000e+00,-5.000000000000000000e+00,1.000000000000000000e+00,-4.231567382812500000e-01,2.837524414062500000e-01,5.614013671875000000e-01,6.520996093750000000e-01
-3.000000000000000000e+00,-3.000000000000000000e+00,1.600000000000000000e+01,-1.200000000000000000e+01,0.000000000000000000e+00,-6.000000000000000000e+00,-1.200000000000000000e+01,-3.000000000000000000e+00,-4.229125976562500000e-01,2.837524414062500000e-01,5.617675781250000000e-01,6.519165039062500000e-01
3.000000000000000000e+00,5.000000000000000000e+00,0.000000000000000000e+00,5.000000000000000000e+00,-6.000000000000000000e+00,7.000000000000000000e+00,8.000000000000000000e+00,-1.000000000000000000e+00,-4.229125976562500000e-01,2.837524414062500000e-01,5.617675781250000000e-01,6.519165039062500000e-01
3.000000000000000000e+00,5.000000000000000000e+00,1.100000000000000000e+01,1.000000000000000000e+01,4.000000000000000000e+00,-9.000000000000000000e+00,-3.100000000000000000e+01,-3.000000000000000000e+00,-4.229125976562500000e-01,2.837524414062500000e-01,5.617675781250000000e-01,6.519165039062500000e-01
-2.000000000000000000e+00,-1.000000000000000000e+00,-1.000000000000000000e+00,7.000000000000000000e+00,-2.000000000000000000e+00,0.000000000000000000e+00,1.800000000000000000e+01,-3.000000000000000000e+00,-4.229125976562500000e-01,2.837524414062500000e-01,5.617675781250000000e-01,6.519165039062500000e-01
2.000000000000000000e+00,-3.000000000000000000e+00,-1.200000000000000000e+01,-8.000000000000000000e+00,1.000000000000000000e+00,4.000000000000000000e+00,1.400000000000000000e+01,3.000000000000000000e+00,-4.227905273437500000e-01,2.838134765625000000e-01,5.621948242187500000e-01,6.515502929687500000e-01
-2.000000000000000000e+00,-1.000000000000000000e+00,-3.000000000000000000e+00,1.100000000000000000e+01,8.000000000000000000e+00,-1.000000000000000000e+00,3.000000000000000000e+00,-1.000000000000000000e+00,-4.227905273437500000e-01,2.838134765625000000e-01,5.621948242187500000e-01,6.515502929687500000e-01
0.000000000000000000e+00,1.000000000000000000e+00,1.000000000000000000e+01,-1.100000000000000000e+01,-4.000000000000000000e+00,0.000000000000000000e+00,1.000000000000000000e+00,1.000000000000000000e+00,-4.227905273437500000e-01,2.838134765625000000e-01,5.621948242187500000e-01,6.515502929687500000e-01
-2.000000000000000000e+00,-3.000000000000000000e+00,-1.000000000000000000e+01,1.900000000000000000e+01,-2.000000000000000000e+00,-2.000000000000000000e+00,-1.000000000000000000e+01,-1.000000000000000000e+00,-4.227905273437500000e-01,2.838134765625000000e-01,5.621948242187500000e-01,6.515502929687500000e-01
1.000000000000000000e+00,1.000000000000000000e+00,7.000000000000000000e+00,-1.700000000000000000e+01,-5.000000000000000000e+00,-2.000000000000000000e+00,-6.000000000000000000e+00,-2.000000000000000000e+00,-4.226074218750000000e-01,2.840576171875000000e-01,5.625000000000000000e-01,6.513061523437500000e-01
-2.000000000000000000e+00,0.000000000000000000e+00,7.000000000000000000e+00,2.100000000000000000e+01,-1.100000000000000000e+01,-1.000000000000000000e+00,7.000000000000000000e+00,-1.000000000000000000e+00,-4.226074218750000000e-01,2.840576171875000000e-01,5.625000000000000000e-01,6.513061523437500000e-01
2.000000000000000000e+00,3.000000000000000000e+00,7.000000000000000000e+00,2.000000000000000000e+00,2.700000000000000000e+01,8.000000000000000000e+00,4.000000000000000000e+00,3.000000000000000000e+00,-4.226074218750000000e-01,2.840576171875000000e-01,5.625000000000000000e-01,6.513061523437500000e-01
-1.000000000000000000e+00,-4.000000000000000000e+00,-3.000000000000000000e+01,-1.800000000000000000e+01,-7.000000000000000000e+00,-3.000000000000000000e+00,-2.000000000000000000e+00,0.000000000000000000e+00,-4.226074218750000000e-01,2.840576171875000000e-01,5.625000000000000000e-01,6.513061523437500000e-01
-2.000000000000000000e+00,-3.000000000000000000e+00,-1.600000000000000000e+01,-3.000000000000000000e+00,-1.000000000000000000e+00,0.000000000000000000e+00,2.000000000000000000e+00,-2.000000000000000000e+00,-4.222412109375000000e-01,2.844238281250000000e-01,5.626831054687500000e-01,6.512451171875000000e-01
0.000000000000000000e+00,0.000000000000000000e+00,-1.000000000000000000e+00,1.500000000000000000e+01,-8.000000000000000000e+00,0.000000000000000000e+00,0.000000000000000000e+00,0.000000000000000000e+00,-4.222412109375000000e-01,2.844238281250000000e-01,5.626831054687500000e-01,6.512451171875000000e-01
-2.000000000000000000e+00,2.000000000000000000e+00,7.000000000000000000e+00,-1.900000000000000000e+01,-1.500000000000000000e+01,-6.000000000000000000e+00,-5.000000000000000000e+00,-4.000000000000000000e+00,-4.222412109375000000e-01,2.844238281250000000e-01,5.626831054687500000e-01,6.512451171875000000e-01
1.000000000000000000e+00,-3.000000000000000000e+00,1.500000000000000000e+01,3.000000000000000000e+01,6.000000000000000000e+00,-1.000000000000000000e+01,-4.000000000000000000e+00,0.000000000000000000e+00,-4.222412109375000000e-01,2.844238281250000000e-01,5.626831054687500000e-01,6.512451171875000000e-01
-1.000000000000000000e+00,-1.000000000000000000e+00,-1.000000000000000000e+00,-3.300000000000000000e+01,2.000000000000000000e+00,1.500000000000000000e+01,1.400000000000000000e+01,3.000000000000000000e+00,-4.220581054687500000e-01,2.841186523437500000e-01,5.629882812500000000e-01,6.512451171875000000e-01
-3.000000000000000000e+00,-5.000000000000000000e+00,3.000000000000000000e+00,3.000000000000000000e+00,-1.000000000000000000e+00,-2.000000000000000000e+00,-1.100000000000000000e+01,-4.000000000000000000e+00,-4.220581054687500000e-01,2.841186523437500000e-01,5.629882812500000000e-01,6.512451171875000000e-01
2.000000000000000000e+00,4.000000000000000000e+00,1.300000000000000000e+01,8.000000000000000000e+00,2.000000000000000000e+00,1.000000000000000000e+00,7.000000000000000000e+00,3.000000000000000000e+00,-4.220581054687500000e-01,2.841186523437500000e-01,5.629882812500000000e-01,6.512451171875000000e-01
-1.000000000000000000e+00,-5.000000000000000000e+00,-1.000000000000000000e+01,-1.000000000000000000e+00,1.000000000000000000e+00,5.000000000000000000e+00,2.000000000000000000e+01,0.000000000000000000e+00,-4.220581054687500000e-01,2.841186523437500000e-01,5.629882812500000000e-01,6.512451171875000000e-01
2.000000000000000000e+00,7.000000000000000000e+00,1.500000000000000000e+01,3.000000000000000000e+00,-4.000000000000000000e+00,-3.000000000000000000e+00,-8.000000000000000000e+00,-1.000000000000000000e+00,-4.218750000000000000e-01,2.839355468750000000e-01,5.631103515625000000e-01,6.513671875000000000e-01
-7.000000000000000000e+00,-1.200000000000000000e+01,-3.400000000000000000e+01,8.000000000000000000e+00,4.000000000000000000e+00,3.000000000000000000e+00,4.000000000000000000e+00,-1.000000000000000000e+00,-4.218750000000000000e-01,2.839355468750000000e-01,5.631103515625000000e-01,6.513671875000000000e-01
-2.000000000000000000e+00,-2.000000000000000000e+00,1.000000000000000000e+01,-2.300000000000000000e+01,-9.000000000000000000e+00,2.000000000000000000e+00,1.000000000000000000e+01,1.000000000000000000e+00,-4.218750000000000000e-01,2.839355468750000000e-01,5.631103515625000000e-01,6.513671875000000000e-01
-2.000000000000000000e+00,-2.000000000000000000e+00,-2.100000000000000000e+01,-1.800000000000000000e+01,-1.400000000000000000e+01,-8.000000000000000000e+00,-1.600000000000000000e+01,-3.000000000000000000e+00,-4.218750000000000000e-01,2.839355468750000000e-01,5.631103515625000000e-01,6.513671875000000000e-01
2.000000000000000000e+00,1.000000000000000000e+00,6.000000000000000000e+00,2.900000000000000000e+01,1.800000000000000000e+01,1.000000000000000000e+00,-6.000000000000000000e+00,1.000000000000000000e+00,-4.218750000000000000e-01,2.839355468750000000e-01,5.631103515625000000e-01,6.513671875000000000e-01
-3.000000000000000000e+00,2.000000000000000000e+00,1.200000000000000000e+01,1.600000000000000000e+01,1.000000000000000000e+00,-3.000000000000000000e+00,1.000000000000000000e+00,1.000000000000000000e+00,-4.218750000000000000e-01,2.839355468750000000e-01,5.631103515625000000e-01,6.513671875000000000e-01
-1.000000000000000000e+00,-2.000000000000000000e+00,-1.100000000000000000e+01,-2.600000000000000000e+01,6.000000000000000000e+00,2.000000000000000000e+00,-2.000000000000000000e+00,-1.000000000000000000e+00,-4.218750000000000000e-01,2.839355468750000000e-01,5.631103515625000000e-01,6.513671875000000000e-01
-1.000000000000000000e+00,4.000000000000000000e+00,-1.000000000000000000e+00,7.000000000000000000e+00,7.000000000000000000e+00,6.000000000000000000e+00,2.000000000000000000e+00,0.000000000000000000e+00,-4.218750000000000000e-01,2.839355468750000000e-01,5.631103515625000000e-01,6.513671875000000000e-01
-4.000000000000000000e+00,-6.000000000000000000e+00,-1.000000000000000000e+00,-1.100000000000000000e+01,-4.000000000000000000e+00,-7.000000000000000000e+00,-8.000000000000000000e+00,-3.000000000000000000e+00,-4.217529296875000000e-01,2.839965820312500000e-01,5.629882812500000000e-01,6.514892578125000000e-01
0.000000000000000000e+00,2.000000000000000000e+00,-3.000000000000000000e+00,1.000000000000000000e+01,-1.000000000000000000e+01,2.000000000000000000e+00,2.000000000000000000e+00,0.000000000000000000e+00,-4.217529296875000000e-01,2.839965820312500000e-01,5.629882812500000000e-01,6.514892578125000000e-01
-1.000000000000000000e+00,-2.000000000000000000e+00,2.000000000000000000e+00,-4.000000000000000000e+00,-1.000000000000000000e+01,-6.000000000000000000e+00,-5.000000000000000000e+00,0.000000000000000000e+00,-4.217529296875000000e-01,2.839965820312500000e-01,5.629882812500000000e-01,6.514892578125000000e-01
1.000000000000000000e+00,4.000000000000000000e+00,2.400000000000000000e+01,1.000000000000000000e+01,7.000000000000000000e+00,3.000000000000000000e+00,-3.000000000000000000e+00,-1.000000000000000000e+00,-4.217529296875000000e-01,2.839965820312500000e-01,5.629882812500000000e-01,6.514892578125000000e-01
-1.000000000000000000e+00,0.000000000000000000e+00,-3.000000000000000000e+00,-1.300000000000000000e+01,-8.000000000000000000e+00,-7.000000000000000000e+00,-9.000000000000000000e+00,-4.000000000000000000e+00,-4.217529296875000000e-01,2.839965820312500000e-01,5.629882812500000000e-01,6.514892578125000000e-01
1.000000000000000000e+00,0.000000000000000000e+00,-1.300000000000000000e+01,-1.300000000000000000e+01,0.000000000000000000e+00,5.000000000000000000e+00,7.000000000000000000e+00,-1.000000000000000000e+00,-4.217529296875000000e-01,2.839965820312500000e-01,5.629882812500000000e-01,6.514892578125000000e-01
-2.000000000000000000e+00,-4.000000000000000000e+00,4.000000000000000000e+00,1.900000000000000000e+01,-4.000000000000000000e+00,-3.000000000000000000e+00,-1.000000000000000000e+00,-3.000000000000000000e+00,-4.217529296875000000e-01,2.839965820312500000e-01,5.629882812500000000e-01,6.514892578125000000e-01
0.000000000000000000e+00,0.000000000000000000e+00,-8.000000000000000000e+00,-1.200000000000000000e+01,2.000000000000000000e+00,1.100000000000000000e+01,1.400000000000000000e+01,0.000000000000000000e+00,-4.217529296875000000e-01,2.839965820312500000e-01,5.629882812500000000e-01,6.514892578125000000e-01
-1.000000000000000000e+00,0.000000000000000000e+00,1.400000000000000000e+01,2.500000000000000000e+01,3.000000000000000000e+00,-4.000000000000000000e+00,-5.000000000000000000e+00,0.000000000000000000e+00,-4.218139648437500000e-01,2.838745117187500000e-01,5.631103515625000000e-01,6.513671875000000000e-01
-1.000000000000000000e+00,-2.000000000000000000e+00,-1.900000000000000000e+01,-2.500000000000000000e+01,-2.000000000000000000e+00,-6.000000000000000000e+00,-8.000000000000000000e+00,-1.000000000000000000e+00,-4.218139648437500000e-01,2.838745117187500000e-01,5.631103515625000000e-01,6.513671875000000000e-01
0.000000000000000000e+00,3.000000000000000000e+00,1.400000000000000000e+01,1.100000000000000000e+01,-1.000000000000000000e+00,3.000000000000000000e+00,7.000000000000000000e+00,2.000000000000000000e+00,-4.218139648437500000e-01,2.838745117187500000e-01,5.631103515625000000e-01,6.513671875000000000e-01
-1.000000000000000000e+00,-3.000000000000000000e+00,-2.000000000000000000e+01,-2.400000000000000000e+01,-1.400000000000000000e+01,-8.000000000000000000e+00,-4.000000000000000000e+00,-1.000000000000000000e+00,-4.218139648437500000e-01,2.838745117187500000e-01,5.631103515625000000e-01,6.513671875000000000e-01
