9.000000000000000000e+00,-4.000000000000000000e+00,-5.000000000000000000e+00,1.000000000000000000e+01,1.000000000000000000e+00,-2.000000000000000000e+00,-1.000000000000000000e+01,0.000000000000000000e+00,4.151611328125000000e-01,1.011352539062500000e-01,-8.995361328125000000e-01,-9.069824218750000000e-02
3.000000000000000000e+00,1.000000000000000000e+01,-1.300000000000000000e+01,-1.700000000000000000e+01,-6.000000000000000000e+00,2.000000000000000000e+00,3.000000000000000000e+00,-5.000000000000000000e+00,4.151611328125000000e-01,1.011352539062500000e-01,-8.995361328125000000e-01,-9.069824218750000000e-02
7.000000000000000000e+00,-6.000000000000000000e+00,5.600000000000000000e+01,3.900000000000000000e+01,5.000000000000000000e+00,4.000000000000000000e+00,-6.000000000000000000e+00,-5.000000000000000000e+00,4.151611328125000000e-01,1.011352539062500000e-01,-8.995361328125000000e-01,-9.069824218750000000e-02
-2.300000000000000000e+01,-1.300000000000000000e+01,-1.400000000000000000e+01,-3.100000000000000000e+01,-7.000000000000000000e+00,-6.000000000000000000e+00,-2.000000000000000000e+00,-5.000000000000000000e+00,4.151611328125000000e-01,1.011352539062500000e-01,-8.995361328125000000e-01,-9.069824218750000000e-02
-4.000000000000000000e+00,9.000000000000000000e+00,-1.400000000000000000e+01,4.000000000000000000e+00,-1.000000000000000000e+00,-3.000000000000000000e+00,0.000000000000000000e+00,3.000000000000000000e+00,4.151000976562500000e-01,1.009521484375000000e-01,-8.995971679687500000e-01,-9.094238281250000000e-02
1.800000000000000000e+01,-1.000000000000000000e+01,-1.100000000000000000e+01,-1.300000000000000000e+01,-4.000000000000000000e+00,-4.000000000000000000e+00,-4.000000000000000000e+00,-5.000000000000000000e+00,4.151000976562500000e-01,1.009521484375000000e-01,-8.995971679687500000e-01,-9.094238281250000000e-02
-2.000000000000000000e+00,0.000000000000000000e+00,2.400000000000000000e+01,5.000000000000000000e+00,-1.000000000000000000e+00,1.000000000000000000e+00,2.000000000000000000e+00,0.000000000000000000e+00,4.151000976562500000e-01,1.009521484375000000e-01,-8.995971679687500000e-01,-9.094238281250000000e-02
8.000000000000000000e+00,-1.000000000000000000e+00,-1.600000000000000000e+01,3.000000000000000000e+00,1.000000000000000000e+00,1.000000000000000000e+00,-1.000000000000000000e+00,0.000000000000000000e+00,4.151000976562500000e-01,1.009521484375000000e-01,-8.995971679687500000e-01,-9.094238281250000000e-02
-3.000000000000000000e+00,-1.200000000000000000e+01,5.000000000000000000e+00,4.000000000000000000e+00,1.000000000000000000e+00,-1.000000000000000000e+00,3.000000000000000000e+00,-3.000000000000000000e+00,4.152221679687500000e-01,1.008911132812500000e-01,-8.995361328125000000e-01,-9.112548828125000000e-02
-5.000000000000000000e+00,5.000000000000000000e+00,3.000000000000000000e+00,-1.000000000000000000e+00,-2.000000000000000000e+00,-1.000000000000000000e+00,0.000000000000000000e+00,0.000000000000000000e+00,4.152221679687500000e-01,1.008911132812500000e-01,-8.995361328125000000e-01,-9.112548828125000000e-02
-3.000000000000000000e+00,1.200000000000000000e+01,-1.900000000000000000e+01,-6.000000000000000000e+00,0.000000000000000000e+00,0.000000000000000000e+00,4.000000000000000000e+00,2.000000000000000000e+00,4.152221679687500000e-01,1.008911132812500000e-01,-8.995361328125000000e-01,-9.112548828125000000e-02
5.000000000000000000e+00,2.000000000000000000e+00,2.800000000000000000e+01,1.000000000000000000e+01,6.000000000000000000e+00,1.000000000000000000e+00,1.000000000000000000e+00,2.000000000000000000e+00,4.152221679687500000e-01,1.008911132812500000e-01,-8.995361328125000000e-01,-9.112548828125000000e-02
-7.000000000000000000e+00,-1.400000000000000000e+01,-2.000000000000000000e+00,-8.000000000000000000e+00,-1.000000000000000000e+01,-7.000000000000000000e+00,2.000000000000000000e+00,-8.000000000000000000e+00,4.152221679687500000e-01,1.008911132812500000e-01,-8.995361328125000000e-01,-9.112548828125000000e-02
-2.000000000000000000e+00,-1.000000000000000000e+00,-1.100000000000000000e+01,-3.000000000000000000e+00,-3.000000000000000000e+00,-3.000000000000000000e+00,-6.000000000000000000e+00,-3.000000000000000000e+00,4.152221679687500000e-01,1.008911132812500000e-01,-8.995361328125000000e-01,-9.112548828125000000e-02
-6.000000000000000000e+00,0.000000000000000000e+00,9.000000000000000000e+00,-6.000000000000000000e+00,-3.000000000000000000e+00,-3.000000000000000000e+00,-5.000000000000000000e+00,2.000000000000000000e+00,4.152221679687500000e-01,1.008911132812500000e-01,-8.995361328125000000e-01,-9.112548828125000000e-02
-1.100000000000000000e+01,2.000000000000000000e+00,-6.000000000000000000e+00,-5.000000000000000000e+00,0.000000000000000000e+00,-1.000000000000000000e+00,-3.000000000000000000e+00,-1.000000000000000000e+00,4.152221679687500000e-01,1.008911132812500000e-01,-8.995361328125000000e-01,-9.112548828125000000e-02
7.000000000000000000e+00,1.000000000000000000e+00,1.500000000000000000e+01,1.600000000000000000e+01,3.000000000000000000e+00,3.000000000000000000e+00,2.000000000000000000e+00,1.000000000000000000e+00,4.152221679687500000e-01,1.015014648437500000e-01,-8.994750976562500000e-01,-9.088134765625000000e-02
0.000000000000000000e+00,-1.000000000000000000e+00,-3.000000000000000000e+00,-3.000000000000000000e+00,-1.000000000000000000e+00,0.000000000000000000e+00,5.000000000000000000e+00,2.000000000000000000e+00,4.152221679687500000e-01,1.015014648437500000e-01,-8.994750976562500000e-01,-9.088134765625000000e-02
-3.000000000000000000e+00,-2.000000000000000000e+00,-2.900000000000000000e+01,-9.000000000000000000e+00,-3.000000000000000000e+00,-1.000000000000000000e+00,0.000000000000000000e+00,-2.000000000000000000e+00,4.152221679687500000e-01,1.015014648437500000e-01,-8.994750976562500000e-01,-9.088134765625000000e-02
9.000000000000000000e+00,1.200000000000000000e+01,1.500000000000000000e+01,-3.000000000000000000e+00,-2.000000000000000000e+00,4.000000000000000000e+00,1.200000000000000000e+01,-2.000000000000000000e+00,4.152221679687500000e-01,1.015014648437500000e-01,-8.994750976562500000e-01,-9.088134765625000000e-02
1.600000000000000000e+01,-8.000000000000000000e+00,5.500000000000000000e+01,3.300000000000000000e+01,-4.000000000000000000e+00,-9.000000000000000000e+00,-1.000000000000000000e+00,-5.000000000000000000e+00,4.151611328125000000e-01,1.015014648437500000e-01,-8.994750976562500000e-01,-9.088134765625000000e-02
-3.100000000000000000e+01,-9.000000000000000000e+00,-4.100000000000000000e+01,-3.000000000000000000e+01,-2.000000000000000000e+00,1.000000000000000000e+00,-3.000000000000000000e+00,-3.000000000000000000e+00,4.151611328125000000e-01,1.015014648437500000e-01,-8.994750976562500000e-01,-9.088134765625000000e-02
1.000000000000000000e+00,0.000000000000000000e+00,-1.500000000000000000e+01,-2.000000000000000000e+00,1.000000000000000000e+00,0.000000000000000000e+00,4.000000000000000000e+00,-1.000000000000000000e+00,4.151611328125000000e-01,1.015014648437500000e-01,-8.994750976562500000e-01,-9.088134765625000000e-02
2.000000000000000000e+00,2.000000000000000000e+00,-1.300000000000000000e+01,-8.000000000000000000e+00,-5.000000000000000000e+00,-4.000000000000000000e+00,-3.000000000000000000e+00,3.000000000000000000e+00,4.151611328125000000e-01,1.015014648437500000e-01,-8.994750976562500000e-01,-9.088134765625000000e-02
1.300000000000000000e+01,3.000000000000000000e+00,5.000000000000000000e+00,7.000000000000000000e+00,4.000000000000000000e+00,4.000000000000000000e+00,1.000000000000000000e+00,3.000000000000000000e+00,4.150390625000000000e-01,1.018676757812500000e-01,-8.994750976562500000e-01,-9.094238281250000000e-02
4.000000000000000000e+00,7.000000000000000000e+00,1.700000000000000000e+01,1.200000000000000000e+01,6.000000000000000000e+00,3.000000000000000000e+00,0.000000000000000000e+00,0.000000000000000000e+00,4.150390625000000000e-01,1.018676757812500000e-01,-8.994750976562500000e-01,-9.094238281250000000e-02
-2.300000000000000000e+01,-5.000000000000000000e+00,-8.000000000000000000e+00,-7.000000000000000000e+00,1.000000000000000000e+00,0.000000000000000000e+00,0.000000000000000000e+00,-4.000000000000000000e+00,4.150390625000000000e-01,1.018676757812500000e-01,-8.994750976562500000e-01,-9.094238281250000000e-02
2.600000000000000000e+01,-5.000000000000000000e+00,-1.200000000000000000e+01,-3.000000000000000000e+00,0.000000000000000000e+00,-2.000000000000000000e+00,-1.100000000000000000e+01,-3.000000000000000000e+00,4.150390625000000000e-01,1.018676757812500000e-01,-8.994750976562500000e-01,-9.094238281250000000e-02
-1.400000000000000000e+01,-3.000000000000000000e+00,1.300000000000000000e+01,7.000000000000000000e+00,-3.000000000000000000e+00,-3.000000000000000000e+00,1.200000000000000000e+01,0.000000000000000000e+00,4.149169921875000000e-01,1.018066406250000000e-01,-8.995361328125000000e-01,-9.130859375000000000e-02
7.000000000000000000e+00,-3.000000000000000000e+00,-2.600000000000000000e+01,-6.000000000000000000e+00,-5.000000000000000000e+00,-4.000000000000000000e+00,-9.000000000000000000e+00,-1.000000000000000000e+00,4.149169921875000000e-01,1.018066406250000000e-01,-8.995361328125000000e-01,-9.130859375000000000e-02
-7.000000000000000000e+00,-1.000000000000000000e+00,-1.900000000000000000e+01,-1.400000000000000000e+01,-5.000000000000000000e+00,-3.000000000000000000e+00,-7.000000000000000000e+00,-3.000000000000000000e+00,4.149169921875000000e-01,1.018066406250000000e-01,-8.995361328125000000e-01,-9.130859375000000000e-02
-7.000000000000000000e+00,-9.000000000000000000e+00,3.000000000000000000e+00,6.000000000000000000e+00,-1.000000000000000000e+00,-1.000000000000000000e+00,-2.000000000000000000e+00,-2.000000000000000000e+00,4.149169921875000000e-01,1.018066406250000000e-01,-8.995361328125000000e-01,-9.130859375000000000e-02
-8.000000000000000000e+00,5.000000000000000000e+00,-2.500000000000000000e+01,-1.600000000000000000e+01,0.000000000000000000e+00,5.000000000000000000e+00,1.000000000000000000e+00,0.000000000000000000e+00,4.150390625000000000e-01,1.019897460937500000e-01,-8.994140625000000000e-01,-9.155273437500000000e-02
-2.000000000000000000e+00,2.000000000000000000e+00,2.600000000000000000e+01,8.000000000000000000e+00,0.000000000000000000e+00,-2.000000000000000000e+00,-5.000000000000000000e+00,1.000000000000000000e+00,4.150390625000000000e-01,1.019897460937500000e-01,-8.994140625000000000e-01,-9.155273437500000000e-02
6.000000000000000000e+00,0.000000000000000000e+00,-8.000000000000000000e+00,-1.100000000000000000e+01,-2.000000000000000000e+00,-1.000000000000000000e+00,1.200000000000000000e+01,0.000000000000000000e+00,4.150390625000000000e-01,1.019897460937500000e-01,-8.994140625000000000e-01,-9.155273437500000000e-02
1.600000000000000000e+01,3.000000000000000000e+00,2.200000000000000000e+01,3.000000000000000000e+00,2.000000000000000000e+00,1.000000000000000000e+00,2.000000000000000000e+00,1.000000000000000000e+00,4.150390625000000000e-01,1.019897460937500000e-01,-8.994140625000000000e-01,-9.155273437500000000e-02
-1.400000000000000000e+01,-1.300000000000000000e+01,-2.700000000000000000e+01,-9.000000000000000000e+00,-3.000000000000000000e+00,-4.000000000000000000e+00,-9.000000000000000000e+00,-5.000000000000000000e+00,4.150390625000000000e-01,1.019897460937500000e-01,-8.994140625000000000e-01,-9.155273437500000000e-02
0.000000000000000000e+00,0.000000000000000000e+00,2.900000000000000000e+01,1.700000000000000000e+01,-1.000000000000000000e+00,-2.000000000000000000e+00,-5.000000000000000000e+00,0.000000000000000000e+00,4.150390625000000000e-01,1.019897460937500000e-01,-8.994140625000000000e-01,-9.155273437500000000e-02
1.300000000000000000e+01,-9.000000000000000000e+00,-1.300000000000000000e+01,-5.000000000000000000e+00,-2.000000000000000000e+00,-2.000000000000000000e+00,-7.000000000000000000e+00,-1.000000000000000000e+00,4.150390625000000000e-01,1.019897460937500000e-01,-8.994140625000000000e-01,-9.155273437500000000e-02
-3.800000000000000000e+01,8.000000000000000000e+00,-1.300000000000000000e+01,-3.000000000000000000e+00,-1.000000000000000000e+00,3.000000000000000000e+00,9.000000000000000000e+00,-1.000000000000000000e+00,4.150390625000000000e-01,1.019897460937500000e-01,-8.994140625000000000e-01,-9.155273437500000000e-02
-3.000000000000000000e+00,3.000000000000000000e+00,-1.400000000000000000e+01,3.000000000000000000e+00,3.000000000000000000e+00,0.000000000000000000e+00,2.000000000000000000e+00,2.000000000000000000e+00,4.150390625000000000e-01,1.026611328125000000e-01,-8.993530273437500000e-01,-9.130859375000000000e-02
5.000000000000000000e+00,0.000000000000000000e+00,2.500000000000000000e+01,9.000000000000000000e+00,0.000000000000000000e+00,-3.000000000000000000e+00,-1.000000000000000000e+00,-3.000000000000000000e+00,4.150390625000000000e-01,1.026611328125000000e-01,-8.993530273437500000e-01,-9.130859375000000000e-02
7.000000000000000000e+00,2.000000000000000000e+00,3.900000000000000000e+01,2.900000000000000000e+01,-2.000000000000000000e+00,-3.000000000000000000e+00,-4.000000000000000000e+00,2.000000000000000000e+00,4.150390625000000000e-01,1.026611328125000000e-01,-8.993530273437500000e-01,-9.130859375000000000e-02
2.000000000000000000e+00,-2.000000000000000000e+00,-1.700000000000000000e+01,-1.300000000000000000e+01,-5.000000000000000000e+00,-5.000000000000000000e+00,-7.000000000000000000e+00,-1.000000000000000000e+00,4.150390625000000000e-01,1.026611328125000000e-01,-8.993530273437500000e-01,-9.130859375000000000e-02
2.000000000000000000e+00,-2.000000000000000000e+00,4.000000000000000000e+00,-5.000000000000000000e+00,2.000000000000000000e+00,3.000000000000000000e+00,0.000000000000000000e+00,0.000000000000000000e+00,4.147949218750000000e-01,1.033935546875000000e-01,-8.994140625000000000e-01,-9.118652343750000000e-02
-7.000000000000000000e+00,3.000000000000000000e+00,7.000000000000000000e+00,-4.000000000000000000e+00,-3.000000000000000000e+00,-3.000000000000000000e+00,2.000000000000000000e+00,1.000000000000000000e+00,4.147949218750000000e-01,1.033935546875000000e-01,-8.994140625000000000e-01,-9.118652343750000000e-02
0.000000000000000000e+00,-8.000000000000000000e+00,2.200000000000000000e+01,1.100000000000000000e+01,1.000000000000000000e+00,-1.000000000000000000e+00,0.000000000000000000e+00,2.000000000000000000e+00,4.147949218750000000e-01,1.033935546875000000e-01,-8.994140625000000000e-01,-9.118652343750000000e-02
-5.000000000000000000e+00,-5.000000000000000000e+00,-1.400000000000000000e+01,-4.000000000000000000e+00,-5.000000000000000000e+00,-6.000000000000000000e+00,-8.000000000000000000e+00,-1.000000000000000000e+00,4.147949218750000000e-01,1.033935546875000000e-01,-8.994140625000000000e-01,-9.118652343750000000e-02
1.000000000000000000e+00,8.000000000000000000e+00,0.000000000000000000e+00,-4.000000000000000000e+00,3.000000000000000000e+00,3.000000000000000000e+00,-2.000000000000000000e+00,-1.000000000000000000e+00,4.144897460937500000e-01,1.037597656250000000e-01,-8.994750976562500000e-01,-9.149169921875000000e-02
8.000000000000000000e+00,-4.000000000000000000e+00,1.400000000000000000e+01,2.000000000000000000e+00,1.000000000000000000e+00,1.000000000000000000e+00,9.000000000000000000e+00,0.000000000000000000e+00,4.144897460937500000e-01,1.037597656250000000e-01,-8.994750976562500000e-01,-9.149169921875000000e-02
-4.000000000000000000e+00,-1.000000000000000000e+00,-2.700000000000000000e+01,-1.500000000000000000e+01,-4.000000000000000000e+00,0.000000000000000000e+00,6.000000000000000000e+00,-1.000000000000000000e+00,4.144897460937500000e-01,1.037597656250000000e-01,-8.994750976562500000e-01,-9.149169921875000000e-02
-1.700000000000000000e+01,-9.000000000000000000e+00,1.300000000000000000e+01,-5.000000000000000000e+00,-1.000000000000000000e+00,-1.000000000000000000e+00,-5.000000000000000000e+00,-1.000000000000000000e+00,4.144897460937500000e-01,1.037597656250000000e-01,-8.994750976562500000e-01,-9.149169921875000000e-02
1.200000000000000000e+01,-7.000000000000000000e+00,-8.000000000000000000e+00,-4.000000000000000000e+00,-1.000000000000000000e+00,-2.000000000000000000e+00,-1.000000000000000000e+00,-4.000000000000000000e+00,4.141845703125000000e-01,1.034545898437500000e-01,-8.996582031250000000e-01,-9.179687500000000000e-02
1.000000000000000000e+00,2.000000000000000000e+00,0.000000000000000000e+00,4.000000000000000000e+00,0.000000000000000000e+00,1.000000000000000000e+00,2.000000000000000000e+00,-1.000000000000000000e+00,4.141845703125000000e-01,1.034545898437500000e-01,-8.996582031250000000e-01,-9.179687500000000000e-02
3.000000000000000000e+00,6.000000000000000000e+00,-1.800000000000000000e+01,1.000000000000000000e+00,3.000000000000000000e+00,0.000000000000000000e+00,-2.000000000000000000e+00,4.000000000000000000e+00,4.141845703125000000e-01,1.034545898437500000e-01,-8.996582031250000000e-01,-9.179687500000000000e-02
-8.000000000000000000e+00,-4.000000000000000000e+00,-2.800000000000000000e+01,-2.300000000000000000e+01,-3.000000000000000000e+00,0.000000000000000000e+00,3.000000000000000000e+00,-2.000000000000000000e+00,4.141845703125000000e-01,1.034545898437500000e-01,-8.996582031250000000e-01,-9.179687500000000000e-02
-6.000000000000000000e+00,1.300000000000000000e+01,1.100000000000000000e+01,3.000000000000000000e+00,-6.000000000000000000e+00,-4.000000000000000000e+00,-1.200000000000000000e+01,0.000000000000000000e+00,4.140625000000000000e-01,1.032714843750000000e-01,-8.997192382812500000e-01,-9.167480468750000000e-02
1.100000000000000000e+01,-1.800000000000000000e+01,-1.000000000000000000e+01,2.000000000000000000e+00,1.000000000000000000e+00,4.000000000000000000e+00,1.100000000000000000e+01,0.000000000000000000e+00,4.140625000000000000e-01,1.032714843750000000e-01,-8.997192382812500000e-01,-9.167480468750000000e-02
-4.800000000000000000e+01,3.000000000000000000e+00,-8.000000000000000000e+00,-6.000000000000000000e+00,-3.000000000000000000e+00,-2.000000000000000000e+00,3.000000000000000000e+00,-8.000000000000000000e+00,4.140625000000000000e-01,1.032714843750000000e-01,-8.997192382812500000e-01,-9.167480468750000000e-02
1.500000000000000000e+01,7.000000000000000000e+00,2.900000000000000000e+01,2.600000000000000000e+01,6.000000000000000000e+00,2.000000000000000000e+00,-7.000000000000000000e+00,2.000000000000000000e+00,4.140625000000000000e-01,1.032714843750000000e-01,-8.997192382812500000e-01,-9.167480468750000000e-02
-5.000000000000000000e+00,-6.000000000000000000e+00,-1.000000000000000000e+01,-1.900000000000000000e+01,-3.000000000000000000e+00,-2.000000000000000000e+00,9.000000000000000000e+00,-4.000000000000000000e+00,4.140014648437500000e-01,1.033325195312500000e-01,-8.997802734375000000e-01,-9.124755859375000000e-02
0.000000000000000000e+00,1.000000000000000000e+00,-1.700000000000000000e+01,-1.700000000000000000e+01,-1.000000000000000000e+00,0.000000000000000000e+00,-2.000000000000000000e+00,-3.000000000000000000e+00,4.140014648437500000e-01,1.033325195312500000e-01,-8.997802734375000000e-01,-9.124755859375000000e-02
1.000000000000000000e+01,-3.000000000000000000e+00,2.900000000000000000e+01,1.000000000000000000e+01,-2.000000000000000000e+00,-4.000000000000000000e+00,-3.000000000000000000e+00,6.000000000000000000e+00,4.140014648437500000e-01,1.033325195312500000e-01,-8.997802734375000000e-01,-9.124755859375000000e-02
8.000000000000000000e+00,7.000000000000000000e+00,2.100000000000000000e+01,7.000000000000000000e+00,2.000000000000000000e+00,2.000000000000000000e+00,3.000000000000000000e+00,3.000000000000000000e+00,4.140014648437500000e-01,1.033325195312500000e-01,-8.997802734375000000e-01,-9.124755859375000000e-02
4.000000000000000000e+00,-1.000000000000000000e+00,1.700000000000000000e+01,9.000000000000000000e+00,-2.000000000000000000e+00,-2.000000000000000000e+00,-2.000000000000000000e+00,1.000000000000000000e+00,4.140625000000000000e-01,1.036987304687500000e-01,-8.997192382812500000e-01,-9.100341796875000000e-02
-9.000000000000000000e+00,-8.000000000000000000e+00,-4.400000000000000000e+01,-1.500000000000000000e+01,-4.000000000000000000e+00,-1.000000000000000000e+00,-4.000000000000000000e+00,-2.000000000000000000e+00,4.140625000000000000e-01,1.036987304687500000e-01,-8.997192382812500000e-01,-9.100341796875000000e-02
3.000000000000000000e+00,-4.000000000000000000e+00,3.000000000000000000e+00,-8.000000000000000000e+00,2.000000000000000000e+00,-2.000000000000000000e+00,-7.000000000000000000e+00,-5.000000000000000000e+00,4.140625000000000000e-01,1.036987304687500000e-01,-8.997192382812500000e-01,-9.100341796875000000e-02
-7.000000000000000000e+00,0.000000000000000000e+00,-6.000000000000000000e+00,1.000000000000000000e+00,-1.000000000000000000e+00,-1.000000000000000000e+00,-2.000000000000000000e+00,-2.000000000000000000e+00,4.140625000000000000e-01,1.036987304687500000e-01,-8.997192382812500000e-01,-9.100341796875000000e-02
4.000000000000000000e+00,-9.000000000000000000e+00,-1.500000000000000000e+01,-6.000000000000000000e+00,2.000000000000000000e+00,3.000000000000000000e+00,7.000000000000000000e+00,-1.000000000000000000e+00,4.141235351562500000e-01,1.035766601562500000e-01,-8.997192382812500000e-01,-9.124755859375000000e-02
-2.000000000000000000e+00,1.000000000000000000e+00,-1.400000000000000000e+01,-7.000000000000000000e+00,-3.000000000000000000e+00,0.000000000000000000e+00,1.000000000000000000e+00,-2.000000000000000000e+00,4.141235351562500000e-01,1.035766601562500000e-01,-8.997192382812500000e-01,-9.124755859375000000e-02
5.000000000000000000e+00,9.000000000000000000e+00,0.000000000000000000e+00,-3.000000000000000000e+00,-2.000000000000000000e+00,-1.000000000000000000e+00,-8.000000000000000000e+00,-4.000000000000000000e+00,4.141235351562500000e-01,1.035766601562500000e-01,-8.997192382812500000e-01,-9.124755859375000000e-02
3.000000000000000000e+00,1.000000000000000000e+00,-6.000000000000000000e+00,1.700000000000000000e+01,0.000000000000000000e+00,0.000000000000000000e+00,2.000000000000000000e+00,0.000000000000000000e+00,4.141235351562500000e-01,1.035766601562500000e-01,-8.997192382812500000e-01,-9.124755859375000000e-02
-2.000000000000000000e+00,-1.200000000000000000e+01,0.000000000000000000e+00,-3.000000000000000000e+01,-7.000000000000000000e+00,-3.000000000000000000e+00,-4.000000000000000000e+00,0.000000000000000000e+00,4.141845703125000000e-01,1.034545898437500000e-01,-8.996582031250000000e-01,-9.149169921875000000e-02
-4.000000000000000000e+00,0.000000000000000000e+00,-6.000000000000000000e+00,-2.000000000000000000e+00,-5.000000000000000000e+00,-6.000000000000000000e+00,-2.000000000000000000e+00,0.000000000000000000e+00,4.141845703125000000e-01,1.034545898437500000e-01,-8.996582031250000000e-01,-9.149169921875000000e-02
-1.000000000000000000e+00,-2.000000000000000000e+00,1.800000000000000000e+01,2.100000000000000000e+01,2.000000000000000000e+00,-4.000000000000000000e+00,-3.000000000000000000e+00,-2.000000000000000000e+00,4.141845703125000000e-01,1.034545898437500000e-01,-8.996582031250000000e-01,-9.149169921875000000e-02
1.100000000000000000e+01,-1.000000000000000000e+01,-3.000000000000000000e+00,-8.000000000000000000e+00,-2.000000000000000000e+00,-1.000000000000000000e+00,-5.000000000000000000e+00,-3.000000000000000000e+00,4.141845703125000000e-01,1.034545898437500000e-01,-8.996582031250000000e-01,-9.149169921875000000e-02
-4.000000000000000000e+00,-1.000000000000000000e+00,-3.200000000000000000e+01,-4.000000000000000000e+00,4.000000000000000000e+00,1.000000000000000000e+00,-3.000000000000000000e+00,-1.000000000000000000e+00,4.144287109375000000e-01,1.037597656250000000e-01,-8.995361328125000000e-01,-9.149169921875000000e-02
-5.000000000000000000e+00,8.000000000000000000e+00,1.300000000000000000e+01,6.000000000000000000e+00,-1.000000000000000000e+00,-1.000000000000000000e+00,2.000000000000000000e+00,3.000000000000000000e+00,4.144287109375000000e-01,1.037597656250000000e-01,-8.995361328125000000e-01,-9.149169921875000000e-02
5.000000000000000000e+00,1.000000000000000000e+00,1.000000000000000000e+00,-5.000000000000000000e+00,0.000000000000000000e+00,3.000000000000000000e+00,1.300000000000000000e+01,1.000000000000000000e+00,4.144287109375000000e-01,1.037597656250000000e-01,-8.995361328125000000e-01,-9.149169921875000000e-02
7.000000000000000000e+00,9.000000000000000000e+00,-2.500000000000000000e+01,-4.000000000000000000e+00,-2.000000000000000000e+00,-1.000000000000000000e+00,3.000000000000000000e+00,-2.000000000000000000e+00,4.144287109375000000e-01,1.037597656250000000e-01,-8.995361328125000000e-01,-9.149169921875000000e-02
-8.000000000000000000e+00,-2.000000000000000000e+00,1.200000000000000000e+01,5.000000000000000000e+00,-1.000000000000000000e+00,-1.000000000000000000e+00,-9.000000000000000000e+00,-2.000000000000000000e+00,4.146728515625000000e-01,1.040649414062500000e-01,-8.993530273437500000e-01,-9.167480468750000000e-02
2.000000000000000000e+00,-4.000000000000000000e+00,2.000000000000000000e+00,4.000000000000000000e+00,1.000000000000000000e+00,2.000000000000000000e+00,2.000000000000000000e+00,-4.000000000000000000e+00,4.146728515625000000e-01,1.040649414062500000e-01,-8.993530273437500000e-01,-9.167480468750000000e-02
1.000000000000000000e+01,-1.000000000000000000e+00,-5.800000000000000000e+01,-3.000000000000000000e+01,-3.000000000000000000e+00,-3.000000000000000000e+00,-4.000000000000000000e+00,-1.000000000000000000e+00,4.146728515625000000e-01,1.040649414062500000e-01,-8.993530273437500000e-01,-9.167480468750000000e-02
0.000000000000000000e+00,-3.000000000000000000e+00,7.000000000000000000e+01,1.500000000000000000e+01,2.000000000000000000e+00,-2.000000000000000000e+00,-1.000000000000000000e+00,0.000000000000000000e+00,4.146728515625000000e-01,1.040649414062500000e-01,-8.993530273437500000e-01,-9.167480468750000000e-02
-2.000000000000000000e+00,-9.000000000000000000e+00,-2.100000000000000000e+01,-1.000000000000000000e+01,-2.000000000000000000e+00,-3.000000000000000000e+00,-1.000000000000000000e+00,0.000000000000000000e+00,4.149169921875000000e-01,1.041259765625000000e-01,-8.992309570312500000e-01,-9.210205078125000000e-02
-4.000000000000000000e+00,4.000000000000000000e+00,-1.000000000000000000e+00,5.000000000000000000e+00,1.000000000000000000e+00,-1.000000000000000000e+00,-4.000000000000000000e+00,-3.000000000000000000e+00,4.149169921875000000e-01,1.041259765625000000e-01,-8.992309570312500000e-01,-9.210205078125000000e-02
6.000000000000000000e+00,3.000000000000000000e+00,1.000000000000000000e+00,1.000000000000000000e+01,2.000000000000000000e+00,3.000000000000000000e+00,0.000000000000000000e+00,2.000000000000000000e+00,4.149169921875000000e-01,1.041259765625000000e-01,-8.992309570312500000e-01,-9.210205078125000000e-02
-2.100000000000000000e+01,-5.000000000000000000e+00,4.200000000000000000e+01,-2.000000000000000000e+00,-6.000000000000000000e+00,-3.000000000000000000e+00,-1.000000000000000000e+00,-4.000000000000000000e+00,4.149169921875000000e-01,1.041259765625000000e-01,-8.992309570312500000e-01,-9.210205078125000000e-02
-3.000000000000000000e+00,-5.000000000000000000e+00,-1.400000000000000000e+01,0.000000000000000000e+00,-3.000000000000000000e+00,-3.000000000000000000e+00,1.000000000000000000e+00,-1.000000000000000000e+00,4.154052734375000000e-01,1.043701171875000000e-01,-8.988647460937500000e-01,-9.283447265625000000e-02
1.000000000000000000e+00,0.000000000000000000e+00,3.100000000000000000e+01,1.700000000000000000e+01,-3.000000000000000000e+00,-2.000000000000000000e+00,-1.000000000000000000e+00,-2.000000000000000000e+00,4.154052734375000000e-01,1.043701171875000000e-01,-8.988647460937500000e-01,-9.283447265625000000e-02
-1.000000000000000000e+00,7.000000000000000000e+00,7.000000000000000000e+00,-2.200000000000000000e+01,-4.000000000000000000e+00,-5.000000000000000000e+00,-8.000000000000000000e+00,0.000000000000000000e+00,4.154052734375000000e-01,1.043701171875000000e-01,-8.988647460937500000e-01,-9.283447265625000000e-02
2.000000000000000000e+00,-5.000000000000000000e+00,-2.000000000000000000e+00,4.000000000000000000e+00,1.000000000000000000e+00,2.000000000000000000e+00,6.000000000000000000e+00,0.000000000000000000e+00,4.154052734375000000e-01,1.043701171875000000e-01,-8.988647460937500000e-01,-9.283447265625000000e-02
7.000000000000000000e+00,6.000000000000000000e+00,4.800000000000000000e+01,3.400000000000000000e+01,7.000000000000000000e+00,5.000000000000000000e+00,4.000000000000000000e+00,-1.000000000000000000e+00,4.158935546875000000e-01,1.046142578125000000e-01,-8.984985351562500000e-01,-9.393310546875000000e-02
0.000000000000000000e+00,-3.000000000000000000e+00,-7.300000000000000000e+01,-3.100000000000000000e+01,-4.000000000000000000e+00,-5.000000000000000000e+00,-6.000000000000000000e+00,2.000000000000000000e+00,4.158935546875000000e-01,1.046142578125000000e-01,-8.984985351562500000e-01,-9.393310546875000000e-02
-8.000000000000000000e+00,-5.000000000000000000e+00,2.700000000000000000e+01,1.100000000000000000e+01,3.000000000000000000e+00,3.000000000000000000e+00,-1.000000000000000000e+01,-3.000000000000000000e+00,4.158935546875000000e-01,1.046142578125000000e-01,-8.984985351562500000e-01,-9.393310546875000000e-02
7.000000000000000000e+00,-2.000000000000000000e+00,-9.000000000000000000e+00,-6.000000000000000000e+00,-6.000000000000000000e+00,-4.000000000000000000e+00,2.000000000000000000e+00,-2.000000000000000000e+00,4.158935546875000000e-01,1.046142578125000000e-01,-8.984985351562500000e-01,-9.393310546875000000e-02
-3.800000000000000000e+01,2.000000000000000000e+00,-1.100000000000000000e+01,-4.000000000000000000e+00,-2.000000000000000000e+00,0.000000000000000000e+00,9.000000000000000000e+00,-3.000000000000000000e+00,4.164428710937500000e-01,1.046752929687500000e-01,-8.981323242187500000e-01,-9.472656250000000000e-02
0.000000000000000000e+00,-1.000000000000000000e+00,2.400000000000000000e+01,3.000000000000000000e+00,4.000000000000000000e+00,-1.000000000000000000e+00,-5.000000000000000000e+00,-1.000000000000000000e+00,4.164428710937500000e-01,1.046752929687500000e-01,-8.981323242187500000e-01,-9.472656250000000000e-02
-9.000000000000000000e+00,-1.000000000000000000e+00,-1.700000000000000000e+01,0.000000000000000000e+00,-2.000000000000000000e+00,-3.000000000000000000e+00,-1.000000000000000000e+00,-5.000000000000000000e+00,4.164428710937500000e-01,1.046752929687500000e-01,-8.981323242187500000e-01,-9.472656250000000000e-02
1.700000000000000000e+01,-1.000000000000000000e+00,7.000000000000000000e+00,1.000000000000000000e+00,-2.000000000000000000e+00,-1.000000000000000000e+00,0.000000000000000000e+00,3.000000000000000000e+00,4.164428710937500000e-01,1.046752929687500000e-01,-8.981323242187500000e-01,-9.472656250000000000e-02
4.000000000000000000e+00,-2.000000000000000000e+00,-3.900000000000000000e+01,-6.000000000000000000e+00,-1.000000000000000000e+00,-1.000000000000000000e+00,-2.000000000000000000e+00,1.000000000000000000e+00,4.171752929687500000e-01,1.049804687500000000e-01,-8.977050781250000000e-01,-9.533691406250000000e-02
-3.000000000000000000e+00,-5.000000000000000000e+00,1.300000000000000000e+01,-2.000000000000000000e+00,-4.000000000000000000e+00,1.000000000000000000e+00,0.000000000000000000e+00,-3.000000000000000000e+00,4.171752929687500000e-01,1.049804687500000000e-01,-8.977050781250000000e-01,-9.533691406250000000e-02
-5.000000000000000000e+00,-2.000000000000000000e+00,-8.000000000000000000e+00,3.000000000000000000e+00,4.000000000000000000e+00,1.000000000000000000e+00,1.000000000000000000e+00,0.000000000000000000e+00,4.171752929687500000e-01,1.049804687500000000e-01,-8.977050781250000000e-01,-9.533691406250000000e-02
-1.000000000000000000e+00,-4.000000000000000000e+00,-1.200000000000000000e+01,-2.000000000000000000e+00,-2.000000000000000000e+00,-1.000000000000000000e+00,-1.000000000000000000e+00,-2.000000000000000000e+00,4.171752929687500000e-01,1.049804687500000000e-01,-8.977050781250000000e-01,-9.533691406250000000e-02
1.200000000000000000e+01,1.600000000000000000e+01,5.900000000000000000e+01,2.200000000000000000e+01,3.000000000000000000e+00,-1.000000000000000000e+00,-2.000000000000000000e+00,1.000000000000000000e+00,4.178466796875000000e-01,1.049194335937500000e-01,-8.973388671875000000e-01,-9.606933593750000000e-02
-7.000000000000000000e+00,-1.600000000000000000e+01,-4.800000000000000000e+01,-3.700000000000000000e+01,-7.000000000000000000e+00,-3.000000000000000000e+00,-5.000000000000000000e+00,-2.000000000000000000e+00,4.178466796875000000e-01,1.049194335937500000e-01,-8.973388671875000000e-01,-9.606933593750000000e-02
4.000000000000000000e+00,-8.000000000000000000e+00,-4.000000000000000000e+00,-3.000000000000000000e+00,-6.000000000000000000e+00,1.000000000000000000e+00,4.000000000000000000e+00,1.000000000000000000e+00,4.178466796875000000e-01,1.049194335937500000e-01,-8.973388671875000000e-01,-9.606933593750000000e-02
-8.000000000000000000e+00,5.000000000000000000e+00,-5.000000000000000000e+00,8.000000000000000000e+00,3.000000000000000000e+00,1.000000000000000000e+00,1.000000000000000000e+00,2.000000000000000000e+00,4.178466796875000000e-01,1.049194335937500000e-01,-8.973388671875000000e-01,-9.606933593750000000e-02
3.000000000000000000e+00,-4.000000000000000000e+00,1.700000000000000000e+01,0.000000000000000000e+00,-2.000000000000000000e+00,-1.000000000000000000e+00,0.000000000000000000e+00,1.000000000000000000e+00,4.185791015625000000e-01,1.043701171875000000e-01,-8.969726562500000000e-01,-9.667968750000000000e-02
-3.000000000000000000e+00,-2.000000000000000000e+00,1.500000000000000000e+01,2.000000000000000000e+01,-2.000000000000000000e+00,-4.000000000000000000e+00,-3.000000000000000000e+00,-1.000000000000000000e+00,4.185791015625000000e-01,1.043701171875000000e-01,-8.969726562500000000e-01,-9.667968750000000000e-02
9.000000000000000000e+00,1.000000000000000000e+00,-1.200000000000000000e+01,-2.000000000000000000e+01,-2.000000000000000000e+00,0.000000000000000000e+00,-1.000000000000000000e+00,1.000000000000000000e+00,4.185791015625000000e-01,1.043701171875000000e-01,-8.969726562500000000e-01,-9.667968750000000000e-02
-4.000000000000000000e+00,-1.000000000000000000e+00,-2.600000000000000000e+01,-1.100000000000000000e+01,-1.000000000000000000e+00,0.000000000000000000e+00,-5.000000000000000000e+00,-5.000000000000000000e+00,4.185791015625000000e-01,1.043701171875000000e-01,-8.969726562500000000e-01,-9.667968750000000000e-02
1.600000000000000000e+01,-1.000000000000000000e+00,-1.500000000000000000e+01,-8.000000000000000000e+00,0.000000000000000000e+00,0.000000000000000000e+00,3.000000000000000000e+00,5.000000000000000000e+00,4.193115234375000000e-01,1.038818359375000000e-01,-8.966674804687500000e-01,-9.698486328125000000e-02
-5.500000000000000000e+01,-4.000000000000000000e+00,4.000000000000000000e+01,2.700000000000000000e+01,8.000000000000000000e+00,7.000000000000000000e+00,1.400000000000000000e+01,-1.000000000000000000e+01,4.193115234375000000e-01,1.038818359375000000e-01,-8.966674804687500000e-01,-9.698486328125000000e-02
0.000000000000000000e+00,6.000000000000000000e+00,-8.000000000000000000e+00,-4.000000000000000000e+00,-6.000000000000000000e+00,-7.000000000000000000e+00,8.000000000000000000e+00,-2.000000000000000000e+00,4.193115234375000000e-01,1.038818359375000000e-01,-8.966674804687500000e-01,-9.698486328125000000e-02
0.000000000000000000e+00,-3.000000000000000000e+00,5.000000000000000000e+00,-6.000000000000000000e+00,-1.000000000000000000e+00,-1.000000000000000000e+00,-5.000000000000000000e+00,-2.000000000000000000e+00,4.193115234375000000e-01,1.038818359375000000e-01,-8.966674804687500000e-01,-9.698486328125000000e-02
0.000000000000000000e+00,-4.000000000000000000e+00,0.000000000000000000e+00,2.000000000000000000e+00,0.000000000000000000e+00,-2.000000000000000000e+00,-9.000000000000000000e+00,-2.000000000000000000e+00,4.198608398437500000e-01,1.036376953125000000e-01,-8.963623046875000000e-01,-9.741210937500000000e-02
1.800000000000000000e+01,1.000000000000000000e+00,-8.000000000000000000e+00,-1.000000000000000000e+00,0.000000000000000000e+00,0.000000000000000000e+00,-1.100000000000000000e+01,1.000000000000000000e+00,4.198608398437500000e-01,1.036376953125000000e-01,-8.963623046875000000e-01,-9.741210937500000000e-02
-7.000000000000000000e+00,2.000000000000000000e+00,3.200000000000000000e+01,5.000000000000000000e+00,-1.000000000000000000e+00,0.000000000000000000e+00,5.000000000000000000e+00,-1.000000000000000000e+00,4.198608398437500000e-01,1.036376953125000000e-01,-8.963623046875000000e-01,-9.741210937500000000e-02
-6.000000000000000000e+00,0.000000000000000000e+00,-2.300000000000000000e+01,0.000000000000000000e+00,-1.000000000000000000e+00,-3.000000000000000000e+00,-2.000000000000000000e+00,-2.000000000000000000e+00,4.198608398437500000e-01,1.036376953125000000e-01,-8.963623046875000000e-01,-9.741210937500000000e-02
3.000000000000000000e+00,-1.000000000000000000e+00,-9.000000000000000000e+00,-6.000000000000000000e+00,-3.000000000000000000e+00,-4.000000000000000000e+00,-3.000000000000000000e+00,-2.000000000000000000e+00,4.201660156250000000e-01,1.027221679687500000e-01,-8.963012695312500000e-01,-9.783935546875000000e-02
6.000000000000000000e+00,-2.000000000000000000e+00,3.000000000000000000e+01,9.000000000000000000e+00,1.000000000000000000e+00,-3.000000000000000000e+00,-2.000000000000000000e+00,2.000000000000000000e+00,4.201660156250000000e-01,1.027221679687500000e-01,-8.963012695312500000e-01,-9.783935546875000000e-02
-4.000000000000000000e+00,-8.000000000000000000e+00,-8.000000000000000000e+00,-1.000000000000000000e+01,-4.000000000000000000e+00,-3.000000000000000000e+00,-7.000000000000000000e+00,-3.000000000000000000e+00,4.201660156250000000e-01,1.027221679687500000e-01,-8.963012695312500000e-01,-9.783935546875000000e-02
3.000000000000000000e+00,2.000000000000000000e+00,-6.000000000000000000e+00,0.000000000000000000e+00,-1.000000000000000000e+00,-2.000000000000000000e+00,-3.000000000000000000e+00,0.000000000000000000e+00,4.201660156250000000e-01,1.027221679687500000e-01,-8.963012695312500000e-01,-9.783935546875000000e-02
5.000000000000000000e+00,-1.000000000000000000e+00,9.000000000000000000e+00,2.000000000000000000e+00,-1.000000000000000000e+00,-1.000000000000000000e+00,-2.000000000000000000e+00,0.000000000000000000e+00,4.204101562500000000e-01,1.019287109375000000e-01,-8.962402343750000000e-01,-9.796142578125000000e-02
-6.000000000000000000e+00,8.000000000000000000e+00,-3.000000000000000000e+01,0.000000000000000000e+00,-1.000000000000000000e+00,-3.000000000000000000e+00,-8.000000000000000000e+00,1.000000000000000000e+00,4.204101562500000000e-01,1.019287109375000000e-01,-8.962402343750000000e-01,-9.796142578125000000e-02
-1.000000000000000000e+00,-6.000000000000000000e+00,1.300000000000000000e+01,-6.000000000000000000e+00,-3.000000000000000000e+00,0.000000000000000000e+00,8.000000000000000000e+00,-5.000000000000000000e+00,4.204101562500000000e-01,1.019287109375000000e-01,-8.962402343750000000e-01,-9.796142578125000000e-02
1.000000000000000000e+00,1.000000000000000000e+00,2.500000000000000000e+01,3.200000000000000000e+01,5.000000000000000000e+00,-2.000000000000000000e+00,-1.000000000000000000e+00,6.000000000000000000e+00,4.204101562500000000e-01,1.019287109375000000e-01,-8.962402343750000000e-01,-9.796142578125000000e-02
-1.000000000000000000e+00,-2.000000000000000000e+00,2.200000000000000000e+01,0.000000000000000000e+00,-2.000000000000000000e+00,1.000000000000000000e+00,-1.000000000000000000e+00,0.000000000000000000e+00,4.205322265625000000e-01,1.013793945312500000e-01,-8.962402343750000000e-01,-9.808349609375000000e-02
1.000000000000000000e+01,3.000000000000000000e+00,-8.000000000000000000e+00,-1.700000000000000000e+01,-4.000000000000000000e+00,1.000000000000000000e+00,-1.000000000000000000e+00,1.000000000000000000e+00,4.205322265625000000e-01,1.013793945312500000e-01,-8.962402343750000000e-01,-9.808349609375000000e-02
-1.000000000000000000e+00,1.000000000000000000e+00,2.500000000000000000e+01,1.800000000000000000e+01,0.000000000000000000e+00,-2.000000000000000000e+00,-1.000000000000000000e+01,-2.000000000000000000e+00,4.205322265625000000e-01,1.013793945312500000e-01,-8.962402343750000000e-01,-9.808349609375000000e-02
-8.000000000000000000e+00,-2.000000000000000000e+00,-2.800000000000000000e+01,7.000000000000000000e+00,2.000000000000000000e+00,0.000000000000000000e+00,-1.000000000000000000e+00,-2.000000000000000000e+00,4.205322265625000000e-01,1.013793945312500000e-01,-8.962402343750000000e-01,-9.808349609375000000e-02
-1.000000000000000000e+00,9.000000000000000000e+00,6.400000000000000000e+01,1.100000000000000000e+01,2.000000000000000000e+00,2.000000000000000000e+00,1.000000000000000000e+01,-3.000000000000000000e+00,4.205932617187500000e-01,1.006469726562500000e-01,-8.963012695312500000e-01,-9.844970703125000000e-02
0.000000000000000000e+00,-3.000000000000000000e+00,1.300000000000000000e+01,4.000000000000000000e+00,-1.100000000000000000e+01,-7.000000000000000000e+00,-1.000000000000000000e+01,-4.000000000000000000e+00,4.205932617187500000e-01,1.006469726562500000e-01,-8.963012695312500000e-01,-9.844970703125000000e-02
-7.000000000000000000e+00,-2.300000000000000000e+01,-1.800000000000000000e+01,5.000000000000000000e+00,2.000000000000000000e+00,1.000000000000000000e+00,-3.000000000000000000e+00,0.000000000000000000e+00,4.205932617187500000e-01,1.006469726562500000e-01,-8.963012695312500000e-01,-9.844970703125000000e-02
2.100000000000000000e+01,6.000000000000000000e+00,1.100000000000000000e+01,-9.000000000000000000e+00,-5.000000000000000000e+00,-2.000000000000000000e+00,1.000000000000000000e+00,-1.000000000000000000e+00,4.205932617187500000e-01,1.006469726562500000e-01,-8.963012695312500000e-01,-9.844970703125000000e-02
-1.700000000000000000e+01,1.000000000000000000e+00,-1.000000000000000000e+01,8.000000000000000000e+00,2.000000000000000000e+00,-6.000000000000000000e+00,-1.100000000000000000e+01,1.000000000000000000e+00,4.206542968750000000e-01,1.002197265625000000e-01,-8.963012695312500000e-01,-9.875488281250000000e-02
6.000000000000000000e+00,3.000000000000000000e+00,2.300000000000000000e+01,3.000000000000000000e+00,3.000000000000000000e+00,4.000000000000000000e+00,1.900000000000000000e+01,-1.000000000000000000e+00,4.206542968750000000e-01,1.002197265625000000e-01,-8.963012695312500000e-01,-9.875488281250000000e-02
-9.000000000000000000e+00,1.000000000000000000e+00,2.100000000000000000e+01,5.000000000000000000e+00,0.000000000000000000e+00,-6.000000000000000000e+00,-1.400000000000000000e+01,-1.000000000000000000e+00,4.206542968750000000e-01,1.002197265625000000e-01,-8.963012695312500000e-01,-9.875488281250000000e-02
9.000000000000000000e+00,-3.000000000000000000e+00,-5.000000000000000000e+00,-6.000000000000000000e+00,-4.000000000000000000e+00,-1.000000000000000000e+00,1.300000000000000000e+01,-1.000000000000000000e+00,4.206542968750000000e-01,1.002197265625000000e-01,-8.963012695312500000e-01,-9.875488281250000000e-02
5.000000000000000000e+00,3.000000000000000000e+00,-2.800000000000000000e+01,-1.200000000000000000e+01,-1.000000000000000000e+00,1.000000000000000000e+00,1.000000000000000000e+00,1.000000000000000000e+00,4.205932617187500000e-01,9.973144531250000000e-02,-8.963012695312500000e-01,-9.924316406250000000e-02
0.000000000000000000e+00,2.000000000000000000e+00,1.100000000000000000e+01,-2.000000000000000000e+00,-1.000000000000000000e+00,-4.000000000000000000e+00,-5.000000000000000000e+00,1.000000000000000000e+00,4.205932617187500000e-01,9.973144531250000000e-02,-8.963012695312500000e-01,-9.924316406250000000e-02
2.400000000000000000e+01,0.000000000000000000e+00,-1.700000000000000000e+01,-2.000000000000000000e+00,3.000000000000000000e+00,0.000000000000000000e+00,-2.000000000000000000e+00,2.000000000000000000e+00,4.205932617187500000e-01,9.973144531250000000e-02,-8.963012695312500000e-01,-9.924316406250000000e-02
-2.400000000000000000e+01,-5.000000000000000000e+00,2.200000000000000000e+01,5.000000000000000000e+00,-2.000000000000000000e+00,-3.000000000000000000e+00,-4.000000000000000000e+00,-5.000000000000000000e+00,4.205932617187500000e-01,9.973144531250000000e-02,-8.963012695312500000e-01,-9.924316406250000000e-02
-3.000000000000000000e+00,-3.000000000000000000e+00,-1.700000000000000000e+01,-1.800000000000000000e+01,-4.000000000000000000e+00,-1.000000000000000000e+00,-1.300000000000000000e+01,-6.000000000000000000e+00,4.209594726562500000e-01,9.954833984375000000e-02,-8.961181640625000000e-01,-9.954833984375000000e-02
0.000000000000000000e+00,-4.000000000000000000e+00,-8.000000000000000000e+00,5.000000000000000000e+00,5.000000000000000000e+00,3.000000000000000000e+00,6.000000000000000000e+00,2.000000000000000000e+00,4.209594726562500000e-01,9.954833984375000000e-02,-8.961181640625000000e-01,-9.954833984375000000e-02
1.000000000000000000e+01,7.000000000000000000e+00,-1.100000000000000000e+01,-1.000000000000000000e+01,-3.000000000000000000e+00,-1.000000000000000000e+00,7.000000000000000000e+00,-2.000000000000000000e+00,4.209594726562500000e-01,9.954833984375000000e-02,-8.961181640625000000e-01,-9.954833984375000000e-02
5.000000000000000000e+00,-4.000000000000000000e+00,-3.000000000000000000e+00,-1.000000000000000000e+01,-3.000000000000000000e+00,-1.000000000000000000e+00,-8.000000000000000000e+00,0.000000000000000000e+00,4.209594726562500000e-01,9.954833984375000000e-02,-8.961181640625000000e-01,-9.954833984375000000e-02
-4.000000000000000000e+00,-4.000000000000000000e+00,-2.000000000000000000e+01,-4.000000000000000000e+00,-4.000000000000000000e+00,-3.000000000000000000e+00,-1.000000000000000000e+00,-3.000000000000000000e+00,4.213256835937500000e-01,9.942626953125000000e-02,-8.959350585937500000e-01,-9.960937500000000000e-02
5.000000000000000000e+00,5.000000000000000000e+00,2.000000000000000000e+00,0.000000000000000000e+00,2.000000000000000000e+00,2.000000000000000000e+00,-2.000000000000000000e+00,2.000000000000000000e+00,4.213256835937500000e-01,9.942626953125000000e-02,-8.959350585937500000e-01,-9.960937500000000000e-02
-9.000000000000000000e+00,-2.000000000000000000e+00,1.000000000000000000e+01,1.000000000000000000e+00,-1.000000000000000000e+00,1.000000000000000000e+00,-1.000000000000000000e+00,1.000000000000000000e+00,4.213256835937500000e-01,9.942626953125000000e-02,-8.959350585937500000e-01,-9.960937500000000000e-02
-3.000000000000000000e+00,-5.000000000000000000e+00,-3.100000000000000000e+01,-2.000000000000000000e+01,1.000000000000000000e+00,0.000000000000000000e+00,-3.000000000000000000e+00,-1.000000000000000000e+00,4.213256835937500000e-01,9.942626953125000000e-02,-8.959350585937500000e-01,-9.960937500000000000e-02
0.000000000000000000e+00,-4.000000000000000000e+00,1.100000000000000000e+01,1.600000000000000000e+01,-1.000000000000000000e+00,-1.000000000000000000e+00,1.000000000000000000e+00,-2.000000000000000000e+00,4.218139648437500000e-01,9.948730468750000000e-02,-8.957519531250000000e-01,-9.948730468750000000e-02
2.000000000000000000e+00,-5.000000000000000000e+00,-6.500000000000000000e+01,-3.500000000000000000e+01,-2.000000000000000000e+00,-2.000000000000000000e+00,-3.000000000000000000e+00,-1.000000000000000000e+00,4.218139648437500000e-01,9.948730468750000000e-02,-8.957519531250000000e-01,-9.948730468750000000e-02
-3.000000000000000000e+00,6.000000000000000000e+00,1.000000000000000000e+01,5.000000000000000000e+00,1.000000000000000000e+00,2.000000000000000000e+00,-1.000000000000000000e+00,0.000000000000000000e+00,4.218139648437500000e-01,9.948730468750000000e-02,-8.957519531250000000e-01,-9.948730468750000000e-02
1.100000000000000000e+01,0.000000000000000000e+00,-2.800000000000000000e+01,-1.400000000000000000e+01,2.000000000000000000e+00,-1.000000000000000000e+00,-6.000000000000000000e+00,-1.000000000000000000e+00,4.218139648437500000e-01,9.948730468750000000e-02,-8.957519531250000000e-01,-9.948730468750000000e-02
-3.900000000000000000e+01,-1.000000000000000000e+00,2.300000000000000000e+01,6.000000000000000000e+00,-5.000000000000000000e+00,-5.000000000000000000e+00,-2.000000000000000000e+00,-2.000000000000000000e+00,4.221801757812500000e-01,9.985351562500000000e-02,-8.955078125000000000e-01,-9.942626953125000000e-02
0.000000000000000000e+00,0.000000000000000000e+00,7.000000000000000000e+00,7.000000000000000000e+00,0.000000000000000000e+00,1.000000000000000000e+00,7.000000000000000000e+00,0.000000000000000000e+00,4.221801757812500000e-01,9.985351562500000000e-02,-8.955078125000000000e-01,-9.942626953125000000e-02
-1.300000000000000000e+01,4.000000000000000000e+00,1.000000000000000000e+01,1.600000000000000000e+01,2.000000000000000000e+00,0.000000000000000000e+00,2.000000000000000000e+00,1.000000000000000000e+00,4.221801757812500000e-01,9.985351562500000000e-02,-8.955078125000000000e-01,-9.942626953125000000e-02
1.400000000000000000e+01,-4.000000000000000000e+00,-1.100000000000000000e+01,-2.300000000000000000e+01,-6.000000000000000000e+00,-2.000000000000000000e+00,0.000000000000000000e+00,-2.000000000000000000e+00,4.221801757812500000e-01,9.985351562500000000e-02,-8.955078125000000000e-01,-9.942626953125000000e-02
1.200000000000000000e+01,1.000000000000000000e+00,0.000000000000000000e+00,0.000000000000000000e+00,0.000000000000000000e+00,-2.000000000000000000e+00,-2.000000000000000000e+00,6.000000000000000000e+00,4.224243164062500000e-01,1.002807617187500000e-01,-8.953247070312500000e-01,-9.948730468750000000e-02
6.000000000000000000e+00,3.000000000000000000e+00,-2.000000000000000000e+00,6.000000000000000000e+00,1.000000000000000000e+00,2.000000000000000000e+00,5.000000000000000000e+00,-4.000000000000000000e+00,4.224243164062500000e-01,1.002807617187500000e-01,-8.953247070312500000e-01,-9.948730468750000000e-02
-1.500000000000000000e+01,-1.500000000000000000e+01,1.500000000000000000e+01,2.000000000000000000e+00,-4.000000000000000000e+00,-2.000000000000000000e+00,-1.100000000000000000e+01,-4.000000000000000000e+00,4.224243164062500000e-01,1.002807617187500000e-01,-8.953247070312500000e-01,-9.948730468750000000e-02
-9.000000000000000000e+00,-6.000000000000000000e+00,-4.700000000000000000e+01,-1.700000000000000000e+01,-2.000000000000000000e+00,3.000000000000000000e+00,6.000000000000000000e+00,0.000000000000000000e+00,4.224243164062500000e-01,1.002807617187500000e-01,-8.953247070312500000e-01,-9.948730468750000000e-02
1.000000000000000000e+01,-1.000000000000000000e+00,-2.400000000000000000e+01,-1.300000000000000000e+01,-1.000000000000000000e+00,-1.000000000000000000e+00,2.000000000000000000e+00,-3.000000000000000000e+00,4.224853515625000000e-01,1.003417968750000000e-01,-8.952636718750000000e-01,-9.948730468750000000e-02
0.000000000000000000e+00,3.000000000000000000e+00,2.100000000000000000e+01,-8.000000000000000000e+00,0.000000000000000000e+00,2.000000000000000000e+00,2.000000000000000000e+00,1.000000000000000000e+00,4.224853515625000000e-01,1.003417968750000000e-01,-8.952636718750000000e-01,-9.948730468750000000e-02
3.000000000000000000e+00,9.000000000000000000e+00,-1.400000000000000000e+01,1.400000000000000000e+01,3.000000000000000000e+00,1.000000000000000000e+00,-1.000000000000000000e+00,-2.000000000000000000e+00,4.224853515625000000e-01,1.003417968750000000e-01,-8.952636718750000000e-01,-9.948730468750000000e-02
-6.000000000000000000e+00,-7.000000000000000000e+00,6.000000000000000000e+00,-8.000000000000000000e+00,-7.000000000000000000e+00,-7.000000000000000000e+00,-7.000000000000000000e+00,-3.000000000000000000e+00,4.224853515625000000e-01,1.003417968750000000e-01,-8.952636718750000000e-01,-9.948730468750000000e-02
1.000000000000000000e+00,5.000000000000000000e+00,2.500000000000000000e+01,2.000000000000000000e+00,-4.000000000000000000e+00,-1.000000000000000000e+00,1.000000000000000000e+00,1.000000000000000000e+00,4.228515625000000000e-01,1.006469726562500000e-01,-8.952026367187500000e-01,-9.869384765625000000e-02
1.200000000000000000e+01,-5.000000000000000000e+00,-2.100000000000000000e+01,-1.200000000000000000e+01,-4.000000000000000000e+00,-6.000000000000000000e+00,-7.000000000000000000e+00,0.000000000000000000e+00,4.228515625000000000e-01,1.006469726562500000e-01,-8.952026367187500000e-01,-9.869384765625000000e-02
2.000000000000000000e+00,-1.000000000000000000e+00,-2.300000000000000000e+01,-1.500000000000000000e+01,3.000000000000000000e+00,5.000000000000000000e+00,5.000000000000000000e+00,1.000000000000000000e+00,4.228515625000000000e-01,1.006469726562500000e-01,-8.952026367187500000e-01,-9.869384765625000000e-02
-1.200000000000000000e+01,-7.000000000000000000e+00,-2.100000000000000000e+01,0.000000000000000000e+00,-2.000000000000000000e+00,-2.000000000000000000e+00,-4.000000000000000000e+00,-2.000000000000000000e+00,4.228515625000000000e-01,1.006469726562500000e-01,-8.952026367187500000e-01,-9.869384765625000000e-02
9.000000000000000000e+00,1.000000000000000000e+00,-1.700000000000000000e+01,-3.000000000000000000e+00,-2.000000000000000000e+00,1.000000000000000000e+00,4.000000000000000000e+00,1.000000000000000000e+00,4.232177734375000000e-01,1.013183593750000000e-01,-8.950195312500000000e-01,-9.771728515625000000e-02
6.000000000000000000e+00,-5.000000000000000000e+00,3.500000000000000000e+01,1.000000000000000000e+01,-1.000000000000000000e+00,-2.000000000000000000e+00,-3.000000000000000000e+00,0.000000000000000000e+00,4.232177734375000000e-01,1.013183593750000000e-01,-8.950195312500000000e-01,-9.771728515625000000e-02
-4.000000000000000000e+00,0.000000000000000000e+00,-3.700000000000000000e+01,-3.000000000000000000e+01,-4.000000000000000000e+00,-3.000000000000000000e+00,0.000000000000000000e+00,-1.000000000000000000e+00,4.232177734375000000e-01,1.013183593750000000e-01,-8.950195312500000000e-01,-9.771728515625000000e-02
-7.000000000000000000e+00,8.000000000000000000e+00,3.700000000000000000e+01,1.900000000000000000e+01,-4.000000000000000000e+00,-6.000000000000000000e+00,-8.000000000000000000e+00,-1.000000000000000000e+00,4.232177734375000000e-01,1.013183593750000000e-01,-8.950195312500000000e-01,-9.771728515625000000e-02
5.000000000000000000e+00,0.000000000000000000e+00,0.000000000000000000e+00,2.000000000000000000e+00,2.000000000000000000e+00,1.000000000000000000e+00,-6.000000000000000000e+00,-1.000000000000000000e+00,4.237060546875000000e-01,1.016845703125000000e-01,-8.948364257812500000e-01,-9.698486328125000000e-02
-1.000000000000000000e+00,-1.000000000000000000e+01,-1.300000000000000000e+01,-1.000000000000000000e+00,-1.000000000000000000e+00,0.000000000000000000e+00,4.000000000000000000e+00,-1.000000000000000000e+00,4.237060546875000000e-01,1.016845703125000000e-01,-8.948364257812500000e-01,-9.698486328125000000e-02
6.000000000000000000e+00,5.000000000000000000e+00,-2.000000000000000000e+00,-2.000000000000000000e+00,-2.000000000000000000e+00,-2.000000000000000000e+00,-1.000000000000000000e+00,-2.000000000000000000e+00,4.237060546875000000e-01,1.016845703125000000e-01,-8.948364257812500000e-01,-9.698486328125000000e-02
-1.400000000000000000e+01,3.000000000000000000e+00,4.900000000000000000e+01,1.400000000000000000e+01,0.000000000000000000e+00,-6.000000000000000000e+00,-5.000000000000000000e+00,-4.000000000000000000e+00,4.237060546875000000e-01,1.016845703125000000e-01,-8.948364257812500000e-01,-9.698486328125000000e-02
3.000000000000000000e+00,-1.000000000000000000e+01,-3.600000000000000000e+01,-6.000000000000000000e+00,-1.000000000000000000e+00,2.000000000000000000e+00,1.000000000000000000e+00,-4.000000000000000000e+00,4.242553710937500000e-01,1.015625000000000000e-01,-8.946533203125000000e-01,-9.643554687500000000e-02
-2.000000000000000000e+01,-3.000000000000000000e+00,1.300000000000000000e+01,-1.000000000000000000e+00,-5.000000000000000000e+00,-1.000000000000000000e+00,-1.000000000000000000e+00,2.000000000000000000e+00,4.242553710937500000e-01,1.015625000000000000e-01,-8.946533203125000000e-01,-9.643554687500000000e-02
1.300000000000000000e+01,-3.000000000000000000e+00,1.200000000000000000e+01,3.000000000000000000e+00,-1.000000000000000000e+00,-2.000000000000000000e+00,-3.000000000000000000e+00,-7.000000000000000000e+00,4.242553710937500000e-01,1.015625000000000000e-01,-8.946533203125000000e-01,-9.643554687500000000e-02
1.000000000000000000e+00,8.000000000000000000e+00,-2.800000000000000000e+01,-3.000000000000000000e+00,4.000000000000000000e+00,5.000000000000000000e+00,6.000000000000000000e+00,2.000000000000000000e+00,4.242553710937500000e-01,1.015625000000000000e-01,-8.946533203125000000e-01,-9.643554687500000000e-02
3.000000000000000000e+00,6.000000000000000000e+00,7.000000000000000000e+00,1.300000000000000000e+01,3.000000000000000000e+00,2.000000000000000000e+00,1.000000000000000000e+00,0.000000000000000000e+00,4.243774414062500000e-01,1.019897460937500000e-01,-8.946533203125000000e-01,-9.564208984375000000e-02
-1.500000000000000000e+01,-5.000000000000000000e+00,1.200000000000000000e+01,-5.000000000000000000e+00,-5.000000000000000000e+00,-6.000000000000000000e+00,-8.000000000000000000e+00,-1.000000000000000000e+00,4.243774414062500000e-01,1.019897460937500000e-01,-8.946533203125000000e-01,-9.564208984375000000e-02
-5.000000000000000000e+00,-1.000000000000000000e+00,2.700000000000000000e+01,3.000000000000000000e+00,3.000000000000000000e+00,1.000000000000000000e+00,5.000000000000000000e+00,2.000000000000000000e+00,4.243774414062500000e-01,1.019897460937500000e-01,-8.946533203125000000e-01,-9.564208984375000000e-02
7.000000000000000000e+00,2.000000000000000000e+00,-2.600000000000000000e+01,-2.000000000000000000e+00,-3.000000000000000000e+00,-3.000000000000000000e+00,-1.000000000000000000e+00,2.000000000000000000e+00,4.243774414062500000e-01,1.019897460937500000e-01,-8.946533203125000000e-01,-9.564208984375000000e-02
6.000000000000000000e+00,-6.000000000000000000e+00,2.200000000000000000e+01,1.100000000000000000e+01,3.000000000000000000e+00,-1.000000000000000000e+00,3.000000000000000000e+00,3.000000000000000000e+00,4.244995117187500000e-01,1.027221679687500000e-01,-8.945922851562500000e-01,-9.478759765625000000e-02
1.800000000000000000e+01,2.000000000000000000e+01,-2.100000000000000000e+01,-9.000000000000000000e+00,0.000000000000000000e+00,3.000000000000000000e+00,-2.000000000000000000e+00,1.000000000000000000e+00,4.244995117187500000e-01,1.027221679687500000e-01,-8.945922851562500000e-01,-9.478759765625000000e-02
-1.400000000000000000e+01,-3.100000000000000000e+01,-4.500000000000000000e+01,-1.100000000000000000e+01,-2.000000000000000000e+00,-1.000000000000000000e+00,-4.000000000000000000e+00,-4.000000000000000000e+00,4.244995117187500000e-01,1.027221679687500000e-01,-8.945922851562500000e-01,-9.478759765625000000e-02
5.000000000000000000e+00,-7.000000000000000000e+00,8.000000000000000000e+00,2.000000000000000000e+00,-2.000000000000000000e+00,0.000000000000000000e+00,0.000000000000000000e+00,1.000000000000000000e+00,4.244995117187500000e-01,1.027221679687500000e-01,-8.945922851562500000e-01,-9.478759765625000000e-02
-1.000000000000000000e+00,5.000000000000000000e+00,2.000000000000000000e+00,-1.000000000000000000e+00,2.000000000000000000e+00,1.000000000000000000e+00,-2.000000000000000000e+00,3.000000000000000000e+00,4.245605468750000000e-01,1.035156250000000000e-01,-8.945922851562500000e-01,-9.387207031250000000e-02
-3.000000000000000000e+00,-2.500000000000000000e+01,1.100000000000000000e+01,0.000000000000000000e+00,-8.000000000000000000e+00,-6.000000000000000000e+00,-3.000000000000000000e+00,-7.000000000000000000e+00,4.245605468750000000e-01,1.035156250000000000e-01,-8.945922851562500000e-01,-9.387207031250000000e-02
-2.000000000000000000e+00,1.200000000000000000e+01,-5.700000000000000000e+01,-3.500000000000000000e+01,-7.000000000000000000e+00,-8.000000000000000000e+00,-1.200000000000000000e+01,-2.000000000000000000e+00,4.245605468750000000e-01,1.035156250000000000e-01,-8.945922851562500000e-01,-9.387207031250000000e-02
-1.100000000000000000e+01,-5.000000000000000000e+00,1.000000000000000000e+01,-2.000000000000000000e+00,4.000000000000000000e+00,6.000000000000000000e+00,8.000000000000000000e+00,-1.000000000000000000e+00,4.245605468750000000e-01,1.035156250000000000e-01,-8.945922851562500000e-01,-9.387207031250000000e-02
1.500000000000000000e+01,7.000000000000000000e+00,2.500000000000000000e+01,-2.000000000000000000e+00,-5.000000000000000000e+00,-2.000000000000000000e+00,1.000000000000000000e+00,0.000000000000000000e+00,4.246215820312500000e-01,1.043701171875000000e-01,-8.945312500000000000e-01,-9.307861328125000000e-02
2.000000000000000000e+00,9.000000000000000000e+00,-1.900000000000000000e+01,1.200000000000000000e+01,6.000000000000000000e+00,1.000000000000000000e+00,-2.000000000000000000e+00,0.000000000000000000e+00,4.246215820312500000e-01,1.043701171875000000e-01,-8.945312500000000000e-01,-9.307861328125000000e-02
4.000000000000000000e+00,-3.000000000000000000e+00,-1.000000000000000000e+00,-5.000000000000000000e+00,-3.000000000000000000e+00,0.000000000000000000e+00,5.000000000000000000e+00,-1.000000000000000000e+00,4.246215820312500000e-01,1.043701171875000000e-01,-8.945312500000000000e-01,-9.307861328125000000e-02
-3.000000000000000000e+00,-3.000000000000000000e+00,2.900000000000000000e+01,7.000000000000000000e+00,-4.000000000000000000e+00,-3.000000000000000000e+00,-1.000000000000000000e+01,-3.000000000000000000e+00,4.246215820312500000e-01,1.043701171875000000e-01,-8.945312500000000000e-01,-9.307861328125000000e-02
1.000000000000000000e+00,-1.000000000000000000e+00,-2.200000000000000000e+01,-1.000000000000000000e+01,0.000000000000000000e+00,-1.000000000000000000e+00,-3.000000000000000000e+00,-5.000000000000000000e+00,4.248046875000000000e-01,1.046752929687500000e-01,-8.944702148437500000e-01,-9.234619140625000000e-02
-9.000000000000000000e+00,5.000000000000000000e+00,-1.600000000000000000e+01,-1.000000000000000000e+00,-1.000000000000000000e+00,-3.000000000000000000e+00,-3.000000000000000000e+00,-3.000000000000000000e+00,4.248046875000000000e-01,1.046752929687500000e-01,-8.944702148437500000e-01,-9.234619140625000000e-02
-1.200000000000000000e+01,0.000000000000000000e+00,1.100000000000000000e+01,7.000000000000000000e+00,3.000000000000000000e+00,0.000000000000000000e+00,3.000000000000000000e+00,7.000000000000000000e+00,4.248046875000000000e-01,1.046752929687500000e-01,-8.944702148437500000e-01,-9.234619140625000000e-02
3.000000000000000000e+00,0.000000000000000000e+00,2.000000000000000000e+00,0.000000000000000000e+00,2.000000000000000000e+00,-1.000000000000000000e+00,-7.000000000000000000e+00,1.000000000000000000e+00,4.248046875000000000e-01,1.046752929687500000e-01,-8.944702148437500000e-01,-9.234619140625000000e-02
-7.000000000000000000e+00,-1.100000000000000000e+01,2.000000000000000000e+00,1.300000000000000000e+01,-5.000000000000000000e+00,-2.000000000000000000e+00,1.000000000000000000e+00,-1.000000000000000000e+01,4.250488281250000000e-01,1.044311523437500000e-01,-8.944702148437500000e-01,-9.143066406250000000e-02
1.300000000000000000e+01,-3.000000000000000000e+00,-3.100000000000000000e+01,-1.700000000000000000e+01,-1.000000000000000000e+00,0.000000000000000000e+00,7.000000000000000000e+00,0.000000000000000000e+00,4.250488281250000000e-01,1.044311523437500000e-01,-8.944702148437500000e-01,-9.143066406250000000e-02
-1.900000000000000000e+01,1.000000000000000000e+00,5.400000000000000000e+01,3.300000000000000000e+01,4.000000000000000000e+00,1.000000000000000000e+00,-1.000000000000000000e+00,-3.000000000000000000e+00,4.250488281250000000e-01,1.044311523437500000e-01,-8.944702148437500000e-01,-9.143066406250000000e-02
-6.000000000000000000e+00,1.000000000000000000e+00,-8.000000000000000000e+00,-2.000000000000000000e+00,-3.000000000000000000e+00,-1.000000000000000000e+00,1.000000000000000000e+00,1.000000000000000000e+00,4.250488281250000000e-01,1.044311523437500000e-01,-8.944702148437500000e-01,-9.143066406250000000e-02
-5.000000000000000000e+00,1.300000000000000000e+01,-5.000000000000000000e+00,7.000000000000000000e+00,1.000000000000000000e+00,-3.000000000000000000e+00,-6.000000000000000000e+00,0.000000000000000000e+00,4.254760742187500000e-01,1.041259765625000000e-01,-8.944091796875000000e-01,-9.027099609375000000e-02
0.000000000000000000e+00,-1.100000000000000000e+01,4.100000000000000000e+01,5.000000000000000000e+00,-1.000000000000000000e+00,-3.000000000000000000e+00,-4.000000000000000000e+00,-1.000000000000000000e+00,4.254760742187500000e-01,1.041259765625000000e-01,-8.944091796875000000e-01,-9.027099609375000000e-02
1.200000000000000000e+01,-1.300000000000000000e+01,-3.900000000000000000e+01,-3.000000000000000000e+00,-3.000000000000000000e+00,-3.000000000000000000e+00,2.000000000000000000e+00,1.000000000000000000e+00,4.254760742187500000e-01,1.041259765625000000e-01,-8.944091796875000000e-01,-9.027099609375000000e-02
0.000000000000000000e+00,4.000000000000000000e+00,1.700000000000000000e+01,6.000000000000000000e+00,0.000000000000000000e+00,-1.000000000000000000e+00,-2.000000000000000000e+00,-1.000000000000000000e+00,4.254760742187500000e-01,1.041259765625000000e-01,-8.944091796875000000e-01,-9.027099609375000000e-02
-8.000000000000000000e+00,-1.400000000000000000e+01,-8.000000000000000000e+00,-7.000000000000000000e+00,-4.000000000000000000e+00,-7.000000000000000000e+00,-1.300000000000000000e+01,-6.000000000000000000e+00,4.257812500000000000e-01,1.039428710937500000e-01,-8.944702148437500000e-01,-8.886718750000000000e-02
-5.000000000000000000e+00,1.500000000000000000e+01,3.200000000000000000e+01,1.000000000000000000e+01,3.000000000000000000e+00,4.000000000000000000e+00,-2.000000000000000000e+00,-1.000000000000000000e+00,4.257812500000000000e-01,1.039428710937500000e-01,-8.944702148437500000e-01,-8.886718750000000000e-02
1.500000000000000000e+01,-1.000000000000000000e+00,-2.200000000000000000e+01,-9.000000000000000000e+00,-3.000000000000000000e+00,1.000000000000000000e+00,1.100000000000000000e+01,4.000000000000000000e+00,4.257812500000000000e-01,1.039428710937500000e-01,-8.944702148437500000e-01,-8.886718750000000000e-02
-1.000000000000000000e+01,-3.000000000000000000e+00,9.000000000000000000e+00,2.100000000000000000e+01,1.000000000000000000e+00,3.000000000000000000e+00,5.000000000000000000e+00,-1.000000000000000000e+00,4.257812500000000000e-01,1.039428710937500000e-01,-8.944702148437500000e-01,-8.886718750000000000e-02
-2.000000000000000000e+00,-2.000000000000000000e+00,1.000000000000000000e+01,-2.000000000000000000e+01,0.000000000000000000e+00,-4.000000000000000000e+00,-1.000000000000000000e+01,2.000000000000000000e+00,4.261474609375000000e-01,1.040039062500000000e-01,-8.943481445312500000e-01,-8.770751953125000000e-02
-3.000000000000000000e+00,3.000000000000000000e+00,-8.000000000000000000e+00,1.000000000000000000e+00,0.000000000000000000e+00,-1.000000000000000000e+00,-2.000000000000000000e+00,0.000000000000000000e+00,4.261474609375000000e-01,1.040039062500000000e-01,-8.943481445312500000e-01,-8.770751953125000000e-02
1.000000000000000000e+00,2.000000000000000000e+00,1.700000000000000000e+01,1.400000000000000000e+01,0.000000000000000000e+00,-2.000000000000000000e+00,-1.000000000000000000e+00,-3.000000000000000000e+00,4.261474609375000000e-01,1.040039062500000000e-01,-8.943481445312500000e-01,-8.770751953125000000e-02
7.000000000000000000e+00,-1.100000000000000000e+01,-5.000000000000000000e+00,-2.000000000000000000e+00,2.000000000000000000e+00,-1.000000000000000000e+00,-2.000000000000000000e+00,2.000000000000000000e+00,4.261474609375000000e-01,1.040039062500000000e-01,-8.943481445312500000e-01,-8.770751953125000000e-02
-7.000000000000000000e+00,-3.000000000000000000e+00,-1.100000000000000000e+01,-8.000000000000000000e+00,-2.000000000000000000e+00,0.000000000000000000e+00,5.000000000000000000e+00,0.000000000000000000e+00,4.263916015625000000e-01,1.038208007812500000e-01,-8.943481445312500000e-01,-8.703613281250000000e-02
-4.000000000000000000e+00,0.000000000000000000e+00,-3.000000000000000000e+00,4.000000000000000000e+00,-1.000000000000000000e+00,1.000000000000000000e+00,-1.000000000000000000e+00,-1.000000000000000000e+00,4.263916015625000000e-01,1.038208007812500000e-01,-8.943481445312500000e-01,-8.703613281250000000e-02
-1.000000000000000000e+00,7.000000000000000000e+00,1.300000000000000000e+01,0.000000000000000000e+00,-2.000000000000000000e+00,-2.000000000000000000e+00,1.000000000000000000e+00,1.000000000000000000e+00,4.263916015625000000e-01,1.038208007812500000e-01,-8.943481445312500000e-01,-8.703613281250000000e-02
3.000000000000000000e+00,4.000000000000000000e+00,-3.000000000000000000e+01,-6.000000000000000000e+00,0.000000000000000000e+00,-2.000000000000000000e+00,2.000000000000000000e+00,0.000000000000000000e+00,4.263916015625000000e-01,1.038208007812500000e-01,-8.943481445312500000e-01,-8.703613281250000000e-02
-4.000000000000000000e+00,3.000000000000000000e+00,-6.000000000000000000e+00,-6.000000000000000000e+00,-1.000000000000000000e+00,-1.000000000000000000e+00,-1.000000000000000000e+00,-2.000000000000000000e+00,4.263916015625000000e-01,1.032714843750000000e-01,-8.944702148437500000e-01,-8.660888671875000000e-02
8.000000000000000000e+00,-1.500000000000000000e+01,-1.900000000000000000e+01,-3.000000000000000000e+00,-5.000000000000000000e+00,-3.000000000000000000e+00,0.000000000000000000e+00,-2.000000000000000000e+00,4.263916015625000000e-01,1.032714843750000000e-01,-8.944702148437500000e-01,-8.660888671875000000e-02
-4.500000000000000000e+01,-1.000000000000000000e+00,-1.000000000000000000e+00,-4.000000000000000000e+00,-4.000000000000000000e+00,0.000000000000000000e+00,-1.000000000000000000e+00,-5.000000000000000000e+00,4.263916015625000000e-01,1.032714843750000000e-01,-8.944702148437500000e-01,-8.660888671875000000e-02
4.000000000000000000e+00,0.000000000000000000e+00,3.000000000000000000e+00,-3.000000000000000000e+00,-4.000000000000000000e+00,-2.000000000000000000e+00,0.000000000000000000e+00,-4.000000000000000000e+00,4.263916015625000000e-01,1.032714843750000000e-01,-8.944702148437500000e-01,-8.660888671875000000e-02
1.100000000000000000e+01,-4.000000000000000000e+00,-5.000000000000000000e+00,-1.000000000000000000e+00,0.000000000000000000e+00,3.000000000000000000e+00,1.000000000000000000e+00,2.000000000000000000e+00,4.262084960937500000e-01,1.028442382812500000e-01,-8.946533203125000000e-01,-8.581542968750000000e-02
-3.000000000000000000e+00,2.000000000000000000e+00,-6.000000000000000000e+00,-1.000000000000000000e+00,3.000000000000000000e+00,1.000000000000000000e+00,1.000000000000000000e+00,-5.000000000000000000e+00,4.262084960937500000e-01,1.028442382812500000e-01,-8.946533203125000000e-01,-8.581542968750000000e-02
6.000000000000000000e+00,8.000000000000000000e+00,6.200000000000000000e+01,1.800000000000000000e+01,4.000000000000000000e+00,0.000000000000000000e+00,-5.000000000000000000e+00,0.000000000000000000e+00,4.262084960937500000e-01,1.028442382812500000e-01,-8.946533203125000000e-01,-8.581542968750000000e-02
-5.000000000000000000e+00,2.000000000000000000e+00,-9.000000000000000000e+00,-1.000000000000000000e+01,-3.000000000000000000e+00,1.000000000000000000e+00,3.000000000000000000e+00,-2.000000000000000000e+00,4.262084960937500000e-01,1.028442382812500000e-01,-8.946533203125000000e-01,-8.581542968750000000e-02
-5.000000000000000000e+00,-5.000000000000000000e+00,-4.800000000000000000e+01,-2.000000000000000000e+00,0.000000000000000000e+00,-1.000000000000000000e+00,3.000000000000000000e+00,-1.000000000000000000e+00,4.259033203125000000e-01,1.028442382812500000e-01,-8.948974609375000000e-01,-8.489990234375000000e-02
-1.200000000000000000e+01,-7.000000000000000000e+00,1.100000000000000000e+01,-4.000000000000000000e+00,0.000000000000000000e+00,1.000000000000000000e+00,-2.000000000000000000e+00,1.000000000000000000e+00,4.259033203125000000e-01,1.028442382812500000e-01,-8.948974609375000000e-01,-8.489990234375000000e-02
1.500000000000000000e+01,2.000000000000000000e+00,2.300000000000000000e+01,1.100000000000000000e+01,-1.000000000000000000e+00,-3.000000000000000000e+00,-6.000000000000000000e+00,-2.000000000000000000e+00,4.259033203125000000e-01,1.028442382812500000e-01,-8.948974609375000000e-01,-8.489990234375000000e-02
-8.000000000000000000e+00,2.000000000000000000e+00,7.000000000000000000e+00,-6.000000000000000000e+00,-1.000000000000000000e+00,0.000000000000000000e+00,2.000000000000000000e+00,-1.000000000000000000e+00,4.259033203125000000e-01,1.028442382812500000e-01,-8.948974609375000000e-01,-8.489990234375000000e-02
6.000000000000000000e+00,1.000000000000000000e+00,-1.100000000000000000e+01,-9.000000000000000000e+00,-4.000000000000000000e+00,2.000000000000000000e+00,0.000000000000000000e+00,0.000000000000000000e+00,4.254150390625000000e-01,1.030883789062500000e-01,-8.951416015625000000e-01,-8.447265625000000000e-02
-3.000000000000000000e+00,0.000000000000000000e+00,-1.000000000000000000e+00,0.000000000000000000e+00,0.000000000000000000e+00,-4.000000000000000000e+00,-1.100000000000000000e+01,1.000000000000000000e+00,4.254150390625000000e-01,1.030883789062500000e-01,-8.951416015625000000e-01,-8.447265625000000000e-02
3.000000000000000000e+00,1.000000000000000000e+01,1.100000000000000000e+01,1.100000000000000000e+01,7.000000000000000000e+00,5.000000000000000000e+00,4.000000000000000000e+00,3.000000000000000000e+00,4.254150390625000000e-01,1.030883789062500000e-01,-8.951416015625000000e-01,-8.447265625000000000e-02
5.000000000000000000e+00,-1.100000000000000000e+01,-2.100000000000000000e+01,-3.000000000000000000e+00,-3.000000000000000000e+00,0.000000000000000000e+00,-3.000000000000000000e+00,-2.000000000000000000e+00,4.254150390625000000e-01,1.030883789062500000e-01,-8.951416015625000000e-01,-8.447265625000000000e-02
-1.600000000000000000e+01,-1.700000000000000000e+01,5.000000000000000000e+00,-1.200000000000000000e+01,-7.000000000000000000e+00,-7.000000000000000000e+00,-2.000000000000000000e+00,-1.000000000000000000e+00,4.247436523437500000e-01,1.026611328125000000e-01,-8.955078125000000000e-01,-8.471679687500000000e-02
-4.000000000000000000e+00,-1.000000000000000000e+00,1.400000000000000000e+01,-5.000000000000000000e+00,-3.000000000000000000e+00,-3.000000000000000000e+00,-2.000000000000000000e+00,1.000000000000000000e+00,4.247436523437500000e-01,1.026611328125000000e-01,-8.955078125000000000e-01,-8.471679687500000000e-02
2.000000000000000000e+00,-4.000000000000000000e+00,-1.300000000000000000e+01,-7.000000000000000000e+00,0.000000000000000000e+00,-1.000000000000000000e+00,-5.000000000000000000e+00,-1.000000000000000000e+00,4.247436523437500000e-01,1.026611328125000000e-01,-8.955078125000000000e-01,-8.471679687500000000e-02
7.000000000000000000e+00,1.000000000000000000e+01,1.100000000000000000e+01,1.000000000000000000e+00,1.000000000000000000e+00,1.000000000000000000e+00,3.000000000000000000e+00,2.000000000000000000e+00,4.247436523437500000e-01,1.026611328125000000e-01,-8.955078125000000000e-01,-8.471679687500000000e-02
0.000000000000000000e+00,4.000000000000000000e+00,6.000000000000000000e+00,4.000000000000000000e+00,1.000000000000000000e+00,1.000000000000000000e+00,0.000000000000000000e+00,0.000000000000000000e+00,4.240112304687500000e-01,1.022338867187500000e-01,-8.958740234375000000e-01,-8.471679687500000000e-02
-3.000000000000000000e+00,1.000000000000000000e+00,1.000000000000000000e+00,5.000000000000000000e+00,-2.000000000000000000e+00,1.000000000000000000e+00,1.100000000000000000e+01,-2.000000000000000000e+00,4.240112304687500000e-01,1.022338867187500000e-01,-8.958740234375000000e-01,-8.471679687500000000e-02
7.000000000000000000e+00,-3.000000000000000000e+00,-1.400000000000000000e+01,-5.000000000000000000e+00,-1.000000000000000000e+00,0.000000000000000000e+00,-1.000000000000000000e+00,2.000000000000000000e+00,4.240112304687500000e-01,1.022338867187500000e-01,-8.958740234375000000e-01,-8.471679687500000000e-02
6.000000000000000000e+00,5.000000000000000000e+00,9.000000000000000000e+00,2.300000000000000000e+01,2.000000000000000000e+00,-1.000000000000000000e+00,3.000000000000000000e+00,-1.000000000000000000e+00,4.240112304687500000e-01,1.022338867187500000e-01,-8.958740234375000000e-01,-8.471679687500000000e-02
-5.600000000000000000e+01,-1.800000000000000000e+01,-4.300000000000000000e+01,-1.600000000000000000e+01,-7.000000000000000000e+00,-5.000000000000000000e+00,-5.000000000000000000e+00,-6.000000000000000000e+00,4.232177734375000000e-01,1.022949218750000000e-01,-8.963012695312500000e-01,-8.428955078125000000e-02
4.000000000000000000e+00,2.000000000000000000e+00,1.000000000000000000e+01,2.000000000000000000e+00,-1.000000000000000000e+00,-2.000000000000000000e+00,2.000000000000000000e+00,0.000000000000000000e+00,4.232177734375000000e-01,1.022949218750000000e-01,-8.963012695312500000e-01,-8.428955078125000000e-02
