2.000000000000000000e+01,8.000000000000000000e+00,2.000000000000000000e+01,9.000000000000000000e+00,2.000000000000000000e+00,-2.000000000000000000e+00,0.000000000000000000e+00,3.000000000000000000e+00,-2.670898437500000000e-01,4.226074218750000000e-01,4.353027343750000000e-01,7.486572265625000000e-01
5.000000000000000000e+00,3.000000000000000000e+00,-2.500000000000000000e+01,-3.000000000000000000e+00,0.000000000000000000e+00,-1.000000000000000000e+00,0.000000000000000000e+00,-2.000000000000000000e+00,-2.670898437500000000e-01,4.226074218750000000e-01,4.353027343750000000e-01,7.486572265625000000e-01
-5.000000000000000000e+00,-6.000000000000000000e+00,-1.900000000000000000e+01,-7.000000000000000000e+00,-2.000000000000000000e+00,1.000000000000000000e+00,-1.000000000000000000e+00,2.000000000000000000e+00,-2.670898437500000000e-01,4.226074218750000000e-01,4.353027343750000000e-01,7.486572265625000000e-01
-3.000000000000000000e+00,2.000000000000000000e+00,-9.000000000000000000e+00,9.000000000000000000e+00,4.000000000000000000e+00,0.000000000000000000e+00,1.000000000000000000e+00,-9.000000000000000000e+00,-2.670898437500000000e-01,4.226074218750000000e-01,4.353027343750000000e-01,7.486572265625000000e-01
2.000000000000000000e+00,-3.000000000000000000e+00,-1.300000000000000000e+01,-1.400000000000000000e+01,-1.000000000000000000e+00,2.000000000000000000e+00,3.000000000000000000e+00,2.700000000000000000e+01,-2.686767578125000000e-01,4.196166992187500000e-01,4.335327148437500000e-01,7.507934570312500000e-01
-1.000000000000000000e+01,-6.000000000000000000e+00,-6.000000000000000000e+00,1.500000000000000000e+01,0.000000000000000000e+00,-5.000000000000000000e+00,-6.000000000000000000e+00,-1.400000000000000000e+01,-2.686767578125000000e-01,4.196166992187500000e-01,4.335327148437500000e-01,7.507934570312500000e-01
-5.000000000000000000e+00,-1.000000000000000000e+00,1.900000000000000000e+01,-3.000000000000000000e+00,-3.000000000000000000e+00,-2.000000000000000000e+00,-2.000000000000000000e+00,-2.000000000000000000e+00,-2.686767578125000000e-01,4.196166992187500000e-01,4.335327148437500000e-01,7.507934570312500000e-01
-1.500000000000000000e+01,0.000000000000000000e+00,-1.500000000000000000e+01,3.000000000000000000e+00,4.000000000000000000e+00,2.000000000000000000e+00,-1.000000000000000000e+00,-1.000000000000000000e+00,-2.686767578125000000e-01,4.196166992187500000e-01,4.335327148437500000e-01,7.507934570312500000e-01
-1.000000000000000000e+00,5.000000000000000000e+00,1.700000000000000000e+01,1.200000000000000000e+01,-1.000000000000000000e+00,-4.000000000000000000e+00,1.100000000000000000e+01,1.500000000000000000e+01,-2.696533203125000000e-01,4.163818359375000000e-01,4.317626953125000000e-01,7.532348632812500000e-01
2.200000000000000000e+01,-1.000000000000000000e+00,4.000000000000000000e+00,-4.000000000000000000e+00,-2.000000000000000000e+00,6.000000000000000000e+00,-5.000000000000000000e+00,-1.600000000000000000e+01,-2.696533203125000000e-01,4.163818359375000000e-01,4.317626953125000000e-01,7.532348632812500000e-01
-1.000000000000000000e+00,-6.000000000000000000e+00,-1.000000000000000000e+00,-9.000000000000000000e+00,9.000000000000000000e+00,1.600000000000000000e+01,1.100000000000000000e+01,-1.000000000000000000e+00,-2.696533203125000000e-01,4.163818359375000000e-01,4.317626953125000000e-01,7.532348632812500000e-01
1.400000000000000000e+01,0.000000000000000000e+00,2.000000000000000000e+01,1.000000000000000000e+01,-3.000000000000000000e+00,-9.000000000000000000e+00,-1.000000000000000000e+00,-4.000000000000000000e+00,-2.696533203125000000e-01,4.163818359375000000e-01,4.317626953125000000e-01,7.532348632812500000e-01
-2.100000000000000000e+01,-1.000000000000000000e+00,-1.200000000000000000e+01,-2.200000000000000000e+01,-1.000000000000000000e+00,4.000000000000000000e+00,0.000000000000000000e+00,-5.000000000000000000e+00,-2.701416015625000000e-01,4.132080078125000000e-01,4.302978515625000000e-01,7.556762695312500000e-01
0.000000000000000000e+00,-2.000000000000000000e+00,1.400000000000000000e+01,1.000000000000000000e+01,-1.000000000000000000e+00,-5.000000000000000000e+00,2.000000000000000000e+00,2.000000000000000000e+00,-2.701416015625000000e-01,4.132080078125000000e-01,4.302978515625000000e-01,7.556762695312500000e-01
3.000000000000000000e+00,0.000000000000000000e+00,-3.500000000000000000e+01,-7.000000000000000000e+00,-4.000000000000000000e+00,-4.000000000000000000e+00,0.000000000000000000e+00,-4.000000000000000000e+00,-2.701416015625000000e-01,4.132080078125000000e-01,4.302978515625000000e-01,7.556762695312500000e-01
1.500000000000000000e+01,-5.000000000000000000e+00,-3.100000000000000000e+01,-4.100000000000000000e+01,-5.000000000000000000e+00,-1.000000000000000000e+00,-1.300000000000000000e+01,7.000000000000000000e+00,-2.701416015625000000e-01,4.132080078125000000e-01,4.302978515625000000e-01,7.556762695312500000e-01
-5.000000000000000000e+00,0.000000000000000000e+00,1.000000000000000000e+01,1.800000000000000000e+01,1.000000000000000000e+00,-3.000000000000000000e+00,-7.000000000000000000e+00,-1.200000000000000000e+01,-2.695922851562500000e-01,4.107055664062500000e-01,4.287109375000000000e-01,7.581176757812500000e-01
-3.000000000000000000e+00,2.000000000000000000e+00,-1.300000000000000000e+01,-2.500000000000000000e+01,-5.000000000000000000e+00,0.000000000000000000e+00,2.000000000000000000e+00,2.200000000000000000e+01,-2.695922851562500000e-01,4.107055664062500000e-01,4.287109375000000000e-01,7.581176757812500000e-01
1.000000000000000000e+00,-4.000000000000000000e+00,6.000000000000000000e+00,6.000000000000000000e+00,-2.000000000000000000e+00,-2.000000000000000000e+00,3.000000000000000000e+00,5.000000000000000000e+00,-2.695922851562500000e-01,4.107055664062500000e-01,4.287109375000000000e-01,7.581176757812500000e-01
-1.000000000000000000e+00,0.000000000000000000e+00,-1.000000000000000000e+00,1.500000000000000000e+01,-1.000000000000000000e+00,-2.000000000000000000e+00,-1.000000000000000000e+00,-1.100000000000000000e+01,-2.695922851562500000e-01,4.107055664062500000e-01,4.287109375000000000e-01,7.581176757812500000e-01
2.000000000000000000e+00,-6.000000000000000000e+00,-3.800000000000000000e+01,-4.400000000000000000e+01,-8.000000000000000000e+00,0.000000000000000000e+00,2.000000000000000000e+00,1.400000000000000000e+01,-2.679443359375000000e-01,4.087524414062500000e-01,4.276123046875000000e-01,7.603759765625000000e-01
-1.400000000000000000e+01,1.000000000000000000e+00,4.000000000000000000e+01,3.000000000000000000e+01,-1.000000000000000000e+00,-1.000000000000000000e+01,-1.500000000000000000e+01,-2.000000000000000000e+01,-2.679443359375000000e-01,4.087524414062500000e-01,4.276123046875000000e-01,7.603759765625000000e-01
-1.400000000000000000e+01,2.000000000000000000e+00,1.300000000000000000e+01,1.400000000000000000e+01,3.000000000000000000e+00,0.000000000000000000e+00,2.000000000000000000e+00,-4.000000000000000000e+00,-2.679443359375000000e-01,4.087524414062500000e-01,4.276123046875000000e-01,7.603759765625000000e-01
2.600000000000000000e+01,2.000000000000000000e+00,2.600000000000000000e+01,5.000000000000000000e+00,0.000000000000000000e+00,1.000000000000000000e+00,9.000000000000000000e+00,1.600000000000000000e+01,-2.679443359375000000e-01,4.087524414062500000e-01,4.276123046875000000e-01,7.603759765625000000e-01
-2.900000000000000000e+01,-7.000000000000000000e+00,-1.900000000000000000e+01,-1.600000000000000000e+01,-3.000000000000000000e+00,-1.000000000000000000e+01,-1.400000000000000000e+01,-3.300000000000000000e+01,-2.675781250000000000e-01,4.061889648437500000e-01,4.273681640625000000e-01,7.620849609375000000e-01
3.000000000000000000e+00,-7.000000000000000000e+00,-1.100000000000000000e+01,-1.300000000000000000e+01,-5.000000000000000000e+00,1.500000000000000000e+01,8.000000000000000000e+00,1.900000000000000000e+01,-2.675781250000000000e-01,4.061889648437500000e-01,4.273681640625000000e-01,7.620849609375000000e-01
-2.400000000000000000e+01,-1.000000000000000000e+00,-6.000000000000000000e+00,-1.800000000000000000e+01,-4.000000000000000000e+00,-4.000000000000000000e+00,-1.000000000000000000e+00,-5.000000000000000000e+00,-2.675781250000000000e-01,4.061889648437500000e-01,4.273681640625000000e-01,7.620849609375000000e-01
4.900000000000000000e+01,1.200000000000000000e+01,3.100000000000000000e+01,1.800000000000000000e+01,2.000000000000000000e+00,-3.000000000000000000e+00,-7.000000000000000000e+00,-8.000000000000000000e+00,-2.675781250000000000e-01,4.061889648437500000e-01,4.273681640625000000e-01,7.620849609375000000e-01
-3.700000000000000000e+01,-5.000000000000000000e+00,2.000000000000000000e+01,3.600000000000000000e+01,6.000000000000000000e+00,-1.000000000000000000e+00,2.000000000000000000e+00,-1.300000000000000000e+01,-2.674560546875000000e-01,4.032592773437500000e-01,4.271240234375000000e-01,7.637939453125000000e-01
1.000000000000000000e+01,4.000000000000000000e+00,-1.800000000000000000e+01,-2.700000000000000000e+01,-4.000000000000000000e+00,-4.000000000000000000e+00,0.000000000000000000e+00,9.000000000000000000e+00,-2.674560546875000000e-01,4.032592773437500000e-01,4.271240234375000000e-01,7.637939453125000000e-01
8.000000000000000000e+00,3.000000000000000000e+00,1.800000000000000000e+01,2.400000000000000000e+01,6.000000000000000000e+00,-1.000000000000000000e+00,-2.000000000000000000e+00,4.000000000000000000e+00,-2.674560546875000000e-01,4.032592773437500000e-01,4.271240234375000000e-01,7.637939453125000000e-01
-2.200000000000000000e+01,-9.000000000000000000e+00,-5.000000000000000000e+01,-3.700000000000000000e+01,-1.000000000000000000e+01,-2.000000000000000000e+00,5.000000000000000000e+00,5.000000000000000000e+00,-2.674560546875000000e-01,4.032592773437500000e-01,4.271240234375000000e-01,7.637939453125000000e-01
1.700000000000000000e+01,4.000000000000000000e+00,2.000000000000000000e+01,2.400000000000000000e+01,-2.000000000000000000e+00,-8.000000000000000000e+00,-6.000000000000000000e+00,3.000000000000000000e+00,-2.669067382812500000e-01,4.012451171875000000e-01,4.267578125000000000e-01,7.651977539062500000e-01
-8.000000000000000000e+00,0.000000000000000000e+00,-1.300000000000000000e+01,-1.300000000000000000e+01,1.000000000000000000e+00,-1.000000000000000000e+00,4.000000000000000000e+00,-7.000000000000000000e+00,-2.669067382812500000e-01,4.012451171875000000e-01,4.267578125000000000e-01,7.651977539062500000e-01
5.000000000000000000e+00,0.000000000000000000e+00,1.900000000000000000e+01,-5.000000000000000000e+00,-1.000000000000000000e+00,5.000000000000000000e+00,-3.000000000000000000e+00,3.000000000000000000e+00,-2.669067382812500000e-01,4.012451171875000000e-01,4.267578125000000000e-01,7.651977539062500000e-01
-1.100000000000000000e+01,0.000000000000000000e+00,1.200000000000000000e+01,3.700000000000000000e+01,5.000000000000000000e+00,-3.000000000000000000e+00,-4.000000000000000000e+00,-9.000000000000000000e+00,-2.669067382812500000e-01,4.012451171875000000e-01,4.267578125000000000e-01,7.651977539062500000e-01
6.000000000000000000e+00,-4.000000000000000000e+00,-5.100000000000000000e+01,-4.300000000000000000e+01,-5.000000000000000000e+00,0.000000000000000000e+00,-1.000000000000000000e+00,7.000000000000000000e+00,-2.655639648437500000e-01,4.007568359375000000e-01,4.266357421875000000e-01,7.659912109375000000e-01
-2.900000000000000000e+01,-4.000000000000000000e+00,2.800000000000000000e+01,3.300000000000000000e+01,4.000000000000000000e+00,-1.000000000000000000e+00,-3.000000000000000000e+00,-8.000000000000000000e+00,-2.655639648437500000e-01,4.007568359375000000e-01,4.266357421875000000e-01,7.659912109375000000e-01
2.000000000000000000e+01,3.000000000000000000e+00,-1.000000000000000000e+00,-3.300000000000000000e+01,-4.000000000000000000e+00,-1.000000000000000000e+00,5.000000000000000000e+00,-4.000000000000000000e+00,-2.655639648437500000e-01,4.007568359375000000e-01,4.266357421875000000e-01,7.659912109375000000e-01
-2.000000000000000000e+01,-5.000000000000000000e+00,-3.000000000000000000e+00,2.100000000000000000e+01,2.000000000000000000e+00,3.000000000000000000e+00,-1.000000000000000000e+00,-2.000000000000000000e+00,-2.655639648437500000e-01,4.007568359375000000e-01,4.266357421875000000e-01,7.659912109375000000e-01
-3.000000000000000000e+00,3.000000000000000000e+00,2.000000000000000000e+01,3.100000000000000000e+01,2.000000000000000000e+00,0.000000000000000000e+00,-3.000000000000000000e+00,-6.000000000000000000e+00,-2.650756835937500000e-01,4.000854492187500000e-01,4.267578125000000000e-01,7.664794921875000000e-01
1.300000000000000000e+01,-2.000000000000000000e+00,-2.200000000000000000e+01,-2.400000000000000000e+01,-5.000000000000000000e+00,-3.000000000000000000e+00,3.000000000000000000e+00,1.400000000000000000e+01,-2.650756835937500000e-01,4.000854492187500000e-01,4.267578125000000000e-01,7.664794921875000000e-01
5.000000000000000000e+00,-1.000000000000000000e+00,-3.000000000000000000e+00,-5.000000000000000000e+00,-3.000000000000000000e+00,-5.000000000000000000e+00,-8.000000000000000000e+00,-1.100000000000000000e+01,-2.650756835937500000e-01,4.000854492187500000e-01,4.267578125000000000e-01,7.664794921875000000e-01
-1.500000000000000000e+01,2.000000000000000000e+00,5.000000000000000000e+00,9.000000000000000000e+00,-3.000000000000000000e+00,-2.000000000000000000e+00,0.000000000000000000e+00,-2.000000000000000000e+00,-2.650756835937500000e-01,4.000854492187500000e-01,4.267578125000000000e-01,7.664794921875000000e-01
1.700000000000000000e+01,6.000000000000000000e+00,3.200000000000000000e+01,3.200000000000000000e+01,8.000000000000000000e+00,-2.000000000000000000e+00,-1.300000000000000000e+01,4.000000000000000000e+00,-2.655639648437500000e-01,3.991699218750000000e-01,4.271240234375000000e-01,7.666015625000000000e-01
2.300000000000000000e+01,-4.000000000000000000e+00,-5.000000000000000000e+00,1.000000000000000000e+00,-2.000000000000000000e+00,1.300000000000000000e+01,1.000000000000000000e+01,3.200000000000000000e+01,-2.655639648437500000e-01,3.991699218750000000e-01,4.271240234375000000e-01,7.666015625000000000e-01
-7.500000000000000000e+01,-7.000000000000000000e+00,3.000000000000000000e+00,-2.000000000000000000e+00,-2.000000000000000000e+00,4.000000000000000000e+00,1.200000000000000000e+01,-4.600000000000000000e+01,-2.655639648437500000e-01,3.991699218750000000e-01,4.271240234375000000e-01,7.666015625000000000e-01
1.500000000000000000e+01,0.000000000000000000e+00,-1.600000000000000000e+01,-2.000000000000000000e+00,3.000000000000000000e+00,0.000000000000000000e+00,0.000000000000000000e+00,-6.000000000000000000e+00,-2.655639648437500000e-01,3.991699218750000000e-01,4.271240234375000000e-01,7.666015625000000000e-01
-2.000000000000000000e+00,4.000000000000000000e+00,-1.000000000000000000e+00,-2.700000000000000000e+01,2.000000000000000000e+00,2.000000000000000000e+00,4.000000000000000000e+00,3.000000000000000000e+00,-2.661132812500000000e-01,3.983764648437500000e-01,4.276123046875000000e-01,7.665405273437500000e-01
2.300000000000000000e+01,1.100000000000000000e+01,4.200000000000000000e+01,1.900000000000000000e+01,0.000000000000000000e+00,-1.000000000000000000e+01,-1.100000000000000000e+01,-3.000000000000000000e+00,-2.661132812500000000e-01,3.983764648437500000e-01,4.276123046875000000e-01,7.665405273437500000e-01
1.300000000000000000e+01,-1.300000000000000000e+01,-6.400000000000000000e+01,-4.100000000000000000e+01,-9.000000000000000000e+00,-6.000000000000000000e+00,-7.000000000000000000e+00,1.600000000000000000e+01,-2.661132812500000000e-01,3.983764648437500000e-01,4.276123046875000000e-01,7.665405273437500000e-01
-8.000000000000000000e+00,-1.000000000000000000e+00,-1.000000000000000000e+00,8.000000000000000000e+00,7.000000000000000000e+00,4.000000000000000000e+00,4.000000000000000000e+00,5.000000000000000000e+00,-2.661132812500000000e-01,3.983764648437500000e-01,4.276123046875000000e-01,7.665405273437500000e-01
-4.000000000000000000e+00,-1.000000000000000000e+01,-1.100000000000000000e+01,-3.000000000000000000e+00,-9.000000000000000000e+00,-1.000000000000000000e+00,-1.000000000000000000e+00,2.000000000000000000e+00,-2.669677734375000000e-01,3.980102539062500000e-01,4.273681640625000000e-01,7.665405273437500000e-01
-4.000000000000000000e+00,2.000000000000000000e+00,-1.100000000000000000e+01,9.000000000000000000e+00,7.000000000000000000e+00,-2.000000000000000000e+00,-2.000000000000000000e+00,-1.500000000000000000e+01,-2.669677734375000000e-01,3.980102539062500000e-01,4.273681640625000000e-01,7.665405273437500000e-01
-7.000000000000000000e+00,6.000000000000000000e+00,4.000000000000000000e+01,6.000000000000000000e+00,-3.000000000000000000e+00,1.000000000000000000e+00,-3.000000000000000000e+00,5.000000000000000000e+00,-2.669677734375000000e-01,3.980102539062500000e-01,4.273681640625000000e-01,7.665405273437500000e-01
-9.000000000000000000e+00,-7.000000000000000000e+00,-1.100000000000000000e+01,-1.700000000000000000e+01,-6.000000000000000000e+00,-5.000000000000000000e+00,-6.000000000000000000e+00,-7.000000000000000000e+00,-2.669677734375000000e-01,3.980102539062500000e-01,4.273681640625000000e-01,7.665405273437500000e-01
6.000000000000000000e+00,-1.000000000000000000e+00,5.000000000000000000e+00,-2.300000000000000000e+01,-9.000000000000000000e+00,-2.000000000000000000e+00,3.000000000000000000e+00,9.000000000000000000e+00,-2.670898437500000000e-01,3.984985351562500000e-01,4.268798828125000000e-01,7.665405273437500000e-01
-1.800000000000000000e+01,-4.000000000000000000e+00,-1.400000000000000000e+01,-4.000000000000000000e+00,3.000000000000000000e+00,2.000000000000000000e+00,3.000000000000000000e+00,-7.000000000000000000e+00,-2.670898437500000000e-01,3.984985351562500000e-01,4.268798828125000000e-01,7.665405273437500000e-01
3.000000000000000000e+01,5.000000000000000000e+00,1.000000000000000000e+01,4.000000000000000000e+00,5.000000000000000000e+00,-4.000000000000000000e+00,-3.000000000000000000e+00,1.500000000000000000e+01,-2.670898437500000000e-01,3.984985351562500000e-01,4.268798828125000000e-01,7.665405273437500000e-01
-2.100000000000000000e+01,-1.000000000000000000e+00,6.000000000000000000e+00,1.800000000000000000e+01,3.000000000000000000e+00,0.000000000000000000e+00,1.000000000000000000e+00,1.700000000000000000e+01,-2.670898437500000000e-01,3.984985351562500000e-01,4.268798828125000000e-01,7.665405273437500000e-01
-8.000000000000000000e+00,-1.000000000000000000e+00,-1.000000000000000000e+01,-8.000000000000000000e+00,-4.000000000000000000e+00,-3.000000000000000000e+00,-5.000000000000000000e+00,-1.700000000000000000e+01,-2.682495117187500000e-01,3.980102539062500000e-01,4.264526367187500000e-01,7.666015625000000000e-01
-1.200000000000000000e+01,-4.000000000000000000e+00,5.000000000000000000e+00,-7.000000000000000000e+00,-4.000000000000000000e+00,2.000000000000000000e+00,-7.000000000000000000e+00,-2.400000000000000000e+01,-2.682495117187500000e-01,3.980102539062500000e-01,4.264526367187500000e-01,7.666015625000000000e-01
6.000000000000000000e+00,3.000000000000000000e+00,-3.000000000000000000e+00,1.200000000000000000e+01,2.000000000000000000e+00,-9.000000000000000000e+00,-8.000000000000000000e+00,2.000000000000000000e+00,-2.682495117187500000e-01,3.980102539062500000e-01,4.264526367187500000e-01,7.666015625000000000e-01
-6.000000000000000000e+00,0.000000000000000000e+00,1.300000000000000000e+01,0.000000000000000000e+00,-5.000000000000000000e+00,1.000000000000000000e+00,-1.000000000000000000e+00,9.000000000000000000e+00,-2.682495117187500000e-01,3.980102539062500000e-01,4.264526367187500000e-01,7.666015625000000000e-01
2.200000000000000000e+01,-4.000000000000000000e+00,-2.100000000000000000e+01,-1.100000000000000000e+01,-4.000000000000000000e+00,-1.000000000000000000e+00,7.000000000000000000e+00,3.000000000000000000e+00,-2.697143554687500000e-01,3.974609375000000000e-01,4.263305664062500000e-01,7.664794921875000000e-01
1.000000000000000000e+01,2.000000000000000000e+00,0.000000000000000000e+00,2.300000000000000000e+01,4.000000000000000000e+00,1.000000000000000000e+00,3.000000000000000000e+00,6.000000000000000000e+01,-2.697143554687500000e-01,3.974609375000000000e-01,4.263305664062500000e-01,7.664794921875000000e-01
-2.600000000000000000e+01,-9.000000000000000000e+00,-4.000000000000000000e+00,-1.800000000000000000e+01,-2.000000000000000000e+00,0.000000000000000000e+00,-5.000000000000000000e+00,-7.400000000000000000e+01,-2.697143554687500000e-01,3.974609375000000000e-01,4.263305664062500000e-01,7.664794921875000000e-01
-2.000000000000000000e+00,5.000000000000000000e+00,1.000000000000000000e+00,1.600000000000000000e+01,2.000000000000000000e+00,-1.000000000000000000e+00,-5.000000000000000000e+00,-4.000000000000000000e+00,-2.697143554687500000e-01,3.974609375000000000e-01,4.263305664062500000e-01,7.664794921875000000e-01
-6.000000000000000000e+00,4.000000000000000000e+00,2.700000000000000000e+01,-1.400000000000000000e+01,-2.000000000000000000e+00,-4.000000000000000000e+00,-8.000000000000000000e+00,-1.800000000000000000e+01,-2.717285156250000000e-01,3.972778320312500000e-01,4.264526367187500000e-01,7.657470703125000000e-01
3.100000000000000000e+01,0.000000000000000000e+00,-1.900000000000000000e+01,-4.000000000000000000e+00,-1.000000000000000000e+00,-1.000000000000000000e+00,4.000000000000000000e+00,1.900000000000000000e+01,-2.717285156250000000e-01,3.972778320312500000e-01,4.264526367187500000e-01,7.657470703125000000e-01
7.000000000000000000e+00,-4.000000000000000000e+00,-4.100000000000000000e+01,2.300000000000000000e+01,2.000000000000000000e+00,3.000000000000000000e+00,4.000000000000000000e+00,2.700000000000000000e+01,-2.717285156250000000e-01,3.972778320312500000e-01,4.264526367187500000e-01,7.657470703125000000e-01
0.000000000000000000e+00,0.000000000000000000e+00,6.000000000000000000e+00,-2.400000000000000000e+01,-3.000000000000000000e+00,-2.000000000000000000e+00,-2.000000000000000000e+00,-1.400000000000000000e+01,-2.717285156250000000e-01,3.972778320312500000e-01,4.264526367187500000e-01,7.657470703125000000e-01
-4.000000000000000000e+00,-1.000000000000000000e+00,-7.000000000000000000e+00,0.000000000000000000e+00,0.000000000000000000e+00,1.000000000000000000e+00,2.000000000000000000e+00,7.000000000000000000e+00,-2.742309570312500000e-01,3.966064453125000000e-01,4.267578125000000000e-01,7.650756835937500000e-01
-8.000000000000000000e+00,-9.000000000000000000e+00,-2.600000000000000000e+01,-2.000000000000000000e+01,-3.000000000000000000e+00,-3.000000000000000000e+00,0.000000000000000000e+00,-1.700000000000000000e+01,-2.742309570312500000e-01,3.966064453125000000e-01,4.267578125000000000e-01,7.650756835937500000e-01
1.500000000000000000e+01,-3.000000000000000000e+00,0.000000000000000000e+00,-5.000000000000000000e+00,-5.000000000000000000e+00,-5.000000000000000000e+00,-2.000000000000000000e+00,2.000000000000000000e+01,-2.742309570312500000e-01,3.966064453125000000e-01,4.267578125000000000e-01,7.650756835937500000e-01
-6.000000000000000000e+00,1.000000000000000000e+00,-1.400000000000000000e+01,-4.000000000000000000e+00,-4.000000000000000000e+00,-7.000000000000000000e+00,-1.000000000000000000e+00,-8.000000000000000000e+00,-2.742309570312500000e-01,3.966064453125000000e-01,4.267578125000000000e-01,7.650756835937500000e-01
1.600000000000000000e+01,1.000000000000000000e+00,-1.000000000000000000e+00,8.000000000000000000e+00,6.000000000000000000e+00,5.000000000000000000e+00,2.000000000000000000e+00,5.000000000000000000e+00,-2.766113281250000000e-01,3.952026367187500000e-01,4.270019531250000000e-01,7.647705078125000000e-01
-8.000000000000000000e+00,4.000000000000000000e+00,2.600000000000000000e+01,1.100000000000000000e+01,-1.000000000000000000e+00,-6.000000000000000000e+00,-5.000000000000000000e+00,-1.300000000000000000e+01,-2.766113281250000000e-01,3.952026367187500000e-01,4.270019531250000000e-01,7.647705078125000000e-01
1.000000000000000000e+01,2.000000000000000000e+00,1.000000000000000000e+01,-3.000000000000000000e+00,-3.000000000000000000e+00,8.000000000000000000e+00,2.000000000000000000e+00,8.000000000000000000e+00,-2.766113281250000000e-01,3.952026367187500000e-01,4.270019531250000000e-01,7.647705078125000000e-01
-9.000000000000000000e+00,-1.000000000000000000e+00,6.000000000000000000e+00,2.200000000000000000e+01,2.000000000000000000e+00,-7.000000000000000000e+00,-7.000000000000000000e+00,4.000000000000000000e+00,-2.766113281250000000e-01,3.952026367187500000e-01,4.270019531250000000e-01,7.647705078125000000e-01
-5.000000000000000000e+00,-2.000000000000000000e+00,-1.800000000000000000e+01,-6.000000000000000000e+00,3.000000000000000000e+00,8.000000000000000000e+00,1.800000000000000000e+01,-5.000000000000000000e+00,-2.783813476562500000e-01,3.932495117187500000e-01,4.273071289062500000e-01,7.649536132812500000e-01
-6.000000000000000000e+00,1.000000000000000000e+00,-8.000000000000000000e+00,2.000000000000000000e+00,-2.000000000000000000e+00,-9.000000000000000000e+00,-1.700000000000000000e+01,-2.400000000000000000e+01,-2.783813476562500000e-01,3.932495117187500000e-01,4.273071289062500000e-01,7.649536132812500000e-01
6.000000000000000000e+00,7.000000000000000000e+00,4.500000000000000000e+01,-1.000000000000000000e+00,0.000000000000000000e+00,4.000000000000000000e+00,3.000000000000000000e+00,1.500000000000000000e+01,-2.783813476562500000e-01,3.932495117187500000e-01,4.273071289062500000e-01,7.649536132812500000e-01
1.100000000000000000e+01,-1.500000000000000000e+01,-4.700000000000000000e+01,-3.300000000000000000e+01,-9.000000000000000000e+00,-2.000000000000000000e+00,-2.000000000000000000e+00,1.000000000000000000e+01,-2.783813476562500000e-01,3.932495117187500000e-01,4.273071289062500000e-01,7.649536132812500000e-01
-1.000000000000000000e+01,-3.000000000000000000e+00,-1.400000000000000000e+01,3.000000000000000000e+00,-2.000000000000000000e+00,-6.000000000000000000e+00,-5.000000000000000000e+00,-3.000000000000000000e+00,-2.786865234375000000e-01,3.914794921875000000e-01,4.272460937500000000e-01,7.658081054687500000e-01
-2.100000000000000000e+01,-8.000000000000000000e+00,-1.300000000000000000e+01,1.200000000000000000e+01,0.000000000000000000e+00,-1.000000000000000000e+00,3.000000000000000000e+00,-1.500000000000000000e+01,-2.786865234375000000e-01,3.914794921875000000e-01,4.272460937500000000e-01,7.658081054687500000e-01
-2.000000000000000000e+00,4.000000000000000000e+00,1.300000000000000000e+01,1.600000000000000000e+01,2.000000000000000000e+00,-5.000000000000000000e+00,-4.000000000000000000e+00,6.000000000000000000e+00,-2.786865234375000000e-01,3.914794921875000000e-01,4.272460937500000000e-01,7.658081054687500000e-01
6.000000000000000000e+00,7.000000000000000000e+00,1.000000000000000000e+00,-2.200000000000000000e+01,1.000000000000000000e+00,6.000000000000000000e+00,5.000000000000000000e+00,1.000000000000000000e+00,-2.786865234375000000e-01,3.914794921875000000e-01,4.272460937500000000e-01,7.658081054687500000e-01
-1.100000000000000000e+01,-1.300000000000000000e+01,1.500000000000000000e+01,7.000000000000000000e+00,-6.000000000000000000e+00,-4.000000000000000000e+00,-4.000000000000000000e+00,-3.000000000000000000e+00,-2.778930664062500000e-01,3.907470703125000000e-01,4.270629882812500000e-01,7.666015625000000000e-01
1.000000000000000000e+00,-1.000000000000000000e+00,1.300000000000000000e+01,-1.200000000000000000e+01,-1.000000000000000000e+00,2.000000000000000000e+00,4.000000000000000000e+00,3.000000000000000000e+00,-2.778930664062500000e-01,3.907470703125000000e-01,4.270629882812500000e-01,7.666015625000000000e-01
9.000000000000000000e+00,4.000000000000000000e+00,1.500000000000000000e+01,0.000000000000000000e+00,0.000000000000000000e+00,-1.000000000000000000e+00,-3.000000000000000000e+00,7.000000000000000000e+00,-2.778930664062500000e-01,3.907470703125000000e-01,4.270629882812500000e-01,7.666015625000000000e-01
-7.000000000000000000e+00,-8.000000000000000000e+00,-4.000000000000000000e+00,1.700000000000000000e+01,0.000000000000000000e+00,-1.000000000000000000e+00,-1.000000000000000000e+00,-1.600000000000000000e+01,-2.778930664062500000e-01,3.907470703125000000e-01,4.270629882812500000e-01,7.666015625000000000e-01
2.000000000000000000e+00,9.000000000000000000e+00,1.000000000000000000e+00,-8.000000000000000000e+00,0.000000000000000000e+00,-4.000000000000000000e+00,-4.000000000000000000e+00,3.000000000000000000e+00,-2.779541015625000000e-01,3.892822265625000000e-01,4.283447265625000000e-01,7.666015625000000000e-01
-9.000000000000000000e+00,2.000000000000000000e+00,1.800000000000000000e+01,0.000000000000000000e+00,-3.000000000000000000e+00,-3.000000000000000000e+00,-1.000000000000000000e+00,-6.000000000000000000e+00,-2.779541015625000000e-01,3.892822265625000000e-01,4.283447265625000000e-01,7.666015625000000000e-01
-5.000000000000000000e+00,-4.000000000000000000e+00,-1.800000000000000000e+01,-5.000000000000000000e+00,-3.000000000000000000e+00,-5.000000000000000000e+00,-4.000000000000000000e+00,-1.000000000000000000e+00,-2.779541015625000000e-01,3.892822265625000000e-01,4.283447265625000000e-01,7.666015625000000000e-01
3.000000000000000000e+00,-1.000000000000000000e+00,4.000000000000000000e+00,-2.400000000000000000e+01,-1.000000000000000000e+01,-5.000000000000000000e+00,-1.000000000000000000e+00,-2.000000000000000000e+00,-2.779541015625000000e-01,3.892822265625000000e-01,4.283447265625000000e-01,7.666015625000000000e-01
6.000000000000000000e+00,5.000000000000000000e+00,-2.000000000000000000e+00,6.200000000000000000e+01,8.000000000000000000e+00,-2.000000000000000000e+00,-1.100000000000000000e+01,1.000000000000000000e+01,-2.785034179687500000e-01,3.880615234375000000e-01,4.290161132812500000e-01,7.666015625000000000e-01
-2.400000000000000000e+01,5.000000000000000000e+00,1.000000000000000000e+01,-2.400000000000000000e+01,-1.000000000000000000e+00,1.700000000000000000e+01,2.200000000000000000e+01,-1.900000000000000000e+01,-2.785034179687500000e-01,3.880615234375000000e-01,4.290161132812500000e-01,7.666015625000000000e-01
-7.000000000000000000e+00,-6.000000000000000000e+00,-8.000000000000000000e+00,3.000000000000000000e+00,3.000000000000000000e+00,2.000000000000000000e+00,-3.000000000000000000e+00,4.000000000000000000e+00,-2.785034179687500000e-01,3.880615234375000000e-01,4.290161132812500000e-01,7.666015625000000000e-01
0.000000000000000000e+00,1.000000000000000000e+00,4.000000000000000000e+00,-2.000000000000000000e+00,3.000000000000000000e+00,8.000000000000000000e+00,-5.000000000000000000e+00,-1.300000000000000000e+01,-2.785034179687500000e-01,3.880615234375000000e-01,4.290161132812500000e-01,7.666015625000000000e-01
-1.000000000000000000e+00,-2.000000000000000000e+00,-2.000000000000000000e+00,-1.400000000000000000e+01,-9.000000000000000000e+00,-1.000000000000000000e+01,-1.000000000000000000e+00,2.000000000000000000e+00,-2.772827148437500000e-01,3.875732421875000000e-01,4.292602539062500000e-01,7.671508789062500000e-01
5.000000000000000000e+00,-1.000000000000000000e+00,-1.600000000000000000e+01,7.000000000000000000e+00,0.000000000000000000e+00,-7.000000000000000000e+00,-1.000000000000000000e+01,-1.000000000000000000e+00,-2.772827148437500000e-01,3.875732421875000000e-01,4.292602539062500000e-01,7.671508789062500000e-01
-2.000000000000000000e+00,-4.000000000000000000e+00,-1.900000000000000000e+01,-1.500000000000000000e+01,-4.000000000000000000e+00,-3.000000000000000000e+00,3.000000000000000000e+00,3.000000000000000000e+00,-2.772827148437500000e-01,3.875732421875000000e-01,4.292602539062500000e-01,7.671508789062500000e-01
3.000000000000000000e+00,6.000000000000000000e+00,4.600000000000000000e+01,5.300000000000000000e+01,1.100000000000000000e+01,3.000000000000000000e+00,9.000000000000000000e+00,3.000000000000000000e+00,-2.772827148437500000e-01,3.875732421875000000e-01,4.292602539062500000e-01,7.671508789062500000e-01
2.000000000000000000e+00,-9.000000000000000000e+00,-4.400000000000000000e+01,-2.100000000000000000e+01,-1.000000000000000000e+01,-1.000000000000000000e+00,-1.000000000000000000e+00,-1.000000000000000000e+00,-2.763671875000000000e-01,3.873901367187500000e-01,4.297485351562500000e-01,7.673339843750000000e-01
-1.000000000000000000e+01,-2.000000000000000000e+00,-1.000000000000000000e+01,-1.000000000000000000e+01,-1.000000000000000000e+00,0.000000000000000000e+00,1.000000000000000000e+00,-2.000000000000000000e+00,-2.763671875000000000e-01,3.873901367187500000e-01,4.297485351562500000e-01,7.673339843750000000e-01
-4.000000000000000000e+00,3.000000000000000000e+00,1.800000000000000000e+01,9.000000000000000000e+00,1.000000000000000000e+00,-2.000000000000000000e+00,-3.000000000000000000e+00,-1.000000000000000000e+00,-2.763671875000000000e-01,3.873901367187500000e-01,4.297485351562500000e-01,7.673339843750000000e-01
-1.000000000000000000e+00,-2.000000000000000000e+00,-1.500000000000000000e+01,-2.300000000000000000e+01,-1.000000000000000000e+00,-1.000000000000000000e+00,-2.000000000000000000e+00,4.000000000000000000e+00,-2.763671875000000000e-01,3.873901367187500000e-01,4.297485351562500000e-01,7.673339843750000000e-01
-1.200000000000000000e+01,3.000000000000000000e+00,5.000000000000000000e+01,6.300000000000000000e+01,1.100000000000000000e+01,2.000000000000000000e+00,0.000000000000000000e+00,-8.000000000000000000e+00,-2.761230468750000000e-01,3.868408203125000000e-01,4.309692382812500000e-01,7.670288085937500000e-01
2.000000000000000000e+00,-9.000000000000000000e+00,-1.000000000000000000e+00,-1.800000000000000000e+01,-5.000000000000000000e+00,-3.000000000000000000e+00,-3.000000000000000000e+00,6.000000000000000000e+00,-2.761230468750000000e-01,3.868408203125000000e-01,4.309692382812500000e-01,7.670288085937500000e-01
3.500000000000000000e+01,4.000000000000000000e+00,-9.000000000000000000e+00,3.000000000000000000e+00,-1.000000000000000000e+00,-2.000000000000000000e+00,-1.000000000000000000e+00,-1.000000000000000000e+00,-2.761230468750000000e-01,3.868408203125000000e-01,4.309692382812500000e-01,7.670288085937500000e-01
-1.000000000000000000e+00,0.000000000000000000e+00,3.000000000000000000e+00,-1.800000000000000000e+01,-5.000000000000000000e+00,-2.000000000000000000e+00,1.000000000000000000e+00,-6.000000000000000000e+00,-2.761230468750000000e-01,3.868408203125000000e-01,4.309692382812500000e-01,7.670288085937500000e-01
6.000000000000000000e+00,8.000000000000000000e+00,4.000000000000000000e+00,-1.000000000000000000e+01,-4.000000000000000000e+00,-3.000000000000000000e+00,-3.000000000000000000e+00,5.000000000000000000e+00,-2.770385742187500000e-01,3.856811523437500000e-01,4.318237304687500000e-01,7.667846679687500000e-01
-1.600000000000000000e+01,-3.000000000000000000e+00,-6.000000000000000000e+00,-7.000000000000000000e+00,-2.000000000000000000e+00,-6.000000000000000000e+00,-1.000000000000000000e+00,-5.000000000000000000e+00,-2.770385742187500000e-01,3.856811523437500000e-01,4.318237304687500000e-01,7.667846679687500000e-01
-7.000000000000000000e+00,-3.000000000000000000e+00,5.000000000000000000e+00,1.700000000000000000e+01,3.000000000000000000e+00,3.000000000000000000e+00,3.000000000000000000e+00,-3.000000000000000000e+00,-2.770385742187500000e-01,3.856811523437500000e-01,4.318237304687500000e-01,7.667846679687500000e-01
1.000000000000000000e+01,1.000000000000000000e+00,-2.100000000000000000e+01,-2.800000000000000000e+01,-3.000000000000000000e+00,4.000000000000000000e+00,1.500000000000000000e+01,1.100000000000000000e+01,-2.770385742187500000e-01,3.856811523437500000e-01,4.318237304687500000e-01,7.667846679687500000e-01
-1.000000000000000000e+01,0.000000000000000000e+00,5.000000000000000000e+01,2.500000000000000000e+01,-3.000000000000000000e+00,-5.000000000000000000e+00,-1.300000000000000000e+01,-1.100000000000000000e+01,-2.771606445312500000e-01,3.846435546875000000e-01,4.321899414062500000e-01,7.670288085937500000e-01
2.900000000000000000e+01,0.000000000000000000e+00,-4.000000000000000000e+00,1.100000000000000000e+01,0.000000000000000000e+00,0.000000000000000000e+00,-3.000000000000000000e+00,3.000000000000000000e+00,-2.771606445312500000e-01,3.846435546875000000e-01,4.321899414062500000e-01,7.670288085937500000e-01
-5.000000000000000000e+00,-4.000000000000000000e+00,-5.200000000000000000e+01,-3.200000000000000000e+01,-1.000000000000000000e+01,-3.000000000000000000e+00,-1.000000000000000000e+00,-1.400000000000000000e+01,-2.771606445312500000e-01,3.846435546875000000e-01,4.321899414062500000e-01,7.670288085937500000e-01
-5.000000000000000000e+00,2.000000000000000000e+00,1.000000000000000000e+00,-2.000000000000000000e+00,1.000000000000000000e+00,0.000000000000000000e+00,0.000000000000000000e+00,-1.000000000000000000e+00,-2.771606445312500000e-01,3.846435546875000000e-01,4.321899414062500000e-01,7.670288085937500000e-01
-8.000000000000000000e+00,-1.000000000000000000e+01,-7.000000000000000000e+00,-3.200000000000000000e+01,-5.000000000000000000e+00,0.000000000000000000e+00,3.000000000000000000e+00,-4.000000000000000000e+00,-2.760620117187500000e-01,3.846435546875000000e-01,4.324340820312500000e-01,7.672729492187500000e-01
-1.000000000000000000e+00,3.000000000000000000e+00,2.200000000000000000e+01,4.000000000000000000e+00,0.000000000000000000e+00,-3.000000000000000000e+00,-8.000000000000000000e+00,-5.000000000000000000e+00,-2.760620117187500000e-01,3.846435546875000000e-01,4.324340820312500000e-01,7.672729492187500000e-01
1.100000000000000000e+01,0.000000000000000000e+00,-8.000000000000000000e+00,7.000000000000000000e+00,0.000000000000000000e+00,-1.000000000000000000e+00,0.000000000000000000e+00,2.000000000000000000e+00,-2.760620117187500000e-01,3.846435546875000000e-01,4.324340820312500000e-01,7.672729492187500000e-01
6.000000000000000000e+00,0.000000000000000000e+00,4.000000000000000000e+00,-2.000000000000000000e+00,1.000000000000000000e+00,-4.000000000000000000e+00,-4.000000000000000000e+00,-3.000000000000000000e+00,-2.760620117187500000e-01,3.846435546875000000e-01,4.324340820312500000e-01,7.672729492187500000e-01
3.000000000000000000e+00,2.000000000000000000e+00,-4.000000000000000000e+00,5.000000000000000000e+00,1.000000000000000000e+00,0.000000000000000000e+00,0.000000000000000000e+00,-1.000000000000000000e+00,-2.749633789062500000e-01,3.845825195312500000e-01,4.326782226562500000e-01,7.675781250000000000e-01
-2.000000000000000000e+00,-1.000000000000000000e+00,-1.000000000000000000e+00,7.000000000000000000e+00,2.000000000000000000e+00,2.000000000000000000e+00,-1.000000000000000000e+00,-1.000000000000000000e+00,-2.749633789062500000e-01,3.845825195312500000e-01,4.326782226562500000e-01,7.675781250000000000e-01
-1.200000000000000000e+01,1.000000000000000000e+00,3.400000000000000000e+01,6.000000000000000000e+00,0.000000000000000000e+00,0.000000000000000000e+00,1.000000000000000000e+00,1.000000000000000000e+00,-2.749633789062500000e-01,3.845825195312500000e-01,4.326782226562500000e-01,7.675781250000000000e-01
-6.000000000000000000e+00,-4.000000000000000000e+00,-3.300000000000000000e+01,-1.000000000000000000e+01,-7.000000000000000000e+00,-3.000000000000000000e+00,-8.000000000000000000e+00,-2.000000000000000000e+00,-2.749633789062500000e-01,3.845825195312500000e-01,4.326782226562500000e-01,7.675781250000000000e-01
-1.000000000000000000e+00,-1.000000000000000000e+00,-6.000000000000000000e+00,-8.000000000000000000e+00,1.000000000000000000e+00,2.000000000000000000e+00,2.000000000000000000e+00,2.000000000000000000e+00,-2.736206054687500000e-01,3.843994140625000000e-01,4.331665039062500000e-01,7.678833007812500000e-01
2.000000000000000000e+00,-5.000000000000000000e+00,-2.900000000000000000e+01,-3.000000000000000000e+01,-3.000000000000000000e+00,0.000000000000000000e+00,3.000000000000000000e+00,4.000000000000000000e+00,-2.736206054687500000e-01,3.843994140625000000e-01,4.331665039062500000e-01,7.678833007812500000e-01
-1.700000000000000000e+01,2.000000000000000000e+00,5.500000000000000000e+01,3.300000000000000000e+01,1.000000000000000000e+00,-6.000000000000000000e+00,-2.000000000000000000e+00,-6.000000000000000000e+00,-2.736206054687500000e-01,3.843994140625000000e-01,4.331665039062500000e-01,7.678833007812500000e-01
-3.000000000000000000e+00,-3.000000000000000000e+00,4.000000000000000000e+00,2.600000000000000000e+01,3.000000000000000000e+00,1.000000000000000000e+00,2.000000000000000000e+00,-1.000000000000000000e+00,-2.736206054687500000e-01,3.843994140625000000e-01,4.331665039062500000e-01,7.678833007812500000e-01
1.200000000000000000e+01,0.000000000000000000e+00,-6.000000000000000000e+01,-4.900000000000000000e+01,-7.000000000000000000e+00,0.000000000000000000e+00,-1.000000000000000000e+00,3.000000000000000000e+00,-2.725830078125000000e-01,3.840942382812500000e-01,4.337768554687500000e-01,7.680664062500000000e-01
-9.000000000000000000e+00,2.000000000000000000e+00,2.900000000000000000e+01,2.100000000000000000e+01,2.000000000000000000e+00,-5.000000000000000000e+00,-4.000000000000000000e+00,-2.000000000000000000e+00,-2.725830078125000000e-01,3.840942382812500000e-01,4.337768554687500000e-01,7.680664062500000000e-01
-7.000000000000000000e+00,-1.100000000000000000e+01,-4.300000000000000000e+01,-2.100000000000000000e+01,-2.000000000000000000e+00,9.000000000000000000e+00,4.000000000000000000e+00,0.000000000000000000e+00,-2.725830078125000000e-01,3.840942382812500000e-01,4.337768554687500000e-01,7.680664062500000000e-01
2.300000000000000000e+01,-5.000000000000000000e+00,-9.000000000000000000e+00,1.800000000000000000e+01,0.000000000000000000e+00,0.000000000000000000e+00,-2.000000000000000000e+00,9.000000000000000000e+00,-2.725830078125000000e-01,3.840942382812500000e-01,4.337768554687500000e-01,7.680664062500000000e-01
-2.200000000000000000e+01,-4.000000000000000000e+00,-2.200000000000000000e+01,-2.100000000000000000e+01,0.000000000000000000e+00,-1.000000000000000000e+00,0.000000000000000000e+00,-5.000000000000000000e+00,-2.720336914062500000e-01,3.834838867187500000e-01,4.342041015625000000e-01,7.683105468750000000e-01
0.000000000000000000e+00,2.000000000000000000e+00,-1.200000000000000000e+01,1.000000000000000000e+00,-3.000000000000000000e+00,-5.000000000000000000e+00,-2.000000000000000000e+00,3.000000000000000000e+00,-2.720336914062500000e-01,3.834838867187500000e-01,4.342041015625000000e-01,7.683105468750000000e-01
3.000000000000000000e+00,4.000000000000000000e+00,1.500000000000000000e+01,1.000000000000000000e+00,-2.000000000000000000e+00,-6.000000000000000000e+00,-4.000000000000000000e+00,0.000000000000000000e+00,-2.720336914062500000e-01,3.834838867187500000e-01,4.342041015625000000e-01,7.683105468750000000e-01
0.000000000000000000e+00,-1.000000000000000000e+00,8.000000000000000000e+00,0.000000000000000000e+00,1.000000000000000000e+00,2.000000000000000000e+00,0.000000000000000000e+00,0.000000000000000000e+00,-2.720336914062500000e-01,3.834838867187500000e-01,4.342041015625000000e-01,7.683105468750000000e-01
1.000000000000000000e+00,-2.000000000000000000e+00,0.000000000000000000e+00,0.000000000000000000e+00,3.000000000000000000e+00,3.000000000000000000e+00,4.000000000000000000e+00,4.000000000000000000e+00,-2.718505859375000000e-01,3.827514648437500000e-01,4.339599609375000000e-01,7.688598632812500000e-01
-1.000000000000000000e+00,3.000000000000000000e+00,0.000000000000000000e+00,2.800000000000000000e+01,-2.000000000000000000e+00,-3.000000000000000000e+00,0.000000000000000000e+00,-3.000000000000000000e+00,-2.718505859375000000e-01,3.827514648437500000e-01,4.339599609375000000e-01,7.688598632812500000e-01
-1.300000000000000000e+01,1.000000000000000000e+00,2.000000000000000000e+00,-3.700000000000000000e+01,-6.000000000000000000e+00,-4.000000000000000000e+00,-1.400000000000000000e+01,-1.000000000000000000e+00,-2.718505859375000000e-01,3.827514648437500000e-01,4.339599609375000000e-01,7.688598632812500000e-01
-9.000000000000000000e+00,-4.000000000000000000e+00,-1.200000000000000000e+01,-7.000000000000000000e+00,-3.000000000000000000e+00,0.000000000000000000e+00,-4.000000000000000000e+00,-4.000000000000000000e+00,-2.718505859375000000e-01,3.827514648437500000e-01,4.339599609375000000e-01,7.688598632812500000e-01
-3.000000000000000000e+00,-1.000000000000000000e+00,7.000000000000000000e+00,-1.000000000000000000e+01,-2.000000000000000000e+00,-4.000000000000000000e+00,0.000000000000000000e+00,4.000000000000000000e+00,-2.708129882812500000e-01,3.826293945312500000e-01,4.333496093750000000e-01,7.696533203125000000e-01
3.000000000000000000e+00,0.000000000000000000e+00,2.600000000000000000e+01,0.000000000000000000e+00,-1.000000000000000000e+00,2.000000000000000000e+00,0.000000000000000000e+00,-8.000000000000000000e+00,-2.708129882812500000e-01,3.826293945312500000e-01,4.333496093750000000e-01,7.696533203125000000e-01
-5.000000000000000000e+00,0.000000000000000000e+00,-2.300000000000000000e+01,-1.000000000000000000e+00,-1.000000000000000000e+00,-3.000000000000000000e+00,1.000000000000000000e+00,-2.000000000000000000e+00,-2.708129882812500000e-01,3.826293945312500000e-01,4.333496093750000000e-01,7.696533203125000000e-01
0.000000000000000000e+00,-1.000000000000000000e+00,9.000000000000000000e+00,1.800000000000000000e+01,2.000000000000000000e+00,-5.000000000000000000e+00,-1.000000000000000000e+00,-4.000000000000000000e+00,-2.708129882812500000e-01,3.826293945312500000e-01,4.333496093750000000e-01,7.696533203125000000e-01
-8.000000000000000000e+00,-1.000000000000000000e+00,1.400000000000000000e+01,-2.000000000000000000e+00,2.000000000000000000e+00,-9.000000000000000000e+00,-2.000000000000000000e+01,-3.000000000000000000e+00,-2.703857421875000000e-01,3.824462890625000000e-01,4.329833984375000000e-01,7.701416015625000000e-01
-1.200000000000000000e+01,-7.000000000000000000e+00,-1.000000000000000000e+01,-2.300000000000000000e+01,-8.000000000000000000e+00,1.000000000000000000e+01,1.700000000000000000e+01,-2.000000000000000000e+00,-2.703857421875000000e-01,3.824462890625000000e-01,4.329833984375000000e-01,7.701416015625000000e-01
-6.000000000000000000e+00,1.000000000000000000e+00,8.000000000000000000e+00,1.000000000000000000e+01,-2.000000000000000000e+00,1.000000000000000000e+00,7.000000000000000000e+00,3.000000000000000000e+00,-2.703857421875000000e-01,3.824462890625000000e-01,4.329833984375000000e-01,7.701416015625000000e-01
7.000000000000000000e+00,0.000000000000000000e+00,-4.000000000000000000e+00,-2.600000000000000000e+01,0.000000000000000000e+00,3.000000000000000000e+00,0.000000000000000000e+00,1.000000000000000000e+00,-2.703857421875000000e-01,3.824462890625000000e-01,4.329833984375000000e-01,7.701416015625000000e-01
0.000000000000000000e+00,2.000000000000000000e+00,2.000000000000000000e+01,6.200000000000000000e+01,0.000000000000000000e+00,-2.000000000000000000e+00,3.000000000000000000e+00,-5.000000000000000000e+00,-2.703857421875000000e-01,3.822631835937500000e-01,4.332275390625000000e-01,7.700195312500000000e-01
6.000000000000000000e+00,0.000000000000000000e+00,-2.000000000000000000e+00,-1.900000000000000000e+01,-1.000000000000000000e+00,-6.000000000000000000e+00,-1.000000000000000000e+01,1.000000000000000000e+00,-2.703857421875000000e-01,3.822631835937500000e-01,4.332275390625000000e-01,7.700195312500000000e-01
-2.000000000000000000e+00,1.000000000000000000e+00,-2.000000000000000000e+00,1.000000000000000000e+00,1.000000000000000000e+00,-1.000000000000000000e+00,-1.000000000000000000e+00,0.000000000000000000e+00,-2.703857421875000000e-01,3.822631835937500000e-01,4.332275390625000000e-01,7.700195312500000000e-01
-1.900000000000000000e+01,0.000000000000000000e+00,1.200000000000000000e+01,-2.200000000000000000e+01,-3.000000000000000000e+00,2.000000000000000000e+00,2.000000000000000000e+00,0.000000000000000000e+00,-2.703857421875000000e-01,3.822631835937500000e-01,4.332275390625000000e-01,7.700195312500000000e-01
2.500000000000000000e+01,0.000000000000000000e+00,-1.300000000000000000e+01,-4.000000000000000000e+00,-2.000000000000000000e+00,0.000000000000000000e+00,1.000000000000000000e+00,2.000000000000000000e+00,-2.705078125000000000e-01,3.820800781250000000e-01,4.335327148437500000e-01,7.699584960937500000e-01
-3.500000000000000000e+01,-1.000000000000000000e+01,-2.600000000000000000e+01,-5.000000000000000000e+00,1.000000000000000000e+00,1.000000000000000000e+00,-2.000000000000000000e+00,-1.000000000000000000e+00,-2.705078125000000000e-01,3.820800781250000000e-01,4.335327148437500000e-01,7.699584960937500000e-01
0.000000000000000000e+00,-1.000000000000000000e+00,1.000000000000000000e+00,1.400000000000000000e+01,-1.000000000000000000e+00,-2.000000000000000000e+00,-1.000000000000000000e+00,1.000000000000000000e+00,-2.705078125000000000e-01,3.820800781250000000e-01,4.335327148437500000e-01,7.699584960937500000e-01
-1.000000000000000000e+00,5.000000000000000000e+00,-1.000000000000000000e+00,-1.100000000000000000e+01,-2.000000000000000000e+00,-1.000000000000000000e+00,-1.000000000000000000e+00,-1.300000000000000000e+01,-2.705078125000000000e-01,3.820800781250000000e-01,4.335327148437500000e-01,7.699584960937500000e-01
4.000000000000000000e+00,-2.000000000000000000e+00,0.000000000000000000e+00,-1.000000000000000000e+00,0.000000000000000000e+00,5.000000000000000000e+00,1.000000000000000000e+00,-4.000000000000000000e+00,-2.703857421875000000e-01,3.821411132812500000e-01,4.333496093750000000e-01,7.700805664062500000e-01
7.000000000000000000e+00,6.000000000000000000e+00,3.000000000000000000e+00,-4.000000000000000000e+00,-1.000000000000000000e+00,1.000000000000000000e+00,-4.000000000000000000e+00,-6.000000000000000000e+00,-2.703857421875000000e-01,3.821411132812500000e-01,4.333496093750000000e-01,7.700805664062500000e-01
5.000000000000000000e+00,-5.000000000000000000e+00,-3.000000000000000000e+01,-1.300000000000000000e+01,-3.000000000000000000e+00,-2.000000000000000000e+00,-2.000000000000000000e+00,2.000000000000000000e+00,-2.703857421875000000e-01,3.821411132812500000e-01,4.333496093750000000e-01,7.700805664062500000e-01
-1.300000000000000000e+01,-3.000000000000000000e+00,1.700000000000000000e+01,2.200000000000000000e+01,1.000000000000000000e+00,-5.000000000000000000e+00,-5.000000000000000000e+00,2.000000000000000000e+00,-2.703857421875000000e-01,3.821411132812500000e-01,4.333496093750000000e-01,7.700805664062500000e-01
5.000000000000000000e+00,1.000000000000000000e+00,8.000000000000000000e+00,-1.000000000000000000e+01,-1.000000000000000000e+00,4.000000000000000000e+00,4.000000000000000000e+00,-5.000000000000000000e+00,-2.697143554687500000e-01,3.828125000000000000e-01,4.328002929687500000e-01,7.702636718750000000e-01
6.000000000000000000e+00,-2.000000000000000000e+00,-1.000000000000000000e+01,1.200000000000000000e+01,1.000000000000000000e+00,0.000000000000000000e+00,0.000000000000000000e+00,8.000000000000000000e+00,-2.697143554687500000e-01,3.828125000000000000e-01,4.328002929687500000e-01,7.702636718750000000e-01
1.000000000000000000e+00,0.000000000000000000e+00,1.100000000000000000e+01,-5.000000000000000000e+00,2.000000000000000000e+00,-1.000000000000000000e+00,-1.000000000000000000e+00,-6.000000000000000000e+00,-2.697143554687500000e-01,3.828125000000000000e-01,4.328002929687500000e-01,7.702636718750000000e-01
7.000000000000000000e+00,-4.000000000000000000e+00,1.000000000000000000e+01,3.000000000000000000e+00,-4.000000000000000000e+00,-2.000000000000000000e+00,-5.000000000000000000e+00,0.000000000000000000e+00,-2.697143554687500000e-01,3.828125000000000000e-01,4.328002929687500000e-01,7.702636718750000000e-01
-5.000000000000000000e+00,-5.000000000000000000e+00,-1.400000000000000000e+01,-2.500000000000000000e+01,0.000000000000000000e+00,0.000000000000000000e+00,4.000000000000000000e+00,2.000000000000000000e+00,-2.687377929687500000e-01,3.835449218750000000e-01,4.325561523437500000e-01,7.703857421875000000e-01
4.000000000000000000e+00,4.000000000000000000e+00,1.200000000000000000e+01,-1.300000000000000000e+01,-7.000000000000000000e+00,-5.000000000000000000e+00,-2.000000000000000000e+00,-3.000000000000000000e+00,-2.687377929687500000e-01,3.835449218750000000e-01,4.325561523437500000e-01,7.703857421875000000e-01
-1.000000000000000000e+00,1.000000000000000000e+00,1.000000000000000000e+00,2.100000000000000000e+01,1.000000000000000000e+00,0.000000000000000000e+00,0.000000000000000000e+00,2.000000000000000000e+00,-2.687377929687500000e-01,3.835449218750000000e-01,4.325561523437500000e-01,7.703857421875000000e-01
-1.000000000000000000e+00,-4.000000000000000000e+00,-2.800000000000000000e+01,-4.000000000000000000e+00,-2.000000000000000000e+00,1.000000000000000000e+00,1.000000000000000000e+00,0.000000000000000000e+00,-2.687377929687500000e-01,3.835449218750000000e-01,4.325561523437500000e-01,7.703857421875000000e-01
-9.000000000000000000e+00,-2.000000000000000000e+00,3.500000000000000000e+01,4.600000000000000000e+01,1.100000000000000000e+01,0.000000000000000000e+00,1.000000000000000000e+00,-2.000000000000000000e+00,-2.684326171875000000e-01,3.836059570312500000e-01,4.322509765625000000e-01,7.706298828125000000e-01
1.600000000000000000e+01,-2.000000000000000000e+00,-1.300000000000000000e+01,-2.500000000000000000e+01,-6.000000000000000000e+00,-1.000000000000000000e+00,-3.000000000000000000e+00,8.000000000000000000e+00,-2.684326171875000000e-01,3.836059570312500000e-01,4.322509765625000000e-01,7.706298828125000000e-01
-4.000000000000000000e+00,0.000000000000000000e+00,7.000000000000000000e+00,-1.000000000000000000e+01,-4.000000000000000000e+00,-4.000000000000000000e+00,0.000000000000000000e+00,8.000000000000000000e+00,-2.684326171875000000e-01,3.836059570312500000e-01,4.322509765625000000e-01,7.706298828125000000e-01
3.000000000000000000e+00,5.000000000000000000e+00,2.000000000000000000e+00,3.500000000000000000e+01,7.000000000000000000e+00,2.000000000000000000e+00,1.000000000000000000e+00,-1.300000000000000000e+01,-2.684326171875000000e-01,3.836059570312500000e-01,4.322509765625000000e-01,7.706298828125000000e-01
-1.500000000000000000e+01,-1.000000000000000000e+00,9.000000000000000000e+00,-1.000000000000000000e+01,-3.000000000000000000e+00,2.000000000000000000e+00,4.000000000000000000e+00,1.600000000000000000e+01,-2.683105468750000000e-01,3.831787109375000000e-01,4.316406250000000000e-01,7.712402343750000000e-01
2.800000000000000000e+01,1.000000000000000000e+01,4.900000000000000000e+01,1.700000000000000000e+01,5.000000000000000000e+00,-1.000000000000000000e+00,-5.000000000000000000e+00,-2.800000000000000000e+01,-2.683105468750000000e-01,3.831787109375000000e-01,4.316406250000000000e-01,7.712402343750000000e-01
-9.000000000000000000e+00,-1.100000000000000000e+01,-6.500000000000000000e+01,-3.800000000000000000e+01,-1.100000000000000000e+01,-3.000000000000000000e+00,-3.000000000000000000e+00,3.000000000000000000e+00,-2.683105468750000000e-01,3.831787109375000000e-01,4.316406250000000000e-01,7.712402343750000000e-01
2.700000000000000000e+01,5.000000000000000000e+00,1.600000000000000000e+01,-2.000000000000000000e+01,-9.000000000000000000e+00,-6.000000000000000000e+00,-2.000000000000000000e+00,1.200000000000000000e+01,-2.683105468750000000e-01,3.831787109375000000e-01,4.316406250000000000e-01,7.712402343750000000e-01
-5.300000000000000000e+01,-1.300000000000000000e+01,-1.200000000000000000e+01,4.600000000000000000e+01,3.000000000000000000e+00,0.000000000000000000e+00,1.000000000000000000e+00,1.000000000000000000e+00,-2.678833007812500000e-01,3.828735351562500000e-01,4.304809570312500000e-01,7.721557617187500000e-01
7.000000000000000000e+00,2.000000000000000000e+00,-1.600000000000000000e+01,-4.300000000000000000e+01,-2.000000000000000000e+00,0.000000000000000000e+00,5.000000000000000000e+00,2.100000000000000000e+01,-2.678833007812500000e-01,3.828735351562500000e-01,4.304809570312500000e-01,7.721557617187500000e-01
-1.900000000000000000e+01,1.000000000000000000e+00,4.900000000000000000e+01,5.000000000000000000e+00,3.000000000000000000e+00,3.000000000000000000e+00,-3.000000000000000000e+00,-3.800000000000000000e+01,-2.678833007812500000e-01,3.828735351562500000e-01,4.304809570312500000e-01,7.721557617187500000e-01
-1.700000000000000000e+01,2.000000000000000000e+00,-7.000000000000000000e+00,8.000000000000000000e+00,2.000000000000000000e+00,-3.000000000000000000e+00,-2.000000000000000000e+00,7.000000000000000000e+00,-2.678833007812500000e-01,3.828735351562500000e-01,4.304809570312500000e-01,7.721557617187500000e-01
1.400000000000000000e+01,-2.000000000000000000e+00,2.000000000000000000e+00,-4.400000000000000000e+01,-1.300000000000000000e+01,-4.000000000000000000e+00,-5.000000000000000000e+00,-3.000000000000000000e+01,-2.666015625000000000e-01,3.833007812500000000e-01,4.295654296875000000e-01,7.729492187500000000e-01
-1.000000000000000000e+00,-8.000000000000000000e+00,-2.000000000000000000e+01,4.100000000000000000e+01,7.000000000000000000e+00,0.000000000000000000e+00,-2.000000000000000000e+00,2.100000000000000000e+01,-2.666015625000000000e-01,3.833007812500000000e-01,4.295654296875000000e-01,7.729492187500000000e-01
1.200000000000000000e+01,5.000000000000000000e+00,1.100000000000000000e+01,4.400000000000000000e+01,6.000000000000000000e+00,0.000000000000000000e+00,0.000000000000000000e+00,3.000000000000000000e+00,-2.666015625000000000e-01,3.833007812500000000e-01,4.295654296875000000e-01,7.729492187500000000e-01
-1.000000000000000000e+00,-1.100000000000000000e+01,-9.000000000000000000e+00,-1.600000000000000000e+01,2.000000000000000000e+00,0.000000000000000000e+00,-3.000000000000000000e+00,3.000000000000000000e+00,-2.666015625000000000e-01,3.833007812500000000e-01,4.295654296875000000e-01,7.729492187500000000e-01
1.000000000000000000e+00,1.600000000000000000e+01,2.700000000000000000e+01,-2.000000000000000000e+00,0.000000000000000000e+00,-2.000000000000000000e+00,1.000000000000000000e+00,-8.000000000000000000e+00,-2.655029296875000000e-01,3.832397460937500000e-01,4.295043945312500000e-01,7.733764648437500000e-01
-2.000000000000000000e+00,1.000000000000000000e+00,2.000000000000000000e+00,-3.000000000000000000e+00,-4.000000000000000000e+00,0.000000000000000000e+00,0.000000000000000000e+00,-8.000000000000000000e+00,-2.655029296875000000e-01,3.832397460937500000e-01,4.295043945312500000e-01,7.733764648437500000e-01
1.200000000000000000e+01,5.000000000000000000e+00,2.800000000000000000e+01,1.300000000000000000e+01,3.000000000000000000e+00,3.000000000000000000e+00,2.000000000000000000e+00,1.200000000000000000e+01,-2.655029296875000000e-01,3.832397460937500000e-01,4.295043945312500000e-01,7.733764648437500000e-01
-1.100000000000000000e+01,-1.300000000000000000e+01,-3.900000000000000000e+01,-4.200000000000000000e+01,-1.700000000000000000e+01,-6.000000000000000000e+00,-4.000000000000000000e+00,-9.000000000000000000e+00,-2.655029296875000000e-01,3.832397460937500000e-01,4.295043945312500000e-01,7.733764648437500000e-01
1.900000000000000000e+01,0.000000000000000000e+00,-2.100000000000000000e+01,-4.000000000000000000e+00,2.000000000000000000e+00,1.000000000000000000e+00,1.000000000000000000e+00,9.000000000000000000e+00,-2.651977539062500000e-01,3.827514648437500000e-01,4.301757812500000000e-01,7.733154296875000000e-01
-7.000000000000000000e+00,1.000000000000000000e+00,-8.000000000000000000e+00,-3.000000000000000000e+00,4.000000000000000000e+00,1.000000000000000000e+00,-4.000000000000000000e+00,-6.000000000000000000e+00,-2.651977539062500000e-01,3.827514648437500000e-01,4.301757812500000000e-01,7.733154296875000000e-01
5.000000000000000000e+00,-6.000000000000000000e+00,9.000000000000000000e+00,1.100000000000000000e+01,-5.000000000000000000e+00,4.000000000000000000e+00,7.000000000000000000e+00,5.000000000000000000e+00,-2.651977539062500000e-01,3.827514648437500000e-01,4.301757812500000000e-01,7.733154296875000000e-01
-9.000000000000000000e+00,1.100000000000000000e+01,-7.000000000000000000e+00,2.900000000000000000e+01,7.000000000000000000e+00,1.000000000000000000e+00,7.000000000000000000e+00,-7.000000000000000000e+00,-2.651977539062500000e-01,3.827514648437500000e-01,4.301757812500000000e-01,7.733154296875000000e-01
8.000000000000000000e+00,-7.000000000000000000e+00,-1.100000000000000000e+01,-2.400000000000000000e+01,-1.000000000000000000e+00,2.000000000000000000e+00,-6.000000000000000000e+00,5.000000000000000000e+00,-2.662353515625000000e-01,3.815917968750000000e-01,4.310302734375000000e-01,7.730712890625000000e-01
-1.400000000000000000e+01,1.100000000000000000e+01,1.800000000000000000e+01,1.300000000000000000e+01,-1.000000000000000000e+01,-1.200000000000000000e+01,-8.000000000000000000e+00,-2.000000000000000000e+00,-2.662353515625000000e-01,3.815917968750000000e-01,4.310302734375000000e-01,7.730712890625000000e-01
0.000000000000000000e+00,-2.500000000000000000e+01,-3.000000000000000000e+01,-1.900000000000000000e+01,-3.000000000000000000e+00,-2.000000000000000000e+00,-4.000000000000000000e+00,-6.000000000000000000e+00,-2.662353515625000000e-01,3.815917968750000000e-01,4.310302734375000000e-01,7.730712890625000000e-01
6.000000000000000000e+00,3.300000000000000000e+01,4.100000000000000000e+01,-1.200000000000000000e+01,0.000000000000000000e+00,0.000000000000000000e+00,1.000000000000000000e+00,1.800000000000000000e+01,-2.662353515625000000e-01,3.815917968750000000e-01,4.310302734375000000e-01,7.730712890625000000e-01
1.700000000000000000e+01,-5.000000000000000000e+00,-1.100000000000000000e+01,7.000000000000000000e+00,2.000000000000000000e+00,-1.000000000000000000e+00,0.000000000000000000e+00,1.300000000000000000e+01,-2.674560546875000000e-01,3.810424804687500000e-01,4.312744140625000000e-01,7.727661132812500000e-01
-1.300000000000000000e+01,-1.000000000000000000e+00,-9.000000000000000000e+00,1.200000000000000000e+01,-1.000000000000000000e+00,-1.000000000000000000e+00,-3.000000000000000000e+00,-1.500000000000000000e+01,-2.674560546875000000e-01,3.810424804687500000e-01,4.312744140625000000e-01,7.727661132812500000e-01
1.400000000000000000e+01,-1.400000000000000000e+01,-4.900000000000000000e+01,-3.600000000000000000e+01,-8.000000000000000000e+00,-7.000000000000000000e+00,-5.000000000000000000e+00,6.000000000000000000e+00,-2.674560546875000000e-01,3.810424804687500000e-01,4.312744140625000000e-01,7.727661132812500000e-01
1.000000000000000000e+00,-2.500000000000000000e+01,-1.000000000000000000e+01,-1.200000000000000000e+01,-3.000000000000000000e+00,-1.000000000000000000e+00,-2.000000000000000000e+00,-1.300000000000000000e+01,-2.674560546875000000e-01,3.810424804687500000e-01,4.312744140625000000e-01,7.727661132812500000e-01
2.000000000000000000e+00,4.600000000000000000e+01,4.400000000000000000e+01,-5.000000000000000000e+00,-5.000000000000000000e+00,-3.000000000000000000e+00,-3.000000000000000000e+00,-3.000000000000000000e+00,-2.677001953125000000e-01,3.824462890625000000e-01,4.307250976562500000e-01,7.723388671875000000e-01
1.000000000000000000e+00,-1.300000000000000000e+01,-4.400000000000000000e+01,9.000000000000000000e+00,8.000000000000000000e+00,8.000000000000000000e+00,6.000000000000000000e+00,4.000000000000000000e+00,-2.677001953125000000e-01,3.824462890625000000e-01,4.307250976562500000e-01,7.723388671875000000e-01
-1.000000000000000000e+01,1.600000000000000000e+01,9.000000000000000000e+00,4.200000000000000000e+01,1.100000000000000000e+01,-1.000000000000000000e+00,-1.000000000000000000e+00,1.000000000000000000e+00,-2.677001953125000000e-01,3.824462890625000000e-01,4.307250976562500000e-01,7.723388671875000000e-01
9.000000000000000000e+00,-7.000000000000000000e+00,9.000000000000000000e+00,-8.000000000000000000e+00,-3.000000000000000000e+00,-1.000000000000000000e+00,0.000000000000000000e+00,3.000000000000000000e+00,-2.677001953125000000e-01,3.824462890625000000e-01,4.307250976562500000e-01,7.723388671875000000e-01
-1.000000000000000000e+00,-6.000000000000000000e+00,-2.000000000000000000e+01,-1.500000000000000000e+01,-3.000000000000000000e+00,0.000000000000000000e+00,1.000000000000000000e+00,2.000000000000000000e+00,-2.666015625000000000e-01,3.847045898437500000e-01,4.306030273437500000e-01,7.716064453125000000e-01
-8.000000000000000000e+00,-1.400000000000000000e+01,-1.000000000000000000e+00,-7.000000000000000000e+00,6.000000000000000000e+00,1.000000000000000000e+00,4.000000000000000000e+00,-6.000000000000000000e+00,-2.666015625000000000e-01,3.847045898437500000e-01,4.306030273437500000e-01,7.716064453125000000e-01
3.000000000000000000e+00,5.000000000000000000e+00,1.300000000000000000e+01,4.800000000000000000e+01,-1.000000000000000000e+00,-4.000000000000000000e+00,-5.000000000000000000e+00,-1.000000000000000000e+00,-2.666015625000000000e-01,3.847045898437500000e-01,4.306030273437500000e-01,7.716064453125000000e-01
0.000000000000000000e+00,3.000000000000000000e+00,1.600000000000000000e+01,0.000000000000000000e+00,-4.000000000000000000e+00,-4.000000000000000000e+00,-6.000000000000000000e+00,-3.000000000000000000e+00,-2.666015625000000000e-01,3.847045898437500000e-01,4.306030273437500000e-01,7.716064453125000000e-01
-1.500000000000000000e+01,-1.800000000000000000e+01,-1.600000000000000000e+01,-1.200000000000000000e+01,-6.000000000000000000e+00,4.000000000000000000e+00,7.000000000000000000e+00,-5.000000000000000000e+00,-2.657470703125000000e-01,3.867187500000000000e-01,4.313354492187500000e-01,7.705078125000000000e-01
-6.000000000000000000e+00,5.000000000000000000e+00,1.000000000000000000e+00,-2.000000000000000000e+01,-5.000000000000000000e+00,0.000000000000000000e+00,1.000000000000000000e+00,3.000000000000000000e+00,-2.657470703125000000e-01,3.867187500000000000e-01,4.313354492187500000e-01,7.705078125000000000e-01
7.000000000000000000e+00,-6.000000000000000000e+00,2.000000000000000000e+00,-1.100000000000000000e+01,0.000000000000000000e+00,0.000000000000000000e+00,-6.000000000000000000e+00,-1.000000000000000000e+01,-2.657470703125000000e-01,3.867187500000000000e-01,4.313354492187500000e-01,7.705078125000000000e-01
-2.000000000000000000e+00,0.000000000000000000e+00,-2.000000000000000000e+00,2.800000000000000000e+01,1.000000000000000000e+01,-1.000000000000000000e+00,-8.000000000000000000e+00,-4.000000000000000000e+00,-2.657470703125000000e-01,3.867187500000000000e-01,4.313354492187500000e-01,7.705078125000000000e-01
0.000000000000000000e+00,0.000000000000000000e+00,-1.200000000000000000e+01,-3.500000000000000000e+01,-4.000000000000000000e+00,-1.000000000000000000e+00,4.000000000000000000e+00,-4.000000000000000000e+00,-2.672119140625000000e-01,3.874511718750000000e-01,4.324951171875000000e-01,7.689819335937500000e-01
2.000000000000000000e+00,-1.800000000000000000e+01,-3.000000000000000000e+00,2.900000000000000000e+01,1.000000000000000000e+00,-2.000000000000000000e+00,1.000000000000000000e+00,2.000000000000000000e+00,-2.672119140625000000e-01,3.874511718750000000e-01,4.324951171875000000e-01,7.689819335937500000e-01
-7.000000000000000000e+00,1.600000000000000000e+01,-1.100000000000000000e+01,-5.400000000000000000e+01,-1.000000000000000000e+01,-4.000000000000000000e+00,1.000000000000000000e+00,7.000000000000000000e+00,-2.672119140625000000e-01,3.874511718750000000e-01,4.324951171875000000e-01,7.689819335937500000e-01
9.000000000000000000e+00,6.000000000000000000e+00,5.000000000000000000e+00,1.400000000000000000e+01,0.000000000000000000e+00,-2.000000000000000000e+00,0.000000000000000000e+00,-4.000000000000000000e+00,-2.672119140625000000e-01,3.874511718750000000e-01,4.324951171875000000e-01,7.689819335937500000e-01
-1.500000000000000000e+01,4.000000000000000000e+00,2.000000000000000000e+01,1.400000000000000000e+01,-4.000000000000000000e+00,-2.000000000000000000e+00,-5.000000000000000000e+00,-6.000000000000000000e+00,-2.694091796875000000e-01,3.879394531250000000e-01,4.334106445312500000e-01,7.674560546875000000e-01
1.000000000000000000e+00,9.000000000000000000e+00,-3.000000000000000000e+00,-3.000000000000000000e+01,-7.000000000000000000e+00,-2.000000000000000000e+00,-2.000000000000000000e+00,1.000000000000000000e+00,-2.694091796875000000e-01,3.879394531250000000e-01,4.334106445312500000e-01,7.674560546875000000e-01
-2.000000000000000000e+00,-2.000000000000000000e+01,-1.900000000000000000e+01,6.800000000000000000e+01,2.100000000000000000e+01,5.000000000000000000e+00,1.000000000000000000e+00,-1.000000000000000000e+00,-2.694091796875000000e-01,3.879394531250000000e-01,4.334106445312500000e-01,7.674560546875000000e-01
-1.000000000000000000e+01,-1.000000000000000000e+01,2.400000000000000000e+01,-1.200000000000000000e+01,-1.200000000000000000e+01,-5.000000000000000000e+00,-2.000000000000000000e+00,0.000000000000000000e+00,-2.694091796875000000e-01,3.879394531250000000e-01,4.334106445312500000e-01,7.674560546875000000e-01
4.000000000000000000e+00,-6.000000000000000000e+00,-1.300000000000000000e+01,1.800000000000000000e+01,1.000000000000000000e+00,-2.000000000000000000e+00,-3.000000000000000000e+00,3.000000000000000000e+00,-2.702026367187500000e-01,3.894042968750000000e-01,4.336547851562500000e-01,7.662963867187500000e-01
8.000000000000000000e+00,3.000000000000000000e+00,5.000000000000000000e+00,-1.300000000000000000e+01,0.000000000000000000e+00,0.000000000000000000e+00,0.000000000000000000e+00,1.000000000000000000e+00,-2.702026367187500000e-01,3.894042968750000000e-01,4.336547851562500000e-01,7.662963867187500000e-01
2.000000000000000000e+00,4.000000000000000000e+00,2.000000000000000000e+01,-5.000000000000000000e+01,-9.000000000000000000e+00,-3.000000000000000000e+00,1.000000000000000000e+00,-7.000000000000000000e+00,-2.702026367187500000e-01,3.894042968750000000e-01,4.336547851562500000e-01,7.662963867187500000e-01
-1.600000000000000000e+01,4.000000000000000000e+00,-1.200000000000000000e+01,1.900000000000000000e+01,2.000000000000000000e+00,3.000000000000000000e+00,0.000000000000000000e+00,7.000000000000000000e+00,-2.702026367187500000e-01,3.894042968750000000e-01,4.336547851562500000e-01,7.662963867187500000e-01
2.000000000000000000e+00,-1.100000000000000000e+01,-1.500000000000000000e+01,-1.600000000000000000e+01,-3.000000000000000000e+00,-4.000000000000000000e+00,1.000000000000000000e+00,2.000000000000000000e+00,-2.693481445312500000e-01,3.913574218750000000e-01,4.335937500000000000e-01,7.656860351562500000e-01
-9.000000000000000000e+00,-1.000000000000000000e+00,1.000000000000000000e+01,1.000000000000000000e+01,-1.000000000000000000e+00,-4.000000000000000000e+00,-1.000000000000000000e+01,-6.000000000000000000e+00,-2.693481445312500000e-01,3.913574218750000000e-01,4.335937500000000000e-01,7.656860351562500000e-01
4.000000000000000000e+00,4.000000000000000000e+00,1.000000000000000000e+01,0.000000000000000000e+00,1.000000000000000000e+00,1.000000000000000000e+00,-1.000000000000000000e+00,-1.200000000000000000e+01,-2.693481445312500000e-01,3.913574218750000000e-01,4.335937500000000000e-01,7.656860351562500000e-01
7.000000000000000000e+00,-1.000000000000000000e+00,-9.000000000000000000e+00,7.000000000000000000e+00,-3.000000000000000000e+00,-3.000000000000000000e+00,0.000000000000000000e+00,0.000000000000000000e+00,-2.693481445312500000e-01,3.913574218750000000e-01,4.335937500000000000e-01,7.656860351562500000e-01
4.000000000000000000e+00,-1.800000000000000000e+01,-5.000000000000000000e+00,1.400000000000000000e+01,7.000000000000000000e+00,2.000000000000000000e+00,-2.000000000000000000e+00,0.000000000000000000e+00,-2.684326171875000000e-01,3.925781250000000000e-01,4.340209960937500000e-01,7.650756835937500000e-01
-7.000000000000000000e+00,-3.000000000000000000e+00,-1.100000000000000000e+01,-1.000000000000000000e+01,-5.000000000000000000e+00,-2.000000000000000000e+00,1.000000000000000000e+00,2.000000000000000000e+00,-2.684326171875000000e-01,3.925781250000000000e-01,4.340209960937500000e-01,7.650756835937500000e-01
-2.000000000000000000e+00,1.400000000000000000e+01,3.500000000000000000e+01,-2.200000000000000000e+01,2.000000000000000000e+00,-6.000000000000000000e+00,-4.000000000000000000e+00,5.000000000000000000e+00,-2.684326171875000000e-01,3.925781250000000000e-01,4.340209960937500000e-01,7.650756835937500000e-01
6.000000000000000000e+00,-8.000000000000000000e+00,-3.000000000000000000e+00,3.200000000000000000e+01,-1.000000000000000000e+00,0.000000000000000000e+00,-2.000000000000000000e+00,-7.000000000000000000e+00,-2.684326171875000000e-01,3.925781250000000000e-01,4.340209960937500000e-01,7.650756835937500000e-01
-1.000000000000000000e+01,0.000000000000000000e+00,9.000000000000000000e+00,-3.000000000000000000e+01,-1.000000000000000000e+00,1.000000000000000000e+00,1.000000000000000000e+00,-1.000000000000000000e+01,-2.685546875000000000e-01,3.925170898437500000e-01,4.349365234375000000e-01,7.645874023437500000e-01
4.000000000000000000e+00,0.000000000000000000e+00,1.500000000000000000e+01,2.000000000000000000e+01,-2.000000000000000000e+00,-1.000000000000000000e+00,-3.000000000000000000e+00,-1.000000000000000000e+00,-2.685546875000000000e-01,3.925170898437500000e-01,4.349365234375000000e-01,7.645874023437500000e-01
-4.000000000000000000e+00,-8.000000000000000000e+00,6.000000000000000000e+00,-5.000000000000000000e+00,-5.000000000000000000e+00,-2.000000000000000000e+00,-2.000000000000000000e+00,4.000000000000000000e+00,-2.685546875000000000e-01,3.925170898437500000e-01,4.349365234375000000e-01,7.645874023437500000e-01
4.000000000000000000e+00,-2.000000000000000000e+00,-7.000000000000000000e+00,1.000000000000000000e+01,4.000000000000000000e+00,2.000000000000000000e+00,4.000000000000000000e+00,9.000000000000000000e+00,-2.685546875000000000e-01,3.925170898437500000e-01,4.349365234375000000e-01,7.645874023437500000e-01
-2.300000000000000000e+01,-1.200000000000000000e+01,-2.300000000000000000e+01,9.000000000000000000e+00,-6.000000000000000000e+00,-7.000000000000000000e+00,-8.000000000000000000e+00,-9.000000000000000000e+00,-2.686157226562500000e-01,3.922729492187500000e-01,4.360961914062500000e-01,7.639770507812500000e-01
7.000000000000000000e+00,2.000000000000000000e+00,-5.000000000000000000e+00,-1.000000000000000000e+01,-1.000000000000000000e+00,0.000000000000000000e+00,2.000000000000000000e+00,4.000000000000000000e+00,-2.686157226562500000e-01,3.922729492187500000e-01,4.360961914062500000e-01,7.639770507812500000e-01
-6.000000000000000000e+00,5.000000000000000000e+00,1.300000000000000000e+01,6.400000000000000000e+01,1.000000000000000000e+00,-1.000000000000000000e+00,-1.000000000000000000e+00,-5.000000000000000000e+00,-2.686157226562500000e-01,3.922729492187500000e-01,4.360961914062500000e-01,7.639770507812500000e-01
-1.400000000000000000e+01,-2.000000000000000000e+00,-8.000000000000000000e+00,-8.200000000000000000e+01,-7.000000000000000000e+00,-4.000000000000000000e+00,-3.000000000000000000e+00,-1.000000000000000000e+00,-2.686157226562500000e-01,3.922729492187500000e-01,4.360961914062500000e-01,7.639770507812500000e-01
-4.000000000000000000e+00,-4.000000000000000000e+00,-2.000000000000000000e+00,-1.700000000000000000e+01,-6.000000000000000000e+00,-2.000000000000000000e+00,-1.000000000000000000e+00,1.000000000000000000e+00,-2.680664062500000000e-01,3.920898437500000000e-01,4.371337890625000000e-01,7.636718750000000000e-01
1.800000000000000000e+01,4.000000000000000000e+00,5.000000000000000000e+00,4.000000000000000000e+00,2.000000000000000000e+00,-2.000000000000000000e+00,0.000000000000000000e+00,-9.000000000000000000e+00,-2.680664062500000000e-01,3.920898437500000000e-01,4.371337890625000000e-01,7.636718750000000000e-01
-1.100000000000000000e+01,-1.200000000000000000e+01,-3.900000000000000000e+01,1.100000000000000000e+01,-1.000000000000000000e+00,-1.000000000000000000e+00,0.000000000000000000e+00,3.000000000000000000e+00,-2.680664062500000000e-01,3.920898437500000000e-01,4.371337890625000000e-01,7.636718750000000000e-01
3.000000000000000000e+00,-1.000000000000000000e+00,-1.200000000000000000e+01,-1.200000000000000000e+01,2.000000000000000000e+00,-1.000000000000000000e+00,1.000000000000000000e+00,-3.000000000000000000e+00,-2.680664062500000000e-01,3.920898437500000000e-01,4.371337890625000000e-01,7.636718750000000000e-01
3.000000000000000000e+00,2.000000000000000000e+00,-1.100000000000000000e+01,-2.000000000000000000e+00,0.000000000000000000e+00,-1.000000000000000000e+00,-3.000000000000000000e+00,5.000000000000000000e+00,-2.668457031250000000e-01,3.917846679687500000e-01,4.379882812500000000e-01,7.637939453125000000e-01
-6.000000000000000000e+00,3.000000000000000000e+00,2.300000000000000000e+01,-1.400000000000000000e+01,-7.000000000000000000e+00,-2.000000000000000000e+00,-3.000000000000000000e+00,-3.000000000000000000e+00,-2.668457031250000000e-01,3.917846679687500000e-01,4.379882812500000000e-01,7.637939453125000000e-01
