-1.000000000000000000e+00,-3.000000000000000000e+00,-1.000000000000000000e+01,5.100000000000000000e+01,1.000000000000000000e+01,0.000000000000000000e+00,-4.000000000000000000e+00,-6.000000000000000000e+00,-4.175415039062500000e-01,2.065429687500000000e-01,6.549682617187500000e-01,5.949096679687500000e-01
-2.000000000000000000e+00,2.000000000000000000e+00,-3.000000000000000000e+00,-1.300000000000000000e+01,8.000000000000000000e+00,0.000000000000000000e+00,8.000000000000000000e+00,5.000000000000000000e+00,-4.175415039062500000e-01,2.065429687500000000e-01,6.549682617187500000e-01,5.949096679687500000e-01
-2.000000000000000000e+00,-2.000000000000000000e+00,7.000000000000000000e+00,1.000000000000000000e+00,-2.000000000000000000e+01,-7.000000000000000000e+00,-9.000000000000000000e+00,-3.000000000000000000e+00,-4.172363281250000000e-01,2.068481445312500000e-01,6.553955078125000000e-01,5.946044921875000000e-01
0.000000000000000000e+00,0.000000000000000000e+00,7.000000000000000000e+00,8.000000000000000000e+00,9.000000000000000000e+00,4.000000000000000000e+00,6.000000000000000000e+00,2.000000000000000000e+00,-4.172363281250000000e-01,2.068481445312500000e-01,6.553955078125000000e-01,5.946044921875000000e-01
2.000000000000000000e+00,0.000000000000000000e+00,-3.800000000000000000e+01,-2.600000000000000000e+01,1.000000000000000000e+00,3.000000000000000000e+00,1.000000000000000000e+00,3.000000000000000000e+00,-4.172363281250000000e-01,2.068481445312500000e-01,6.553955078125000000e-01,5.946044921875000000e-01
-2.000000000000000000e+00,-3.000000000000000000e+00,1.000000000000000000e+01,-9.000000000000000000e+00,-3.100000000000000000e+01,-1.100000000000000000e+01,-4.000000000000000000e+00,-4.000000000000000000e+00,-4.172363281250000000e-01,2.068481445312500000e-01,6.553955078125000000e-01,5.946044921875000000e-01
-1.000000000000000000e+00,-1.000000000000000000e+00,2.000000000000000000e+00,2.500000000000000000e+01,2.500000000000000000e+01,6.000000000000000000e+00,-4.000000000000000000e+00,-4.000000000000000000e+00,-4.169311523437500000e-01,2.067871093750000000e-01,6.558227539062500000e-01,5.943603515625000000e-01
1.000000000000000000e+00,1.000000000000000000e+00,-6.000000000000000000e+00,7.000000000000000000e+00,6.000000000000000000e+00,1.000000000000000000e+00,0.000000000000000000e+00,-2.000000000000000000e+00,-4.169311523437500000e-01,2.067871093750000000e-01,6.558227539062500000e-01,5.943603515625000000e-01
-1.000000000000000000e+00,-1.000000000000000000e+00,7.000000000000000000e+00,-1.200000000000000000e+01,-1.000000000000000000e+00,2.000000000000000000e+00,-2.000000000000000000e+00,-3.000000000000000000e+00,-4.169311523437500000e-01,2.067871093750000000e-01,6.558227539062500000e-01,5.943603515625000000e-01
-2.000000000000000000e+00,-3.000000000000000000e+00,3.000000000000000000e+00,-3.000000000000000000e+00,-1.000000000000000000e+01,-4.000000000000000000e+00,-6.000000000000000000e+00,-3.000000000000000000e+00,-4.169311523437500000e-01,2.067871093750000000e-01,6.558227539062500000e-01,5.943603515625000000e-01
-4.000000000000000000e+00,-4.000000000000000000e+00,-1.500000000000000000e+01,-4.100000000000000000e+01,-2.200000000000000000e+01,-4.000000000000000000e+00,2.000000000000000000e+00,2.000000000000000000e+00,-4.167480468750000000e-01,2.069091796875000000e-01,6.560058593750000000e-01,5.941772460937500000e-01
-2.000000000000000000e+00,1.000000000000000000e+00,1.600000000000000000e+01,3.600000000000000000e+01,2.700000000000000000e+01,2.000000000000000000e+00,-3.000000000000000000e+00,-5.000000000000000000e+00,-4.167480468750000000e-01,2.069091796875000000e-01,6.560058593750000000e-01,5.941772460937500000e-01
2.000000000000000000e+00,1.000000000000000000e+00,-6.000000000000000000e+00,-4.000000000000000000e+00,8.000000000000000000e+00,0.000000000000000000e+00,8.000000000000000000e+00,9.000000000000000000e+00,-4.167480468750000000e-01,2.069091796875000000e-01,6.560058593750000000e-01,5.941772460937500000e-01
0.000000000000000000e+00,0.000000000000000000e+00,2.000000000000000000e+01,4.000000000000000000e+00,-3.000000000000000000e+00,-2.000000000000000000e+00,-2.000000000000000000e+00,0.000000000000000000e+00,-4.167480468750000000e-01,2.069091796875000000e-01,6.560058593750000000e-01,5.941772460937500000e-01
-2.000000000000000000e+00,-5.000000000000000000e+00,-2.000000000000000000e+01,-9.000000000000000000e+00,-1.000000000000000000e+00,-3.000000000000000000e+00,-3.000000000000000000e+00,-3.000000000000000000e+00,-4.163208007812500000e-01,2.075195312500000000e-01,6.560668945312500000e-01,5.942382812500000000e-01
-1.000000000000000000e+00,-2.000000000000000000e+00,-7.000000000000000000e+00,-1.200000000000000000e+01,-1.100000000000000000e+01,-1.000000000000000000e+00,-2.000000000000000000e+00,-1.000000000000000000e+00,-4.163208007812500000e-01,2.075195312500000000e-01,6.560668945312500000e-01,5.942382812500000000e-01
-5.000000000000000000e+00,-3.000000000000000000e+00,1.100000000000000000e+01,-2.000000000000000000e+01,-2.400000000000000000e+01,-8.000000000000000000e+00,-9.000000000000000000e+00,-6.000000000000000000e+00,-4.163208007812500000e-01,2.075195312500000000e-01,6.560668945312500000e-01,5.942382812500000000e-01
3.000000000000000000e+00,5.000000000000000000e+00,1.000000000000000000e+01,3.000000000000000000e+01,2.700000000000000000e+01,8.000000000000000000e+00,5.000000000000000000e+00,3.000000000000000000e+00,-4.163208007812500000e-01,2.075195312500000000e-01,6.560668945312500000e-01,5.942382812500000000e-01
-1.000000000000000000e+00,0.000000000000000000e+00,-5.000000000000000000e+00,-2.100000000000000000e+01,-2.400000000000000000e+01,-5.000000000000000000e+00,-2.000000000000000000e+00,-4.000000000000000000e+00,-4.157714843750000000e-01,2.086181640625000000e-01,6.561889648437500000e-01,5.941162109375000000e-01
1.000000000000000000e+00,1.000000000000000000e+00,-1.300000000000000000e+01,1.000000000000000000e+01,1.200000000000000000e+01,1.000000000000000000e+00,0.000000000000000000e+00,-4.000000000000000000e+00,-4.157714843750000000e-01,2.086181640625000000e-01,6.561889648437500000e-01,5.941162109375000000e-01
0.000000000000000000e+00,0.000000000000000000e+00,4.000000000000000000e+00,-1.700000000000000000e+01,-4.000000000000000000e+00,-5.000000000000000000e+00,-1.100000000000000000e+01,-3.000000000000000000e+00,-4.157714843750000000e-01,2.086181640625000000e-01,6.561889648437500000e-01,5.941162109375000000e-01
-1.000000000000000000e+00,-3.000000000000000000e+00,-1.200000000000000000e+01,5.000000000000000000e+00,-6.000000000000000000e+00,-3.000000000000000000e+00,4.000000000000000000e+00,0.000000000000000000e+00,-4.157714843750000000e-01,2.086181640625000000e-01,6.561889648437500000e-01,5.941162109375000000e-01
-1.000000000000000000e+00,-1.000000000000000000e+00,2.100000000000000000e+01,-1.000000000000000000e+01,-7.000000000000000000e+00,-1.000000000000000000e+00,2.000000000000000000e+00,2.000000000000000000e+00,-4.156494140625000000e-01,2.092895507812500000e-01,6.561889648437500000e-01,5.939331054687500000e-01
0.000000000000000000e+00,-1.000000000000000000e+00,-2.600000000000000000e+01,1.500000000000000000e+01,1.000000000000000000e+00,2.000000000000000000e+00,-3.000000000000000000e+00,0.000000000000000000e+00,-4.156494140625000000e-01,2.092895507812500000e-01,6.561889648437500000e-01,5.939331054687500000e-01
-2.000000000000000000e+00,-3.000000000000000000e+00,-9.000000000000000000e+00,-2.400000000000000000e+01,1.000000000000000000e+00,6.000000000000000000e+00,0.000000000000000000e+00,-2.000000000000000000e+00,-4.156494140625000000e-01,2.092895507812500000e-01,6.561889648437500000e-01,5.939331054687500000e-01
-3.000000000000000000e+00,-2.000000000000000000e+00,-9.000000000000000000e+00,-4.000000000000000000e+00,2.000000000000000000e+00,-5.000000000000000000e+00,-4.000000000000000000e+00,-3.000000000000000000e+00,-4.156494140625000000e-01,2.092895507812500000e-01,6.561889648437500000e-01,5.939331054687500000e-01
-2.000000000000000000e+00,-3.000000000000000000e+00,-4.000000000000000000e+00,7.000000000000000000e+00,7.000000000000000000e+00,1.000000000000000000e+00,-1.000000000000000000e+00,-3.000000000000000000e+00,-4.158325195312500000e-01,2.092895507812500000e-01,6.562500000000000000e-01,5.938110351562500000e-01
-3.000000000000000000e+00,-2.000000000000000000e+00,3.000000000000000000e+00,-1.300000000000000000e+01,-1.500000000000000000e+01,-4.000000000000000000e+00,-1.000000000000000000e+00,-2.000000000000000000e+00,-4.158325195312500000e-01,2.092895507812500000e-01,6.562500000000000000e-01,5.938110351562500000e-01
2.000000000000000000e+00,1.000000000000000000e+00,1.300000000000000000e+01,3.000000000000000000e+00,-6.000000000000000000e+00,-1.000000000000000000e+00,-1.000000000000000000e+00,3.000000000000000000e+00,-4.158325195312500000e-01,2.092895507812500000e-01,6.562500000000000000e-01,5.938110351562500000e-01
-2.000000000000000000e+00,0.000000000000000000e+00,-5.000000000000000000e+00,-1.300000000000000000e+01,-7.000000000000000000e+00,0.000000000000000000e+00,0.000000000000000000e+00,-5.000000000000000000e+00,-4.158325195312500000e-01,2.092895507812500000e-01,6.562500000000000000e-01,5.938110351562500000e-01
1.000000000000000000e+00,-2.000000000000000000e+00,-1.200000000000000000e+01,1.500000000000000000e+01,2.800000000000000000e+01,4.000000000000000000e+00,8.000000000000000000e+00,3.000000000000000000e+00,-4.159545898437500000e-01,2.089843750000000000e-01,6.561889648437500000e-01,5.938110351562500000e-01
-4.000000000000000000e+00,-3.000000000000000000e+00,-6.000000000000000000e+00,7.000000000000000000e+00,4.000000000000000000e+00,-2.000000000000000000e+00,-3.000000000000000000e+00,-2.000000000000000000e+00,-4.159545898437500000e-01,2.089843750000000000e-01,6.561889648437500000e-01,5.938110351562500000e-01
0.000000000000000000e+00,3.000000000000000000e+00,4.000000000000000000e+00,-2.100000000000000000e+01,-1.500000000000000000e+01,-3.000000000000000000e+00,-3.000000000000000000e+00,-4.000000000000000000e+00,-4.159545898437500000e-01,2.089843750000000000e-01,6.561889648437500000e-01,5.938110351562500000e-01
-3.000000000000000000e+00,-8.000000000000000000e+00,1.000000000000000000e+00,4.000000000000000000e+01,2.900000000000000000e+01,8.000000000000000000e+00,1.000000000000000000e+00,0.000000000000000000e+00,-4.159545898437500000e-01,2.089843750000000000e-01,6.561889648437500000e-01,5.938110351562500000e-01
-1.000000000000000000e+00,1.000000000000000000e+00,-3.000000000000000000e+00,-2.200000000000000000e+01,-2.300000000000000000e+01,-6.000000000000000000e+00,-4.000000000000000000e+00,1.000000000000000000e+00,-4.161376953125000000e-01,2.092895507812500000e-01,6.560058593750000000e-01,5.938110351562500000e-01
-2.000000000000000000e+00,-2.000000000000000000e+00,2.700000000000000000e+01,1.100000000000000000e+01,-1.000000000000000000e+01,-2.000000000000000000e+00,-5.000000000000000000e+00,-2.000000000000000000e+00,-4.161376953125000000e-01,2.092895507812500000e-01,6.560058593750000000e-01,5.938110351562500000e-01
-1.000000000000000000e+00,1.000000000000000000e+00,-5.000000000000000000e+00,9.000000000000000000e+00,2.200000000000000000e+01,7.000000000000000000e+00,4.000000000000000000e+00,0.000000000000000000e+00,-4.161376953125000000e-01,2.092895507812500000e-01,6.560058593750000000e-01,5.938110351562500000e-01
2.000000000000000000e+00,4.000000000000000000e+00,-6.000000000000000000e+00,-2.100000000000000000e+01,-5.000000000000000000e+00,-4.000000000000000000e+00,0.000000000000000000e+00,0.000000000000000000e+00,-4.161376953125000000e-01,2.092895507812500000e-01,6.560058593750000000e-01,5.938110351562500000e-01
-1.000000000000000000e+00,-3.000000000000000000e+00,1.000000000000000000e+00,-8.000000000000000000e+00,-9.000000000000000000e+00,-5.000000000000000000e+00,-2.000000000000000000e+00,-3.000000000000000000e+00,-4.166259765625000000e-01,2.102050781250000000e-01,6.557617187500000000e-01,5.934448242187500000e-01
0.000000000000000000e+00,0.000000000000000000e+00,1.000000000000000000e+00,1.100000000000000000e+01,9.000000000000000000e+00,2.000000000000000000e+00,4.000000000000000000e+00,4.000000000000000000e+00,-4.166259765625000000e-01,2.102050781250000000e-01,6.557617187500000000e-01,5.934448242187500000e-01
-3.000000000000000000e+00,-4.000000000000000000e+00,4.000000000000000000e+00,-9.000000000000000000e+00,-1.600000000000000000e+01,-1.000000000000000000e+01,-6.000000000000000000e+00,-2.000000000000000000e+00,-4.166259765625000000e-01,2.102050781250000000e-01,6.557617187500000000e-01,5.934448242187500000e-01
0.000000000000000000e+00,0.000000000000000000e+00,1.400000000000000000e+01,5.000000000000000000e+00,-7.000000000000000000e+00,-3.000000000000000000e+00,-7.000000000000000000e+00,0.000000000000000000e+00,-4.166259765625000000e-01,2.102050781250000000e-01,6.557617187500000000e-01,5.934448242187500000e-01
-1.000000000000000000e+00,-4.000000000000000000e+00,-1.700000000000000000e+01,8.000000000000000000e+00,-3.000000000000000000e+00,-1.000000000000000000e+00,0.000000000000000000e+00,-2.000000000000000000e+00,-4.176025390625000000e-01,2.103271484375000000e-01,6.556396484375000000e-01,5.928344726562500000e-01
-1.000000000000000000e+00,-2.000000000000000000e+00,-8.000000000000000000e+00,-1.800000000000000000e+01,-6.000000000000000000e+00,-3.000000000000000000e+00,6.000000000000000000e+00,-1.000000000000000000e+00,-4.176025390625000000e-01,2.103271484375000000e-01,6.556396484375000000e-01,5.928344726562500000e-01
1.000000000000000000e+00,3.000000000000000000e+00,1.100000000000000000e+01,1.000000000000000000e+01,2.000000000000000000e+00,0.000000000000000000e+00,5.000000000000000000e+00,4.000000000000000000e+00,-4.176025390625000000e-01,2.103271484375000000e-01,6.556396484375000000e-01,5.928344726562500000e-01
-2.000000000000000000e+00,-1.000000000000000000e+00,-3.000000000000000000e+00,-3.000000000000000000e+01,-1.000000000000000000e+01,-3.000000000000000000e+00,-5.000000000000000000e+00,-4.000000000000000000e+00,-4.176025390625000000e-01,2.103271484375000000e-01,6.556396484375000000e-01,5.928344726562500000e-01
-2.000000000000000000e+00,-3.000000000000000000e+00,5.000000000000000000e+00,3.300000000000000000e+01,2.300000000000000000e+01,6.000000000000000000e+00,3.000000000000000000e+00,2.000000000000000000e+00,-4.185180664062500000e-01,2.106933593750000000e-01,6.553344726562500000e-01,5.924072265625000000e-01
-1.000000000000000000e+00,-1.000000000000000000e+00,2.000000000000000000e+00,0.000000000000000000e+00,-1.300000000000000000e+01,-7.000000000000000000e+00,-9.000000000000000000e+00,-3.000000000000000000e+00,-4.185180664062500000e-01,2.106933593750000000e-01,6.553344726562500000e-01,5.924072265625000000e-01
0.000000000000000000e+00,-3.000000000000000000e+00,-1.800000000000000000e+01,1.000000000000000000e+00,8.000000000000000000e+00,2.000000000000000000e+00,0.000000000000000000e+00,-1.000000000000000000e+00,-4.185180664062500000e-01,2.106933593750000000e-01,6.553344726562500000e-01,5.924072265625000000e-01
-2.000000000000000000e+00,0.000000000000000000e+00,-8.000000000000000000e+00,-1.700000000000000000e+01,-1.500000000000000000e+01,-3.000000000000000000e+00,3.000000000000000000e+00,-1.000000000000000000e+00,-4.185180664062500000e-01,2.106933593750000000e-01,6.553344726562500000e-01,5.924072265625000000e-01
3.000000000000000000e+00,2.000000000000000000e+00,5.000000000000000000e+00,-1.000000000000000000e+01,2.000000000000000000e+00,2.000000000000000000e+00,9.000000000000000000e+00,6.000000000000000000e+00,-4.189453125000000000e-01,2.117919921875000000e-01,6.549682617187500000e-01,5.921020507812500000e-01
-1.000000000000000000e+00,-3.000000000000000000e+00,-2.000000000000000000e+00,-4.000000000000000000e+00,-3.000000000000000000e+00,-4.000000000000000000e+00,-6.000000000000000000e+00,-3.000000000000000000e+00,-4.189453125000000000e-01,2.117919921875000000e-01,6.549682617187500000e-01,5.921020507812500000e-01
-4.000000000000000000e+00,-2.000000000000000000e+00,1.900000000000000000e+01,-9.000000000000000000e+00,-1.200000000000000000e+01,-5.000000000000000000e+00,-1.000000000000000000e+00,-2.000000000000000000e+00,-4.189453125000000000e-01,2.117919921875000000e-01,6.549682617187500000e-01,5.921020507812500000e-01
-5.000000000000000000e+00,-1.000000000000000000e+01,-3.900000000000000000e+01,2.000000000000000000e+00,-4.000000000000000000e+00,-4.000000000000000000e+00,-7.000000000000000000e+00,-3.000000000000000000e+00,-4.189453125000000000e-01,2.117919921875000000e-01,6.549682617187500000e-01,5.921020507812500000e-01
0.000000000000000000e+00,1.000000000000000000e+00,4.000000000000000000e+00,-1.000000000000000000e+00,-8.000000000000000000e+00,-4.000000000000000000e+00,-1.000000000000000000e+01,-7.000000000000000000e+00,-4.195556640625000000e-01,2.124633789062500000e-01,6.550292968750000000e-01,5.913085937500000000e-01
2.000000000000000000e+00,-2.000000000000000000e+00,-3.000000000000000000e+00,2.000000000000000000e+00,3.000000000000000000e+00,4.000000000000000000e+00,9.000000000000000000e+00,5.000000000000000000e+00,-4.195556640625000000e-01,2.124633789062500000e-01,6.550292968750000000e-01,5.913085937500000000e-01
0.000000000000000000e+00,1.000000000000000000e+00,1.800000000000000000e+01,4.000000000000000000e+00,-3.000000000000000000e+00,-2.000000000000000000e+00,2.000000000000000000e+00,2.000000000000000000e+00,-4.195556640625000000e-01,2.124633789062500000e-01,6.550292968750000000e-01,5.913085937500000000e-01
-3.000000000000000000e+00,1.000000000000000000e+00,4.000000000000000000e+00,-3.000000000000000000e+00,-8.000000000000000000e+00,-1.000000000000000000e+00,1.000000000000000000e+00,-2.000000000000000000e+00,-4.195556640625000000e-01,2.124633789062500000e-01,6.550292968750000000e-01,5.913085937500000000e-01
-1.000000000000000000e+00,-4.000000000000000000e+00,9.000000000000000000e+00,-1.400000000000000000e+01,-9.000000000000000000e+00,-4.000000000000000000e+00,-9.000000000000000000e+00,-4.000000000000000000e+00,-4.203491210937500000e-01,2.130737304687500000e-01,6.553344726562500000e-01,5.902099609375000000e-01
0.000000000000000000e+00,-1.000000000000000000e+00,-9.000000000000000000e+00,-7.000000000000000000e+00,-1.000000000000000000e+00,0.000000000000000000e+00,3.000000000000000000e+00,3.000000000000000000e+00,-4.203491210937500000e-01,2.130737304687500000e-01,6.553344726562500000e-01,5.902099609375000000e-01
-2.000000000000000000e+00,-2.000000000000000000e+00,-1.200000000000000000e+01,1.700000000000000000e+01,1.000000000000000000e+00,-1.000000000000000000e+00,-6.000000000000000000e+00,-6.000000000000000000e+00,-4.203491210937500000e-01,2.130737304687500000e-01,6.553344726562500000e-01,5.902099609375000000e-01
2.000000000000000000e+00,-1.000000000000000000e+00,-5.000000000000000000e+00,-6.000000000000000000e+00,1.100000000000000000e+01,4.000000000000000000e+00,3.000000000000000000e+00,3.000000000000000000e+00,-4.203491210937500000e-01,2.130737304687500000e-01,6.553344726562500000e-01,5.902099609375000000e-01
-3.000000000000000000e+00,2.000000000000000000e+00,3.000000000000000000e+00,9.000000000000000000e+00,7.000000000000000000e+00,-2.000000000000000000e+00,-1.000000000000000000e+00,-1.000000000000000000e+00,-4.216308593750000000e-01,2.129516601562500000e-01,6.558837890625000000e-01,5.887451171875000000e-01
-1.000000000000000000e+00,1.000000000000000000e+00,3.000000000000000000e+00,-8.000000000000000000e+00,-1.100000000000000000e+01,-3.000000000000000000e+00,-5.000000000000000000e+00,-2.000000000000000000e+00,-4.216308593750000000e-01,2.129516601562500000e-01,6.558837890625000000e-01,5.887451171875000000e-01
-3.000000000000000000e+00,-6.000000000000000000e+00,2.000000000000000000e+00,9.000000000000000000e+00,1.200000000000000000e+01,3.000000000000000000e+00,4.000000000000000000e+00,-4.000000000000000000e+00,-4.216308593750000000e-01,2.129516601562500000e-01,6.558837890625000000e-01,5.887451171875000000e-01
-2.000000000000000000e+00,0.000000000000000000e+00,7.000000000000000000e+00,1.000000000000000000e+00,4.000000000000000000e+00,0.000000000000000000e+00,0.000000000000000000e+00,1.000000000000000000e+00,-4.216308593750000000e-01,2.129516601562500000e-01,6.558837890625000000e-01,5.887451171875000000e-01
1.000000000000000000e+00,3.000000000000000000e+00,7.000000000000000000e+00,1.100000000000000000e+01,7.000000000000000000e+00,0.000000000000000000e+00,-1.000000000000000000e+00,0.000000000000000000e+00,-4.228515625000000000e-01,2.131958007812500000e-01,6.561889648437500000e-01,5.874023437500000000e-01
-3.000000000000000000e+00,-3.000000000000000000e+00,-2.000000000000000000e+00,-7.000000000000000000e+00,0.000000000000000000e+00,-3.000000000000000000e+00,-3.000000000000000000e+00,-4.000000000000000000e+00,-4.228515625000000000e-01,2.131958007812500000e-01,6.561889648437500000e-01,5.874023437500000000e-01
-1.000000000000000000e+00,1.000000000000000000e+00,6.000000000000000000e+00,2.100000000000000000e+01,3.000000000000000000e+00,-2.000000000000000000e+00,-2.000000000000000000e+00,-2.000000000000000000e+00,-4.228515625000000000e-01,2.131958007812500000e-01,6.561889648437500000e-01,5.874023437500000000e-01
5.000000000000000000e+00,2.000000000000000000e+00,5.000000000000000000e+00,-1.400000000000000000e+01,2.000000000000000000e+00,1.000000000000000000e+00,-1.000000000000000000e+00,1.000000000000000000e+00,-4.228515625000000000e-01,2.131958007812500000e-01,6.561889648437500000e-01,5.874023437500000000e-01
-2.000000000000000000e+00,-1.000000000000000000e+00,-1.200000000000000000e+01,-7.000000000000000000e+00,-9.000000000000000000e+00,-5.000000000000000000e+00,0.000000000000000000e+00,0.000000000000000000e+00,-4.241333007812500000e-01,2.131958007812500000e-01,6.566162109375000000e-01,5.860595703125000000e-01
-1.000000000000000000e+00,-1.000000000000000000e+00,-5.000000000000000000e+00,7.000000000000000000e+00,9.000000000000000000e+00,5.000000000000000000e+00,-1.000000000000000000e+00,-1.000000000000000000e+00,-4.241333007812500000e-01,2.131958007812500000e-01,6.566162109375000000e-01,5.860595703125000000e-01
-2.000000000000000000e+00,-1.000000000000000000e+00,1.000000000000000000e+00,2.000000000000000000e+00,1.000000000000000000e+00,1.000000000000000000e+00,3.000000000000000000e+00,-2.000000000000000000e+00,-4.241333007812500000e-01,2.131958007812500000e-01,6.566162109375000000e-01,5.860595703125000000e-01
-2.000000000000000000e+00,-2.000000000000000000e+00,-8.000000000000000000e+00,-3.000000000000000000e+00,-1.200000000000000000e+01,-3.000000000000000000e+00,0.000000000000000000e+00,0.000000000000000000e+00,-4.241333007812500000e-01,2.131958007812500000e-01,6.566162109375000000e-01,5.860595703125000000e-01
-1.000000000000000000e+00,0.000000000000000000e+00,-6.000000000000000000e+00,2.000000000000000000e+00,-5.000000000000000000e+00,3.000000000000000000e+00,3.000000000000000000e+00,0.000000000000000000e+00,-4.262084960937500000e-01,2.122802734375000000e-01,6.570434570312500000e-01,5.844116210937500000e-01
0.000000000000000000e+00,-2.000000000000000000e+00,-4.000000000000000000e+00,-5.000000000000000000e+00,2.000000000000000000e+00,-2.000000000000000000e+00,-2.000000000000000000e+00,-2.000000000000000000e+00,-4.262084960937500000e-01,2.122802734375000000e-01,6.570434570312500000e-01,5.844116210937500000e-01
0.000000000000000000e+00,1.000000000000000000e+00,-2.000000000000000000e+00,-5.000000000000000000e+00,4.000000000000000000e+00,-1.000000000000000000e+00,-4.000000000000000000e+00,-2.000000000000000000e+00,-4.262084960937500000e-01,2.122802734375000000e-01,6.570434570312500000e-01,5.844116210937500000e-01
-2.000000000000000000e+00,-1.000000000000000000e+00,3.000000000000000000e+00,-9.000000000000000000e+00,-1.200000000000000000e+01,-2.000000000000000000e+00,-2.000000000000000000e+00,-1.000000000000000000e+00,-4.262084960937500000e-01,2.122802734375000000e-01,6.570434570312500000e-01,5.844116210937500000e-01
1.000000000000000000e+00,4.000000000000000000e+00,2.600000000000000000e+01,4.100000000000000000e+01,3.900000000000000000e+01,7.000000000000000000e+00,4.000000000000000000e+00,1.000000000000000000e+00,-4.287109375000000000e-01,2.106933593750000000e-01,6.570434570312500000e-01,5.831298828125000000e-01
-3.000000000000000000e+00,-6.000000000000000000e+00,-5.000000000000000000e+01,-2.200000000000000000e+01,-1.300000000000000000e+01,-6.000000000000000000e+00,-4.000000000000000000e+00,-4.000000000000000000e+00,-4.287109375000000000e-01,2.106933593750000000e-01,6.570434570312500000e-01,5.831298828125000000e-01
-2.000000000000000000e+00,-4.000000000000000000e+00,-8.000000000000000000e+00,-7.000000000000000000e+00,-4.000000000000000000e+00,-3.000000000000000000e+00,-6.000000000000000000e+00,-1.000000000000000000e+00,-4.287109375000000000e-01,2.106933593750000000e-01,6.570434570312500000e-01,5.831298828125000000e-01
-1.000000000000000000e+00,-1.000000000000000000e+00,4.000000000000000000e+00,-1.000000000000000000e+00,-1.000000000000000000e+00,1.000000000000000000e+00,5.000000000000000000e+00,2.000000000000000000e+00,-4.287109375000000000e-01,2.106933593750000000e-01,6.570434570312500000e-01,5.831298828125000000e-01
-1.000000000000000000e+00,0.000000000000000000e+00,8.000000000000000000e+00,-1.500000000000000000e+01,-1.700000000000000000e+01,-6.000000000000000000e+00,-4.000000000000000000e+00,-3.000000000000000000e+00,-4.312744140625000000e-01,2.089843750000000000e-01,6.563720703125000000e-01,5.826416015625000000e-01
-3.000000000000000000e+00,-4.000000000000000000e+00,-3.000000000000000000e+00,-6.000000000000000000e+00,-1.000000000000000000e+00,-2.000000000000000000e+00,-2.000000000000000000e+00,-3.000000000000000000e+00,-4.312744140625000000e-01,2.089843750000000000e-01,6.563720703125000000e-01,5.826416015625000000e-01
2.000000000000000000e+00,3.000000000000000000e+00,6.000000000000000000e+00,2.000000000000000000e+00,2.000000000000000000e+00,0.000000000000000000e+00,0.000000000000000000e+00,0.000000000000000000e+00,-4.312744140625000000e-01,2.089843750000000000e-01,6.563720703125000000e-01,5.826416015625000000e-01
-1.000000000000000000e+00,1.000000000000000000e+00,-6.000000000000000000e+00,0.000000000000000000e+00,-7.000000000000000000e+00,-5.000000000000000000e+00,-3.000000000000000000e+00,-2.000000000000000000e+00,-4.312744140625000000e-01,2.089843750000000000e-01,6.563720703125000000e-01,5.826416015625000000e-01
-3.000000000000000000e+00,-2.000000000000000000e+00,4.000000000000000000e+00,5.000000000000000000e+00,1.700000000000000000e+01,6.000000000000000000e+00,4.000000000000000000e+00,2.000000000000000000e+00,-4.331665039062500000e-01,2.075805664062500000e-01,6.553344726562500000e-01,5.829467773437500000e-01
-1.000000000000000000e+00,1.000000000000000000e+00,1.000000000000000000e+00,-1.000000000000000000e+00,-4.000000000000000000e+00,-2.000000000000000000e+00,-4.000000000000000000e+00,-2.000000000000000000e+00,-4.331665039062500000e-01,2.075805664062500000e-01,6.553344726562500000e-01,5.829467773437500000e-01
0.000000000000000000e+00,-3.000000000000000000e+00,-1.000000000000000000e+01,-2.000000000000000000e+00,4.000000000000000000e+00,0.000000000000000000e+00,3.000000000000000000e+00,3.000000000000000000e+00,-4.331665039062500000e-01,2.075805664062500000e-01,6.553344726562500000e-01,5.829467773437500000e-01
-2.000000000000000000e+00,-2.000000000000000000e+00,1.800000000000000000e+01,8.000000000000000000e+00,-7.000000000000000000e+00,-1.000000000000000000e+00,-1.000000000000000000e+00,0.000000000000000000e+00,-4.331665039062500000e-01,2.075805664062500000e-01,6.553344726562500000e-01,5.829467773437500000e-01
-2.000000000000000000e+00,-3.000000000000000000e+00,-1.400000000000000000e+01,-2.700000000000000000e+01,-2.700000000000000000e+01,-4.000000000000000000e+00,-5.000000000000000000e+00,-1.000000000000000000e+00,-4.342651367187500000e-01,2.061157226562500000e-01,6.542358398437500000e-01,5.838012695312500000e-01
1.000000000000000000e+00,4.000000000000000000e+00,4.300000000000000000e+01,3.000000000000000000e+01,2.000000000000000000e+01,1.000000000000000000e+00,-3.000000000000000000e+00,1.000000000000000000e+00,-4.342651367187500000e-01,2.061157226562500000e-01,6.542358398437500000e-01,5.838012695312500000e-01
-3.000000000000000000e+00,-6.000000000000000000e+00,-5.300000000000000000e+01,1.200000000000000000e+01,1.400000000000000000e+01,2.000000000000000000e+00,1.000000000000000000e+00,2.000000000000000000e+00,-4.342651367187500000e-01,2.061157226562500000e-01,6.542358398437500000e-01,5.838012695312500000e-01
0.000000000000000000e+00,-4.000000000000000000e+00,-6.000000000000000000e+00,-3.000000000000000000e+00,2.000000000000000000e+00,-2.000000000000000000e+00,-1.000000000000000000e+00,-1.000000000000000000e+00,-4.342651367187500000e-01,2.061157226562500000e-01,6.542358398437500000e-01,5.838012695312500000e-01
1.000000000000000000e+00,-3.000000000000000000e+00,-1.300000000000000000e+01,-1.300000000000000000e+01,-5.000000000000000000e+00,-2.000000000000000000e+00,0.000000000000000000e+00,-4.000000000000000000e+00,-4.343872070312500000e-01,2.056274414062500000e-01,6.534423828125000000e-01,5.848388671875000000e-01
-1.000000000000000000e+00,2.000000000000000000e+00,4.000000000000000000e+00,-1.900000000000000000e+01,-2.700000000000000000e+01,-3.000000000000000000e+00,0.000000000000000000e+00,-1.000000000000000000e+00,-4.343872070312500000e-01,2.056274414062500000e-01,6.534423828125000000e-01,5.848388671875000000e-01
-1.000000000000000000e+00,2.000000000000000000e+00,2.100000000000000000e+01,-1.000000000000000000e+01,-2.000000000000000000e+00,1.000000000000000000e+00,-2.000000000000000000e+00,-5.000000000000000000e+00,-4.343872070312500000e-01,2.056274414062500000e-01,6.534423828125000000e-01,5.848388671875000000e-01
-3.000000000000000000e+00,-1.000000000000000000e+00,-1.000000000000000000e+00,2.600000000000000000e+01,2.000000000000000000e+01,0.000000000000000000e+00,-3.000000000000000000e+00,-4.000000000000000000e+00,-4.343872070312500000e-01,2.056274414062500000e-01,6.534423828125000000e-01,5.848388671875000000e-01
-2.000000000000000000e+00,-3.000000000000000000e+00,-1.200000000000000000e+01,-4.000000000000000000e+00,-1.200000000000000000e+01,-7.000000000000000000e+00,-5.000000000000000000e+00,-2.000000000000000000e+00,-4.335327148437500000e-01,2.059936523437500000e-01,6.528320312500000000e-01,5.859985351562500000e-01
1.000000000000000000e+00,-1.000000000000000000e+00,1.900000000000000000e+01,-5.000000000000000000e+00,-1.300000000000000000e+01,-4.000000000000000000e+00,-6.000000000000000000e+00,-1.000000000000000000e+00,-4.335327148437500000e-01,2.059936523437500000e-01,6.528320312500000000e-01,5.859985351562500000e-01
0.000000000000000000e+00,-1.000000000000000000e+00,-2.200000000000000000e+01,-6.000000000000000000e+00,-5.000000000000000000e+00,0.000000000000000000e+00,2.000000000000000000e+00,1.000000000000000000e+00,-4.335327148437500000e-01,2.059936523437500000e-01,6.528320312500000000e-01,5.859985351562500000e-01
0.000000000000000000e+00,2.000000000000000000e+00,-1.000000000000000000e+01,-8.000000000000000000e+00,1.000000000000000000e+01,0.000000000000000000e+00,-2.000000000000000000e+00,-2.000000000000000000e+00,-4.335327148437500000e-01,2.059936523437500000e-01,6.528320312500000000e-01,5.859985351562500000e-01
-2.000000000000000000e+00,-3.000000000000000000e+00,8.000000000000000000e+00,1.200000000000000000e+01,-7.000000000000000000e+00,-2.000000000000000000e+00,0.000000000000000000e+00,0.000000000000000000e+00,-4.325561523437500000e-01,2.059326171875000000e-01,6.527709960937500000e-01,5.867919921875000000e-01
-3.000000000000000000e+00,1.000000000000000000e+00,-5.000000000000000000e+00,-6.000000000000000000e+00,-1.300000000000000000e+01,-6.000000000000000000e+00,1.000000000000000000e+00,-2.000000000000000000e+00,-4.325561523437500000e-01,2.059326171875000000e-01,6.527709960937500000e-01,5.867919921875000000e-01
-2.000000000000000000e+00,1.000000000000000000e+00,1.900000000000000000e+01,1.700000000000000000e+01,1.400000000000000000e+01,3.000000000000000000e+00,-2.000000000000000000e+00,-2.000000000000000000e+00,-4.325561523437500000e-01,2.059326171875000000e-01,6.527709960937500000e-01,5.867919921875000000e-01
1.000000000000000000e+00,1.000000000000000000e+00,9.000000000000000000e+00,-1.000000000000000000e+00,-4.000000000000000000e+00,-1.000000000000000000e+00,3.000000000000000000e+00,0.000000000000000000e+00,-4.325561523437500000e-01,2.059326171875000000e-01,6.527709960937500000e-01,5.867919921875000000e-01
-1.000000000000000000e+00,-3.000000000000000000e+00,-1.500000000000000000e+01,-9.000000000000000000e+00,-2.200000000000000000e+01,-8.000000000000000000e+00,-2.000000000000000000e+00,-1.000000000000000000e+00,-4.315795898437500000e-01,2.062377929687500000e-01,6.530151367187500000e-01,5.871582031250000000e-01
0.000000000000000000e+00,-1.000000000000000000e+00,-5.000000000000000000e+00,1.000000000000000000e+00,3.000000000000000000e+01,9.000000000000000000e+00,6.000000000000000000e+00,1.000000000000000000e+00,-4.315795898437500000e-01,2.062377929687500000e-01,6.530151367187500000e-01,5.871582031250000000e-01
-1.000000000000000000e+00,-1.000000000000000000e+00,1.100000000000000000e+01,-4.000000000000000000e+00,-1.400000000000000000e+01,-4.000000000000000000e+00,-3.000000000000000000e+00,-2.000000000000000000e+00,-4.315795898437500000e-01,2.062377929687500000e-01,6.530151367187500000e-01,5.871582031250000000e-01
-2.000000000000000000e+00,-5.000000000000000000e+00,4.000000000000000000e+00,2.000000000000000000e+00,-1.000000000000000000e+00,-1.000000000000000000e+00,-1.000000000000000000e+00,-7.000000000000000000e+00,-4.315795898437500000e-01,2.062377929687500000e-01,6.530151367187500000e-01,5.871582031250000000e-01
-2.000000000000000000e+00,-1.000000000000000000e+00,4.000000000000000000e+00,-1.000000000000000000e+00,1.000000000000000000e+00,1.000000000000000000e+00,-1.000000000000000000e+00,1.000000000000000000e+00,-4.302978515625000000e-01,2.068481445312500000e-01,6.535644531250000000e-01,5.872802734375000000e-01
-2.000000000000000000e+00,-3.000000000000000000e+00,-1.900000000000000000e+01,-6.000000000000000000e+00,-4.000000000000000000e+00,-2.000000000000000000e+00,0.000000000000000000e+00,-1.000000000000000000e+00,-4.302978515625000000e-01,2.068481445312500000e-01,6.535644531250000000e-01,5.872802734375000000e-01
-1.000000000000000000e+00,1.000000000000000000e+00,5.000000000000000000e+00,-3.000000000000000000e+01,-2.100000000000000000e+01,-4.000000000000000000e+00,-4.000000000000000000e+00,-2.000000000000000000e+00,-4.302978515625000000e-01,2.068481445312500000e-01,6.535644531250000000e-01,5.872802734375000000e-01
1.000000000000000000e+00,6.000000000000000000e+00,2.900000000000000000e+01,3.800000000000000000e+01,3.000000000000000000e+01,6.000000000000000000e+00,-1.000000000000000000e+00,1.000000000000000000e+00,-4.302978515625000000e-01,2.068481445312500000e-01,6.535644531250000000e-01,5.872802734375000000e-01
-3.000000000000000000e+00,-9.000000000000000000e+00,-3.700000000000000000e+01,-6.000000000000000000e+00,-3.000000000000000000e+00,-2.000000000000000000e+00,0.000000000000000000e+00,-3.000000000000000000e+00,-4.294433593750000000e-01,2.069091796875000000e-01,6.541748046875000000e-01,5.870971679687500000e-01
-2.000000000000000000e+00,-3.000000000000000000e+00,-6.000000000000000000e+00,3.000000000000000000e+00,-2.000000000000000000e+00,-5.000000000000000000e+00,-5.000000000000000000e+00,-3.000000000000000000e+00,-4.294433593750000000e-01,2.069091796875000000e-01,6.541748046875000000e-01,5.870971679687500000e-01
0.000000000000000000e+00,1.000000000000000000e+00,-1.000000000000000000e+00,-1.300000000000000000e+01,-5.000000000000000000e+00,2.000000000000000000e+00,1.000000000000000000e+00,-2.000000000000000000e+00,-4.294433593750000000e-01,2.069091796875000000e-01,6.541748046875000000e-01,5.870971679687500000e-01
1.000000000000000000e+00,2.000000000000000000e+00,1.800000000000000000e+01,2.000000000000000000e+00,-3.000000000000000000e+00,-1.000000000000000000e+00,3.000000000000000000e+00,2.000000000000000000e+00,-4.294433593750000000e-01,2.069091796875000000e-01,6.541748046875000000e-01,5.870971679687500000e-01
0.000000000000000000e+00,1.000000000000000000e+00,2.000000000000000000e+00,8.000000000000000000e+00,-1.100000000000000000e+01,-3.000000000000000000e+00,0.000000000000000000e+00,-2.000000000000000000e+00,-4.290771484375000000e-01,2.066650390625000000e-01,6.544189453125000000e-01,5.872802734375000000e-01
-2.000000000000000000e+00,-2.000000000000000000e+00,0.000000000000000000e+00,1.000000000000000000e+00,7.000000000000000000e+00,6.000000000000000000e+00,1.000000000000000000e+00,-3.000000000000000000e+00,-4.290771484375000000e-01,2.066650390625000000e-01,6.544189453125000000e-01,5.872802734375000000e-01
-1.000000000000000000e+00,-4.000000000000000000e+00,-7.000000000000000000e+00,2.000000000000000000e+00,-1.300000000000000000e+01,-1.000000000000000000e+01,-3.000000000000000000e+00,1.000000000000000000e+00,-4.290771484375000000e-01,2.066650390625000000e-01,6.544189453125000000e-01,5.872802734375000000e-01
1.000000000000000000e+00,-1.000000000000000000e+00,-1.400000000000000000e+01,-1.900000000000000000e+01,-5.000000000000000000e+00,-1.000000000000000000e+00,0.000000000000000000e+00,1.000000000000000000e+00,-4.290771484375000000e-01,2.066650390625000000e-01,6.544189453125000000e-01,5.872802734375000000e-01
-1.000000000000000000e+00,0.000000000000000000e+00,1.100000000000000000e+01,4.000000000000000000e+00,6.000000000000000000e+00,2.000000000000000000e+00,-1.000000000000000000e+00,1.000000000000000000e+00,-4.288330078125000000e-01,2.067260742187500000e-01,6.540527343750000000e-01,5.877685546875000000e-01
1.000000000000000000e+00,1.000000000000000000e+00,0.000000000000000000e+00,3.000000000000000000e+00,-7.000000000000000000e+00,-3.000000000000000000e+00,0.000000000000000000e+00,1.000000000000000000e+00,-4.288330078125000000e-01,2.067260742187500000e-01,6.540527343750000000e-01,5.877685546875000000e-01
-1.000000000000000000e+00,-1.000000000000000000e+00,1.100000000000000000e+01,1.000000000000000000e+01,9.000000000000000000e+00,4.000000000000000000e+00,3.000000000000000000e+00,-3.000000000000000000e+00,-4.288330078125000000e-01,2.067260742187500000e-01,6.540527343750000000e-01,5.877685546875000000e-01
-2.000000000000000000e+00,-4.000000000000000000e+00,-8.000000000000000000e+00,-8.000000000000000000e+00,-1.200000000000000000e+01,-2.000000000000000000e+00,-9.000000000000000000e+00,-4.000000000000000000e+00,-4.288330078125000000e-01,2.067260742187500000e-01,6.540527343750000000e-01,5.877685546875000000e-01
-1.000000000000000000e+00,-2.000000000000000000e+00,-2.100000000000000000e+01,-9.000000000000000000e+00,6.000000000000000000e+00,2.000000000000000000e+00,5.000000000000000000e+00,1.000000000000000000e+00,-4.292602539062500000e-01,2.067871093750000000e-01,6.532592773437500000e-01,5.883178710937500000e-01
2.000000000000000000e+00,3.000000000000000000e+00,5.000000000000000000e+00,-1.000000000000000000e+01,-4.000000000000000000e+00,-5.000000000000000000e+00,3.000000000000000000e+00,4.000000000000000000e+00,-4.292602539062500000e-01,2.067871093750000000e-01,6.532592773437500000e-01,5.883178710937500000e-01
1.000000000000000000e+00,-2.000000000000000000e+00,5.000000000000000000e+00,8.000000000000000000e+00,2.000000000000000000e+00,2.000000000000000000e+00,-3.000000000000000000e+00,-1.000000000000000000e+00,-4.292602539062500000e-01,2.067871093750000000e-01,6.532592773437500000e-01,5.883178710937500000e-01
-3.000000000000000000e+00,0.000000000000000000e+00,-7.000000000000000000e+00,1.700000000000000000e+01,-3.000000000000000000e+00,-2.000000000000000000e+00,-1.000000000000000000e+00,-3.000000000000000000e+00,-4.292602539062500000e-01,2.067871093750000000e-01,6.532592773437500000e-01,5.883178710937500000e-01
-2.000000000000000000e+00,2.000000000000000000e+00,1.200000000000000000e+01,-1.800000000000000000e+01,4.000000000000000000e+00,0.000000000000000000e+00,-5.000000000000000000e+00,-5.000000000000000000e+00,-4.301757812500000000e-01,2.067260742187500000e-01,6.525878906250000000e-01,5.885009765625000000e-01
-2.000000000000000000e+00,1.000000000000000000e+00,0.000000000000000000e+00,1.500000000000000000e+01,1.000000000000000000e+01,4.000000000000000000e+00,1.000000000000000000e+00,-3.000000000000000000e+00,-4.301757812500000000e-01,2.067260742187500000e-01,6.525878906250000000e-01,5.885009765625000000e-01
1.000000000000000000e+00,1.000000000000000000e+00,3.000000000000000000e+00,-4.000000000000000000e+00,6.000000000000000000e+00,3.000000000000000000e+00,5.000000000000000000e+00,6.000000000000000000e+00,-4.301757812500000000e-01,2.067260742187500000e-01,6.525878906250000000e-01,5.885009765625000000e-01
-3.000000000000000000e+00,-5.000000000000000000e+00,-8.000000000000000000e+00,-2.500000000000000000e+01,-1.400000000000000000e+01,-4.000000000000000000e+00,-1.000000000000000000e+00,-3.000000000000000000e+00,-4.301757812500000000e-01,2.067260742187500000e-01,6.525878906250000000e-01,5.885009765625000000e-01
1.000000000000000000e+00,2.000000000000000000e+00,8.000000000000000000e+00,1.200000000000000000e+01,8.000000000000000000e+00,4.000000000000000000e+00,-3.000000000000000000e+00,-2.000000000000000000e+00,-4.314575195312500000e-01,2.061767578125000000e-01,6.519775390625000000e-01,5.883789062500000000e-01
0.000000000000000000e+00,-2.000000000000000000e+00,2.000000000000000000e+01,1.400000000000000000e+01,-9.000000000000000000e+00,-3.000000000000000000e+00,2.000000000000000000e+00,1.000000000000000000e+00,-4.314575195312500000e-01,2.061767578125000000e-01,6.519775390625000000e-01,5.883789062500000000e-01
-1.000000000000000000e+00,-1.000000000000000000e+00,-1.600000000000000000e+01,2.000000000000000000e+00,-2.000000000000000000e+00,-4.000000000000000000e+00,-5.000000000000000000e+00,-3.000000000000000000e+00,-4.314575195312500000e-01,2.061767578125000000e-01,6.519775390625000000e-01,5.883789062500000000e-01
-1.000000000000000000e+00,-4.000000000000000000e+00,-1.900000000000000000e+01,-1.900000000000000000e+01,4.000000000000000000e+00,0.000000000000000000e+00,3.000000000000000000e+00,-2.000000000000000000e+00,-4.314575195312500000e-01,2.061767578125000000e-01,6.519775390625000000e-01,5.883789062500000000e-01
0.000000000000000000e+00,-2.000000000000000000e+00,-1.000000000000000000e+00,6.000000000000000000e+00,2.000000000000000000e+00,-1.000000000000000000e+00,0.000000000000000000e+00,0.000000000000000000e+00,-4.328613281250000000e-01,2.054443359375000000e-01,6.512451171875000000e-01,5.884399414062500000e-01
0.000000000000000000e+00,-2.000000000000000000e+00,2.000000000000000000e+00,-1.100000000000000000e+01,-4.000000000000000000e+00,-3.000000000000000000e+00,-3.000000000000000000e+00,0.000000000000000000e+00,-4.328613281250000000e-01,2.054443359375000000e-01,6.512451171875000000e-01,5.884399414062500000e-01
-2.000000000000000000e+00,1.000000000000000000e+00,7.000000000000000000e+00,3.000000000000000000e+00,3.000000000000000000e+00,-4.000000000000000000e+00,-3.000000000000000000e+00,0.000000000000000000e+00,-4.328613281250000000e-01,2.054443359375000000e-01,6.512451171875000000e-01,5.884399414062500000e-01
-1.000000000000000000e+00,0.000000000000000000e+00,2.000000000000000000e+00,0.000000000000000000e+00,-8.000000000000000000e+00,-2.000000000000000000e+00,-7.000000000000000000e+00,-6.000000000000000000e+00,-4.328613281250000000e-01,2.054443359375000000e-01,6.512451171875000000e-01,5.884399414062500000e-01
-2.000000000000000000e+00,-5.000000000000000000e+00,-1.900000000000000000e+01,-1.500000000000000000e+01,-9.000000000000000000e+00,-2.000000000000000000e+00,0.000000000000000000e+00,0.000000000000000000e+00,-4.337158203125000000e-01,2.051391601562500000e-01,6.505126953125000000e-01,5.886840820312500000e-01
-2.000000000000000000e+00,-1.000000000000000000e+00,-9.000000000000000000e+00,-9.000000000000000000e+00,8.000000000000000000e+00,2.000000000000000000e+00,1.000000000000000000e+00,-2.000000000000000000e+00,-4.337158203125000000e-01,2.051391601562500000e-01,6.505126953125000000e-01,5.886840820312500000e-01
0.000000000000000000e+00,0.000000000000000000e+00,5.000000000000000000e+00,-7.000000000000000000e+00,-1.700000000000000000e+01,-5.000000000000000000e+00,-3.000000000000000000e+00,-1.000000000000000000e+00,-4.337158203125000000e-01,2.051391601562500000e-01,6.505126953125000000e-01,5.886840820312500000e-01
3.000000000000000000e+00,4.000000000000000000e+00,3.000000000000000000e+00,-5.000000000000000000e+00,-9.000000000000000000e+00,-4.000000000000000000e+00,1.000000000000000000e+00,3.000000000000000000e+00,-4.337158203125000000e-01,2.051391601562500000e-01,6.505126953125000000e-01,5.886840820312500000e-01
-1.000000000000000000e+00,-1.000000000000000000e+00,1.300000000000000000e+01,1.900000000000000000e+01,2.900000000000000000e+01,9.000000000000000000e+00,0.000000000000000000e+00,-2.000000000000000000e+00,-4.342651367187500000e-01,2.053833007812500000e-01,6.500244140625000000e-01,5.888061523437500000e-01
0.000000000000000000e+00,-1.000000000000000000e+00,1.800000000000000000e+01,4.000000000000000000e+00,-3.000000000000000000e+00,-3.000000000000000000e+00,-6.000000000000000000e+00,-4.000000000000000000e+00,-4.342651367187500000e-01,2.053833007812500000e-01,6.500244140625000000e-01,5.888061523437500000e-01
-2.000000000000000000e+00,-7.000000000000000000e+00,-4.300000000000000000e+01,-1.400000000000000000e+01,-3.000000000000000000e+00,2.000000000000000000e+00,4.000000000000000000e+00,-1.000000000000000000e+00,-4.342651367187500000e-01,2.053833007812500000e-01,6.500244140625000000e-01,5.888061523437500000e-01
-1.000000000000000000e+00,1.000000000000000000e+00,-3.000000000000000000e+00,-3.000000000000000000e+00,-4.000000000000000000e+00,-5.000000000000000000e+00,-5.000000000000000000e+00,0.000000000000000000e+00,-4.342651367187500000e-01,2.053833007812500000e-01,6.500244140625000000e-01,5.888061523437500000e-01
0.000000000000000000e+00,0.000000000000000000e+00,5.000000000000000000e+00,-3.400000000000000000e+01,-3.000000000000000000e+01,-1.100000000000000000e+01,-2.000000000000000000e+00,-1.000000000000000000e+00,-4.345092773437500000e-01,2.055053710937500000e-01,6.497192382812500000e-01,5.888671875000000000e-01
1.000000000000000000e+00,-3.000000000000000000e+00,-1.000000000000000000e+00,4.000000000000000000e+01,3.800000000000000000e+01,9.000000000000000000e+00,1.000000000000000000e+00,2.000000000000000000e+00,-4.345092773437500000e-01,2.055053710937500000e-01,6.497192382812500000e-01,5.888671875000000000e-01
2.000000000000000000e+00,2.000000000000000000e+00,1.100000000000000000e+01,1.600000000000000000e+01,2.400000000000000000e+01,6.000000000000000000e+00,-1.000000000000000000e+00,-1.000000000000000000e+00,-4.345092773437500000e-01,2.055053710937500000e-01,6.497192382812500000e-01,5.888671875000000000e-01
-3.000000000000000000e+00,-3.000000000000000000e+00,0.000000000000000000e+00,1.500000000000000000e+01,0.000000000000000000e+00,1.000000000000000000e+00,-1.000000000000000000e+00,-1.000000000000000000e+00,-4.345092773437500000e-01,2.055053710937500000e-01,6.497192382812500000e-01,5.888671875000000000e-01
-2.000000000000000000e+00,3.000000000000000000e+00,2.000000000000000000e+00,-1.800000000000000000e+01,-1.400000000000000000e+01,-3.000000000000000000e+00,3.000000000000000000e+00,-1.000000000000000000e+00,-4.346923828125000000e-01,2.055664062500000000e-01,6.497192382812500000e-01,5.887451171875000000e-01
-1.000000000000000000e+00,0.000000000000000000e+00,-1.000000000000000000e+00,-1.600000000000000000e+01,-9.000000000000000000e+00,-3.000000000000000000e+00,0.000000000000000000e+00,-3.000000000000000000e+00,-4.346923828125000000e-01,2.055664062500000000e-01,6.497192382812500000e-01,5.887451171875000000e-01
1.000000000000000000e+00,0.000000000000000000e+00,1.100000000000000000e+01,-8.000000000000000000e+00,-1.800000000000000000e+01,-6.000000000000000000e+00,-5.000000000000000000e+00,-1.000000000000000000e+00,-4.346923828125000000e-01,2.055664062500000000e-01,6.497192382812500000e-01,5.887451171875000000e-01
-2.000000000000000000e+00,-7.000000000000000000e+00,-2.700000000000000000e+01,7.000000000000000000e+00,2.600000000000000000e+01,5.000000000000000000e+00,2.000000000000000000e+00,0.000000000000000000e+00,-4.346923828125000000e-01,2.055664062500000000e-01,6.497192382812500000e-01,5.887451171875000000e-01
2.000000000000000000e+00,1.000000000000000000e+00,8.000000000000000000e+00,1.400000000000000000e+01,1.000000000000000000e+00,-5.000000000000000000e+00,-4.000000000000000000e+00,1.000000000000000000e+00,-4.347534179687500000e-01,2.055664062500000000e-01,6.496582031250000000e-01,5.887451171875000000e-01
-1.000000000000000000e+00,-1.000000000000000000e+00,-8.000000000000000000e+00,-1.300000000000000000e+01,-9.000000000000000000e+00,-2.000000000000000000e+00,0.000000000000000000e+00,-2.000000000000000000e+00,-4.347534179687500000e-01,2.055664062500000000e-01,6.496582031250000000e-01,5.887451171875000000e-01
-1.000000000000000000e+00,-2.000000000000000000e+00,-4.000000000000000000e+00,8.000000000000000000e+00,3.000000000000000000e+00,1.000000000000000000e+00,2.000000000000000000e+00,-2.000000000000000000e+00,-4.347534179687500000e-01,2.055664062500000000e-01,6.496582031250000000e-01,5.887451171875000000e-01
0.000000000000000000e+00,3.000000000000000000e+00,1.000000000000000000e+01,-8.000000000000000000e+00,-1.100000000000000000e+01,-3.000000000000000000e+00,0.000000000000000000e+00,1.000000000000000000e+00,-4.347534179687500000e-01,2.055664062500000000e-01,6.496582031250000000e-01,5.887451171875000000e-01
-1.000000000000000000e+00,-2.000000000000000000e+00,1.000000000000000000e+00,-7.000000000000000000e+00,-1.000000000000000000e+00,-1.000000000000000000e+00,1.000000000000000000e+00,0.000000000000000000e+00,-4.343261718750000000e-01,2.052001953125000000e-01,6.495971679687500000e-01,5.892333984375000000e-01
-2.000000000000000000e+00,-3.000000000000000000e+00,-2.800000000000000000e+01,0.000000000000000000e+00,-8.000000000000000000e+00,-2.000000000000000000e+00,-3.000000000000000000e+00,1.000000000000000000e+00,-4.343261718750000000e-01,2.052001953125000000e-01,6.495971679687500000e-01,5.892333984375000000e-01
-1.000000000000000000e+00,-1.000000000000000000e+00,6.000000000000000000e+00,1.000000000000000000e+00,-1.000000000000000000e+00,-1.000000000000000000e+00,-3.000000000000000000e+00,1.000000000000000000e+00,-4.343261718750000000e-01,2.052001953125000000e-01,6.495971679687500000e-01,5.892333984375000000e-01
-2.000000000000000000e+00,-1.000000000000000000e+00,3.000000000000000000e+00,-1.300000000000000000e+01,-1.900000000000000000e+01,-5.000000000000000000e+00,-3.000000000000000000e+00,-3.000000000000000000e+00,-4.343261718750000000e-01,2.052001953125000000e-01,6.495971679687500000e-01,5.892333984375000000e-01
2.000000000000000000e+00,3.000000000000000000e+00,-3.000000000000000000e+00,3.100000000000000000e+01,4.100000000000000000e+01,9.000000000000000000e+00,4.000000000000000000e+00,3.000000000000000000e+00,-4.334106445312500000e-01,2.051391601562500000e-01,6.496582031250000000e-01,5.899047851562500000e-01
-3.000000000000000000e+00,1.000000000000000000e+00,1.000000000000000000e+00,-1.800000000000000000e+01,-9.000000000000000000e+00,-1.000000000000000000e+00,-1.000000000000000000e+00,0.000000000000000000e+00,-4.334106445312500000e-01,2.051391601562500000e-01,6.496582031250000000e-01,5.899047851562500000e-01
-3.000000000000000000e+00,-4.000000000000000000e+00,2.000000000000000000e+00,-3.000000000000000000e+00,-2.000000000000000000e+00,-3.000000000000000000e+00,-3.000000000000000000e+00,-2.000000000000000000e+00,-4.334106445312500000e-01,2.051391601562500000e-01,6.496582031250000000e-01,5.899047851562500000e-01
-2.000000000000000000e+00,1.000000000000000000e+00,-1.000000000000000000e+00,-1.200000000000000000e+01,-1.200000000000000000e+01,-5.000000000000000000e+00,-4.000000000000000000e+00,-1.000000000000000000e+00,-4.334106445312500000e-01,2.051391601562500000e-01,6.496582031250000000e-01,5.899047851562500000e-01
-3.000000000000000000e+00,-3.000000000000000000e+00,6.000000000000000000e+00,1.400000000000000000e+01,-1.200000000000000000e+01,-3.000000000000000000e+00,-1.000000000000000000e+00,-1.000000000000000000e+00,-4.328002929687500000e-01,2.048339843750000000e-01,6.499633789062500000e-01,5.900878906250000000e-01
2.000000000000000000e+00,1.000000000000000000e+00,0.000000000000000000e+00,4.000000000000000000e+00,1.300000000000000000e+01,3.000000000000000000e+00,4.000000000000000000e+00,3.000000000000000000e+00,-4.328002929687500000e-01,2.048339843750000000e-01,6.499633789062500000e-01,5.900878906250000000e-01
0.000000000000000000e+00,1.000000000000000000e+00,-3.000000000000000000e+00,-4.000000000000000000e+00,6.000000000000000000e+00,0.000000000000000000e+00,0.000000000000000000e+00,0.000000000000000000e+00,-4.328002929687500000e-01,2.048339843750000000e-01,6.499633789062500000e-01,5.900878906250000000e-01
0.000000000000000000e+00,-2.000000000000000000e+00,0.000000000000000000e+00,-1.700000000000000000e+01,-7.000000000000000000e+00,-1.000000000000000000e+00,2.000000000000000000e+00,-1.000000000000000000e+00,-4.328002929687500000e-01,2.048339843750000000e-01,6.499633789062500000e-01,5.900878906250000000e-01
0.000000000000000000e+00,0.000000000000000000e+00,-4.000000000000000000e+00,1.600000000000000000e+01,-6.000000000000000000e+00,-4.000000000000000000e+00,-7.000000000000000000e+00,-5.000000000000000000e+00,-4.327392578125000000e-01,2.036132812500000000e-01,6.503906250000000000e-01,5.900878906250000000e-01
-2.000000000000000000e+00,-2.000000000000000000e+00,-5.000000000000000000e+00,-2.000000000000000000e+00,-1.000000000000000000e+00,1.000000000000000000e+00,1.000000000000000000e+00,-3.000000000000000000e+00,-4.327392578125000000e-01,2.036132812500000000e-01,6.503906250000000000e-01,5.900878906250000000e-01
-2.000000000000000000e+00,-3.000000000000000000e+00,-1.500000000000000000e+01,-2.000000000000000000e+00,-2.000000000000000000e+00,0.000000000000000000e+00,0.000000000000000000e+00,-1.000000000000000000e+00,-4.327392578125000000e-01,2.036132812500000000e-01,6.503906250000000000e-01,5.900878906250000000e-01
-1.000000000000000000e+00,-2.000000000000000000e+00,-1.300000000000000000e+01,-1.000000000000000000e+00,2.000000000000000000e+00,4.000000000000000000e+00,0.000000000000000000e+00,-1.000000000000000000e+00,-4.327392578125000000e-01,2.036132812500000000e-01,6.503906250000000000e-01,5.900878906250000000e-01
-1.000000000000000000e+00,-2.000000000000000000e+00,0.000000000000000000e+00,-1.400000000000000000e+01,-8.000000000000000000e+00,-5.000000000000000000e+00,-1.000000000000000000e+00,0.000000000000000000e+00,-4.324951171875000000e-01,2.019653320312500000e-01,6.507568359375000000e-01,5.904541015625000000e-01
0.000000000000000000e+00,2.000000000000000000e+00,3.000000000000000000e+00,-7.000000000000000000e+00,-1.200000000000000000e+01,-6.000000000000000000e+00,-6.000000000000000000e+00,-1.000000000000000000e+00,-4.324951171875000000e-01,2.019653320312500000e-01,6.507568359375000000e-01,5.904541015625000000e-01
1.000000000000000000e+00,1.000000000000000000e+00,9.000000000000000000e+00,-1.000000000000000000e+00,3.000000000000000000e+00,0.000000000000000000e+00,1.000000000000000000e+00,-1.000000000000000000e+00,-4.324951171875000000e-01,2.019653320312500000e-01,6.507568359375000000e-01,5.904541015625000000e-01
-1.000000000000000000e+00,0.000000000000000000e+00,-4.000000000000000000e+00,1.000000000000000000e+00,4.000000000000000000e+00,1.000000000000000000e+00,0.000000000000000000e+00,-2.000000000000000000e+00,-4.324951171875000000e-01,2.019653320312500000e-01,6.507568359375000000e-01,5.904541015625000000e-01
-2.000000000000000000e+00,-1.000000000000000000e+00,-1.000000000000000000e+00,-2.000000000000000000e+00,0.000000000000000000e+00,-6.000000000000000000e+00,-3.000000000000000000e+00,-2.000000000000000000e+00,-4.320068359375000000e-01,2.007446289062500000e-01,6.508789062500000000e-01,5.910644531250000000e-01
1.000000000000000000e+00,2.000000000000000000e+00,3.000000000000000000e+00,-6.000000000000000000e+00,-7.000000000000000000e+00,0.000000000000000000e+00,0.000000000000000000e+00,2.000000000000000000e+00,-4.320068359375000000e-01,2.007446289062500000e-01,6.508789062500000000e-01,5.910644531250000000e-01
-1.000000000000000000e+00,2.000000000000000000e+00,1.300000000000000000e+01,2.800000000000000000e+01,2.000000000000000000e+01,7.000000000000000000e+00,4.000000000000000000e+00,0.000000000000000000e+00,-4.320068359375000000e-01,2.007446289062500000e-01,6.508789062500000000e-01,5.910644531250000000e-01
1.000000000000000000e+00,0.000000000000000000e+00,-9.000000000000000000e+00,5.000000000000000000e+00,3.000000000000000000e+00,1.000000000000000000e+00,0.000000000000000000e+00,-1.000000000000000000e+00,-4.320068359375000000e-01,2.007446289062500000e-01,6.508789062500000000e-01,5.910644531250000000e-01
-4.000000000000000000e+00,-7.000000000000000000e+00,3.000000000000000000e+00,-1.900000000000000000e+01,-3.000000000000000000e+00,2.000000000000000000e+00,-2.000000000000000000e+00,-3.000000000000000000e+00,-4.310913085937500000e-01,2.006225585937500000e-01,6.510009765625000000e-01,5.916748046875000000e-01
0.000000000000000000e+00,-6.000000000000000000e+00,-2.500000000000000000e+01,-4.000000000000000000e+00,-2.000000000000000000e+01,-1.100000000000000000e+01,-6.000000000000000000e+00,0.000000000000000000e+00,-4.310913085937500000e-01,2.006225585937500000e-01,6.510009765625000000e-01,5.916748046875000000e-01
-1.000000000000000000e+00,5.000000000000000000e+00,5.000000000000000000e+00,-2.500000000000000000e+01,-4.000000000000000000e+00,1.000000000000000000e+00,0.000000000000000000e+00,0.000000000000000000e+00,-4.310913085937500000e-01,2.006225585937500000e-01,6.510009765625000000e-01,5.916748046875000000e-01
-2.000000000000000000e+00,-4.000000000000000000e+00,-1.000000000000000000e+00,4.100000000000000000e+01,2.700000000000000000e+01,7.000000000000000000e+00,4.000000000000000000e+00,-3.000000000000000000e+00,-4.310913085937500000e-01,2.006225585937500000e-01,6.510009765625000000e-01,5.916748046875000000e-01
-1.000000000000000000e+00,1.000000000000000000e+00,-8.000000000000000000e+00,-1.000000000000000000e+01,-1.000000000000000000e+01,-5.000000000000000000e+00,-1.000000000000000000e+00,1.000000000000000000e+00,-4.304199218750000000e-01,2.006835937500000000e-01,6.512451171875000000e-01,5.918579101562500000e-01
1.000000000000000000e+00,0.000000000000000000e+00,1.400000000000000000e+01,3.000000000000000000e+00,1.000000000000000000e+00,-1.000000000000000000e+00,-2.000000000000000000e+00,0.000000000000000000e+00,-4.304199218750000000e-01,2.006835937500000000e-01,6.512451171875000000e-01,5.918579101562500000e-01
-2.000000000000000000e+00,-3.000000000000000000e+00,-1.300000000000000000e+01,-1.300000000000000000e+01,-5.000000000000000000e+00,0.000000000000000000e+00,-4.000000000000000000e+00,-1.000000000000000000e+00,-4.304199218750000000e-01,2.006835937500000000e-01,6.512451171875000000e-01,5.918579101562500000e-01
-2.000000000000000000e+00,-1.000000000000000000e+00,2.000000000000000000e+00,1.300000000000000000e+01,3.000000000000000000e+00,-1.000000000000000000e+00,-1.000000000000000000e+00,-1.000000000000000000e+00,-4.304199218750000000e-01,2.006835937500000000e-01,6.512451171875000000e-01,5.918579101562500000e-01
-2.000000000000000000e+00,0.000000000000000000e+00,-5.000000000000000000e+00,-2.100000000000000000e+01,-2.200000000000000000e+01,-3.000000000000000000e+00,-2.000000000000000000e+00,-4.000000000000000000e+00,-4.301757812500000000e-01,2.008056640625000000e-01,6.514892578125000000e-01,5.917358398437500000e-01
-2.000000000000000000e+00,-3.000000000000000000e+00,-1.000000000000000000e+00,-2.000000000000000000e+00,1.000000000000000000e+01,3.000000000000000000e+00,0.000000000000000000e+00,-2.000000000000000000e+00,-4.301757812500000000e-01,2.008056640625000000e-01,6.514892578125000000e-01,5.917358398437500000e-01
1.000000000000000000e+00,1.000000000000000000e+00,5.000000000000000000e+00,1.500000000000000000e+01,1.000000000000000000e+00,-3.000000000000000000e+00,3.000000000000000000e+00,4.000000000000000000e+00,-4.301757812500000000e-01,2.008056640625000000e-01,6.514892578125000000e-01,5.917358398437500000e-01
-1.000000000000000000e+00,1.000000000000000000e+00,6.000000000000000000e+00,-1.000000000000000000e+01,-1.000000000000000000e+01,-5.000000000000000000e+00,-6.000000000000000000e+00,-4.000000000000000000e+00,-4.301757812500000000e-01,2.008056640625000000e-01,6.514892578125000000e-01,5.917358398437500000e-01
1.000000000000000000e+00,1.000000000000000000e+00,0.000000000000000000e+00,1.200000000000000000e+01,7.000000000000000000e+00,3.000000000000000000e+00,6.000000000000000000e+00,3.000000000000000000e+00,-4.301757812500000000e-01,2.012939453125000000e-01,6.514282226562500000e-01,5.916137695312500000e-01
-1.000000000000000000e+00,2.000000000000000000e+00,8.000000000000000000e+00,-8.000000000000000000e+00,-1.100000000000000000e+01,-1.000000000000000000e+00,-2.000000000000000000e+00,0.000000000000000000e+00,-4.301757812500000000e-01,2.012939453125000000e-01,6.514282226562500000e-01,5.916137695312500000e-01
-2.000000000000000000e+00,-1.000000000000000000e+00,-8.000000000000000000e+00,-5.000000000000000000e+00,2.000000000000000000e+00,-4.000000000000000000e+00,-6.000000000000000000e+00,-2.000000000000000000e+00,-4.301757812500000000e-01,2.012939453125000000e-01,6.514282226562500000e-01,5.916137695312500000e-01
0.000000000000000000e+00,-2.000000000000000000e+00,1.600000000000000000e+01,1.700000000000000000e+01,1.200000000000000000e+01,2.000000000000000000e+00,-1.000000000000000000e+00,2.000000000000000000e+00,-4.301757812500000000e-01,2.012939453125000000e-01,6.514282226562500000e-01,5.916137695312500000e-01
-1.000000000000000000e+00,-1.000000000000000000e+00,-8.000000000000000000e+00,3.000000000000000000e+00,-1.600000000000000000e+01,-6.000000000000000000e+00,-5.000000000000000000e+00,-3.000000000000000000e+00,-4.301757812500000000e-01,2.020263671875000000e-01,6.511840820312500000e-01,5.916137695312500000e-01
0.000000000000000000e+00,-2.000000000000000000e+00,0.000000000000000000e+00,-5.000000000000000000e+00,1.600000000000000000e+01,7.000000000000000000e+00,1.000000000000000000e+00,-2.000000000000000000e+00,-4.301757812500000000e-01,2.020263671875000000e-01,6.511840820312500000e-01,5.916137695312500000e-01
-2.000000000000000000e+00,-1.000000000000000000e+00,-4.000000000000000000e+00,-4.000000000000000000e+00,-2.300000000000000000e+01,-7.000000000000000000e+00,-4.000000000000000000e+00,-3.000000000000000000e+00,-4.301757812500000000e-01,2.020263671875000000e-01,6.511840820312500000e-01,5.916137695312500000e-01
-1.000000000000000000e+00,1.000000000000000000e+00,2.300000000000000000e+01,-1.400000000000000000e+01,-1.000000000000000000e+00,0.000000000000000000e+00,1.000000000000000000e+00,-1.000000000000000000e+00,-4.301757812500000000e-01,2.020263671875000000e-01,6.511840820312500000e-01,5.916137695312500000e-01
0.000000000000000000e+00,2.000000000000000000e+00,1.000000000000000000e+00,8.000000000000000000e+00,2.000000000000000000e+00,1.000000000000000000e+00,-3.000000000000000000e+00,-1.000000000000000000e+00,-4.309692382812500000e-01,2.019653320312500000e-01,6.510620117187500000e-01,5.912475585937500000e-01
-5.000000000000000000e+00,-4.000000000000000000e+00,-6.000000000000000000e+00,4.000000000000000000e+00,-1.000000000000000000e+00,0.000000000000000000e+00,0.000000000000000000e+00,-2.000000000000000000e+00,-4.309692382812500000e-01,2.019653320312500000e-01,6.510620117187500000e-01,5.912475585937500000e-01
-1.000000000000000000e+00,-2.000000000000000000e+00,1.000000000000000000e+00,-7.000000000000000000e+00,1.000000000000000000e+00,-3.000000000000000000e+00,0.000000000000000000e+00,-1.000000000000000000e+00,-4.309692382812500000e-01,2.019653320312500000e-01,6.510620117187500000e-01,5.912475585937500000e-01
-1.000000000000000000e+00,-2.000000000000000000e+00,-7.000000000000000000e+00,-2.000000000000000000e+00,-6.000000000000000000e+00,-2.000000000000000000e+00,-2.000000000000000000e+00,-1.000000000000000000e+00,-4.309692382812500000e-01,2.019653320312500000e-01,6.510620117187500000e-01,5.912475585937500000e-01
1.000000000000000000e+00,-1.000000000000000000e+00,4.000000000000000000e+00,-1.000000000000000000e+00,-2.000000000000000000e+00,-1.000000000000000000e+00,-3.000000000000000000e+00,0.000000000000000000e+00,-4.317016601562500000e-01,2.012329101562500000e-01,6.509399414062500000e-01,5.910644531250000000e-01
-1.000000000000000000e+00,-1.000000000000000000e+00,-3.000000000000000000e+00,-1.300000000000000000e+01,-3.000000000000000000e+00,1.000000000000000000e+00,-7.000000000000000000e+00,-6.000000000000000000e+00,-4.317016601562500000e-01,2.012329101562500000e-01,6.509399414062500000e-01,5.910644531250000000e-01
-1.000000000000000000e+00,-2.000000000000000000e+00,1.200000000000000000e+01,3.400000000000000000e+01,2.200000000000000000e+01,1.000000000000000000e+00,9.000000000000000000e+00,3.000000000000000000e+00,-4.317016601562500000e-01,2.012329101562500000e-01,6.509399414062500000e-01,5.910644531250000000e-01
-2.000000000000000000e+00,-3.000000000000000000e+00,-1.600000000000000000e+01,-2.000000000000000000e+00,-5.000000000000000000e+00,-1.000000000000000000e+00,5.000000000000000000e+00,9.000000000000000000e+00,-4.317016601562500000e-01,2.012329101562500000e-01,6.509399414062500000e-01,5.910644531250000000e-01
0.000000000000000000e+00,0.000000000000000000e+00,-6.000000000000000000e+00,-1.700000000000000000e+01,7.000000000000000000e+00,1.000000000000000000e+00,-2.000000000000000000e+00,0.000000000000000000e+00,-4.317626953125000000e-01,2.009887695312500000e-01,6.508178710937500000e-01,5.912475585937500000e-01
-1.000000000000000000e+00,1.000000000000000000e+00,4.000000000000000000e+00,6.000000000000000000e+00,-1.000000000000000000e+00,-1.000000000000000000e+00,-1.000000000000000000e+00,-3.000000000000000000e+00,-4.317626953125000000e-01,2.009887695312500000e-01,6.508178710937500000e-01,5.912475585937500000e-01
-2.000000000000000000e+00,-2.000000000000000000e+00,1.000000000000000000e+00,1.100000000000000000e+01,1.000000000000000000e+00,1.000000000000000000e+00,-6.000000000000000000e+00,-4.000000000000000000e+00,-4.317626953125000000e-01,2.009887695312500000e-01,6.508178710937500000e-01,5.912475585937500000e-01
-2.000000000000000000e+00,-1.000000000000000000e+00,6.000000000000000000e+00,-6.000000000000000000e+00,-2.000000000000000000e+01,-7.000000000000000000e+00,-2.000000000000000000e+00,-5.000000000000000000e+00,-4.317626953125000000e-01,2.009887695312500000e-01,6.508178710937500000e-01,5.912475585937500000e-01
0.000000000000000000e+00,0.000000000000000000e+00,-4.000000000000000000e+00,-5.000000000000000000e+00,8.000000000000000000e+00,5.000000000000000000e+00,2.000000000000000000e+00,2.000000000000000000e+00,-4.313964843750000000e-01,2.011108398437500000e-01,6.511230468750000000e-01,5.911254882812500000e-01
-1.000000000000000000e+00,0.000000000000000000e+00,-6.000000000000000000e+00,0.000000000000000000e+00,1.000000000000000000e+00,-2.000000000000000000e+00,0.000000000000000000e+00,-1.000000000000000000e+00,-4.313964843750000000e-01,2.011108398437500000e-01,6.511230468750000000e-01,5.911254882812500000e-01
1.000000000000000000e+00,1.000000000000000000e+00,1.200000000000000000e+01,-2.000000000000000000e+00,-1.000000000000000000e+00,1.000000000000000000e+00,-3.000000000000000000e+00,-4.000000000000000000e+00,-4.313964843750000000e-01,2.011108398437500000e-01,6.511230468750000000e-01,5.911254882812500000e-01
-2.000000000000000000e+00,-4.000000000000000000e+00,-2.700000000000000000e+01,-1.600000000000000000e+01,-6.000000000000000000e+00,-3.000000000000000000e+00,-1.000000000000000000e+00,1.000000000000000000e+00,-4.313964843750000000e-01,2.011108398437500000e-01,6.511230468750000000e-01,5.911254882812500000e-01
0.000000000000000000e+00,-1.000000000000000000e+00,-4.000000000000000000e+00,5.000000000000000000e+00,5.000000000000000000e+00,-1.000000000000000000e+00,-5.000000000000000000e+00,-3.000000000000000000e+00,-4.307861328125000000e-01,2.013549804687500000e-01,6.517333984375000000e-01,5.908203125000000000e-01
-2.000000000000000000e+00,-2.000000000000000000e+00,-1.000000000000000000e+00,-3.000000000000000000e+00,-1.500000000000000000e+01,-3.000000000000000000e+00,3.000000000000000000e+00,-1.000000000000000000e+00,-4.307861328125000000e-01,2.013549804687500000e-01,6.517333984375000000e-01,5.908203125000000000e-01
-1.000000000000000000e+00,0.000000000000000000e+00,2.600000000000000000e+01,1.600000000000000000e+01,2.000000000000000000e+00,1.000000000000000000e+00,1.000000000000000000e+00,0.000000000000000000e+00,-4.307861328125000000e-01,2.013549804687500000e-01,6.517333984375000000e-01,5.908203125000000000e-01
-1.000000000000000000e+00,-4.000000000000000000e+00,-3.800000000000000000e+01,-1.400000000000000000e+01,4.000000000000000000e+00,-2.000000000000000000e+00,-6.000000000000000000e+00,-3.000000000000000000e+00,-4.307861328125000000e-01,2.013549804687500000e-01,6.517333984375000000e-01,5.908203125000000000e-01
0.000000000000000000e+00,1.000000000000000000e+00,1.000000000000000000e+01,-1.000000000000000000e+00,-6.000000000000000000e+00,-1.000000000000000000e+00,0.000000000000000000e+00,3.000000000000000000e+00,-4.299316406250000000e-01,2.021484375000000000e-01,6.520385742187500000e-01,5.908813476562500000e-01
-1.000000000000000000e+00,-1.000000000000000000e+00,7.000000000000000000e+00,2.000000000000000000e+00,2.000000000000000000e+00,-1.000000000000000000e+00,-1.000000000000000000e+00,0.000000000000000000e+00,-4.299316406250000000e-01,2.021484375000000000e-01,6.520385742187500000e-01,5.908813476562500000e-01
-3.000000000000000000e+00,-5.000000000000000000e+00,-9.000000000000000000e+00,-1.600000000000000000e+01,-1.800000000000000000e+01,-6.000000000000000000e+00,-4.000000000000000000e+00,-2.000000000000000000e+00,-4.299316406250000000e-01,2.021484375000000000e-01,6.520385742187500000e-01,5.908813476562500000e-01
-1.000000000000000000e+00,1.000000000000000000e+00,1.000000000000000000e+01,1.000000000000000000e+00,-1.000000000000000000e+00,0.000000000000000000e+00,0.000000000000000000e+00,-3.000000000000000000e+00,-4.299316406250000000e-01,2.021484375000000000e-01,6.520385742187500000e-01,5.908813476562500000e-01
-1.000000000000000000e+00,-2.000000000000000000e+00,-1.000000000000000000e+00,0.000000000000000000e+00,4.000000000000000000e+00,-1.000000000000000000e+00,0.000000000000000000e+00,0.000000000000000000e+00,-4.290161132812500000e-01,2.028198242187500000e-01,6.524658203125000000e-01,5.908203125000000000e-01
0.000000000000000000e+00,-2.000000000000000000e+00,1.200000000000000000e+01,1.300000000000000000e+01,-2.000000000000000000e+00,-4.000000000000000000e+00,-4.000000000000000000e+00,1.000000000000000000e+00,-4.290161132812500000e-01,2.028198242187500000e-01,6.524658203125000000e-01,5.908203125000000000e-01
-3.000000000000000000e+00,-2.000000000000000000e+00,-1.300000000000000000e+01,-1.700000000000000000e+01,-5.000000000000000000e+00,0.000000000000000000e+00,0.000000000000000000e+00,-2.000000000000000000e+00,-4.290161132812500000e-01,2.028198242187500000e-01,6.524658203125000000e-01,5.908203125000000000e-01
1.000000000000000000e+00,4.000000000000000000e+00,1.000000000000000000e+01,1.100000000000000000e+01,5.000000000000000000e+00,-1.000000000000000000e+00,0.000000000000000000e+00,2.000000000000000000e+00,-4.290161132812500000e-01,2.028198242187500000e-01,6.524658203125000000e-01,5.908203125000000000e-01
-4.000000000000000000e+00,-4.000000000000000000e+00,-5.000000000000000000e+00,-2.400000000000000000e+01,-1.000000000000000000e+01,-3.000000000000000000e+00,0.000000000000000000e+00,-1.000000000000000000e+00,-4.284667968750000000e-01,2.034301757812500000e-01,6.529541015625000000e-01,5.903930664062500000e-01
-1.000000000000000000e+00,-1.000000000000000000e+00,5.000000000000000000e+00,1.300000000000000000e+01,1.400000000000000000e+01,3.000000000000000000e+00,4.000000000000000000e+00,2.000000000000000000e+00,-4.284667968750000000e-01,2.034301757812500000e-01,6.529541015625000000e-01,5.903930664062500000e-01
1.000000000000000000e+00,2.000000000000000000e+00,-3.000000000000000000e+00,1.700000000000000000e+01,2.100000000000000000e+01,4.000000000000000000e+00,-1.000000000000000000e+00,1.000000000000000000e+00,-4.284667968750000000e-01,2.034301757812500000e-01,6.529541015625000000e-01,5.903930664062500000e-01
-1.000000000000000000e+00,-2.000000000000000000e+00,2.100000000000000000e+01,-4.000000000000000000e+00,-7.000000000000000000e+00,-2.000000000000000000e+00,-3.000000000000000000e+00,-3.000000000000000000e+00,-4.284667968750000000e-01,2.034301757812500000e-01,6.529541015625000000e-01,5.903930664062500000e-01
-3.000000000000000000e+00,0.000000000000000000e+00,4.000000000000000000e+00,0.000000000000000000e+00,1.000000000000000000e+00,1.000000000000000000e+00,0.000000000000000000e+00,-2.000000000000000000e+00,-4.280395507812500000e-01,2.040405273437500000e-01,6.533203125000000000e-01,5.901489257812500000e-01
-3.000000000000000000e+00,-5.000000000000000000e+00,-9.000000000000000000e+00,-1.100000000000000000e+01,-1.200000000000000000e+01,-4.000000000000000000e+00,0.000000000000000000e+00,1.000000000000000000e+00,-4.280395507812500000e-01,2.040405273437500000e-01,6.533203125000000000e-01,5.901489257812500000e-01
-1.000000000000000000e+00,-1.000000000000000000e+00,-9.000000000000000000e+00,-1.700000000000000000e+01,-1.100000000000000000e+01,-3.000000000000000000e+00,-2.000000000000000000e+00,-3.000000000000000000e+00,-4.280395507812500000e-01,2.040405273437500000e-01,6.533203125000000000e-01,5.901489257812500000e-01
2.000000000000000000e+00,0.000000000000000000e+00,1.100000000000000000e+01,-1.000000000000000000e+00,-4.000000000000000000e+00,2.000000000000000000e+00,-1.000000000000000000e+00,1.000000000000000000e+00,-4.280395507812500000e-01,2.040405273437500000e-01,6.533203125000000000e-01,5.901489257812500000e-01
1.000000000000000000e+00,4.000000000000000000e+00,6.000000000000000000e+00,1.500000000000000000e+01,8.000000000000000000e+00,4.000000000000000000e+00,5.000000000000000000e+00,2.000000000000000000e+00,-4.272460937500000000e-01,2.046508789062500000e-01,6.537475585937500000e-01,5.900268554687500000e-01
0.000000000000000000e+00,0.000000000000000000e+00,-7.000000000000000000e+00,2.000000000000000000e+00,0.000000000000000000e+00,-2.000000000000000000e+00,-2.000000000000000000e+00,0.000000000000000000e+00,-4.272460937500000000e-01,2.046508789062500000e-01,6.537475585937500000e-01,5.900268554687500000e-01
1.000000000000000000e+00,-2.000000000000000000e+00,-1.500000000000000000e+01,-1.000000000000000000e+00,-6.000000000000000000e+00,-4.000000000000000000e+00,-3.000000000000000000e+00,-2.000000000000000000e+00,-4.272460937500000000e-01,2.046508789062500000e-01,6.537475585937500000e-01,5.900268554687500000e-01
1.000000000000000000e+00,2.000000000000000000e+00,1.000000000000000000e+01,-1.000000000000000000e+00,1.100000000000000000e+01,5.000000000000000000e+00,0.000000000000000000e+00,-1.000000000000000000e+00,-4.272460937500000000e-01,2.046508789062500000e-01,6.537475585937500000e-01,5.900268554687500000e-01
-5.000000000000000000e+00,-7.000000000000000000e+00,-2.000000000000000000e+00,0.000000000000000000e+00,-6.000000000000000000e+00,-4.000000000000000000e+00,-3.000000000000000000e+00,-4.000000000000000000e+00,-4.265747070312500000e-01,2.052612304687500000e-01,6.544189453125000000e-01,5.895385742187500000e-01
-1.000000000000000000e+00,1.000000000000000000e+00,-1.000000000000000000e+00,-1.400000000000000000e+01,-3.000000000000000000e+00,-4.000000000000000000e+00,-1.000000000000000000e+00,-2.000000000000000000e+00,-4.265747070312500000e-01,2.052612304687500000e-01,6.544189453125000000e-01,5.895385742187500000e-01
0.000000000000000000e+00,-2.000000000000000000e+00,-1.500000000000000000e+01,3.000000000000000000e+00,-9.000000000000000000e+00,-5.000000000000000000e+00,-1.000000000000000000e+00,-2.000000000000000000e+00,-4.265747070312500000e-01,2.052612304687500000e-01,6.544189453125000000e-01,5.895385742187500000e-01
-1.000000000000000000e+00,-1.000000000000000000e+00,-4.000000000000000000e+00,-8.000000000000000000e+00,-1.000000000000000000e+01,-3.000000000000000000e+00,-3.000000000000000000e+00,-4.000000000000000000e+00,-4.265747070312500000e-01,2.052612304687500000e-01,6.544189453125000000e-01,5.895385742187500000e-01
