-2.000000000000000000e+00,-1.000000000000000000e+00,2.000000000000000000e+00,-5.000000000000000000e+00,0.000000000000000000e+00,-3.000000000000000000e+00,-2.000000000000000000e+00,-1.000000000000000000e+00,-4.530029296875000000e-01,1.503906250000000000e-01,8.060913085937500000e-01,3.497314453125000000e-01
3.000000000000000000e+00,5.000000000000000000e+00,1.000000000000000000e+00,-2.400000000000000000e+01,-9.000000000000000000e+00,-3.000000000000000000e+00,1.000000000000000000e+00,1.000000000000000000e+00,-4.530029296875000000e-01,1.503906250000000000e-01,8.060913085937500000e-01,3.497314453125000000e-01
-2.000000000000000000e+00,-6.000000000000000000e+00,-1.000000000000000000e+01,3.200000000000000000e+01,1.500000000000000000e+01,5.000000000000000000e+00,0.000000000000000000e+00,-1.000000000000000000e+00,-4.530029296875000000e-01,1.503906250000000000e-01,8.060913085937500000e-01,3.497314453125000000e-01
0.000000000000000000e+00,0.000000000000000000e+00,5.000000000000000000e+00,8.000000000000000000e+00,7.000000000000000000e+00,3.000000000000000000e+00,1.000000000000000000e+00,1.000000000000000000e+00,-4.530029296875000000e-01,1.503906250000000000e-01,8.060913085937500000e-01,3.497314453125000000e-01
0.000000000000000000e+00,-2.000000000000000000e+00,-6.000000000000000000e+00,-1.900000000000000000e+01,-8.000000000000000000e+00,-4.000000000000000000e+00,-2.000000000000000000e+00,-2.000000000000000000e+00,-4.524536132812500000e-01,1.466064453125000000e-01,8.070068359375000000e-01,3.499755859375000000e-01
2.000000000000000000e+00,0.000000000000000000e+00,0.000000000000000000e+00,1.100000000000000000e+01,7.000000000000000000e+00,1.000000000000000000e+00,0.000000000000000000e+00,2.000000000000000000e+00,-4.524536132812500000e-01,1.466064453125000000e-01,8.070068359375000000e-01,3.499755859375000000e-01
2.000000000000000000e+00,1.000000000000000000e+00,0.000000000000000000e+00,-1.900000000000000000e+01,-1.000000000000000000e+01,-2.000000000000000000e+00,1.000000000000000000e+00,2.000000000000000000e+00,-4.524536132812500000e-01,1.466064453125000000e-01,8.070068359375000000e-01,3.499755859375000000e-01
-4.000000000000000000e+00,-3.000000000000000000e+00,-1.000000000000000000e+00,3.000000000000000000e+00,-1.000000000000000000e+00,-3.000000000000000000e+00,-3.000000000000000000e+00,-2.000000000000000000e+00,-4.524536132812500000e-01,1.466064453125000000e-01,8.070068359375000000e-01,3.499755859375000000e-01
-2.000000000000000000e+00,-1.000000000000000000e+00,-2.000000000000000000e+00,2.000000000000000000e+00,1.000000000000000000e+00,1.000000000000000000e+00,-2.000000000000000000e+00,-1.000000000000000000e+00,-4.511108398437500000e-01,1.421508789062500000e-01,8.082885742187500000e-01,3.506469726562500000e-01
-1.000000000000000000e+00,-1.000000000000000000e+00,2.000000000000000000e+00,0.000000000000000000e+00,-6.000000000000000000e+00,-2.000000000000000000e+00,0.000000000000000000e+00,-1.000000000000000000e+00,-4.511108398437500000e-01,1.421508789062500000e-01,8.082885742187500000e-01,3.506469726562500000e-01
-1.000000000000000000e+00,-1.000000000000000000e+00,0.000000000000000000e+00,-1.200000000000000000e+01,-4.000000000000000000e+00,-1.000000000000000000e+00,0.000000000000000000e+00,-3.000000000000000000e+00,-4.511108398437500000e-01,1.421508789062500000e-01,8.082885742187500000e-01,3.506469726562500000e-01
0.000000000000000000e+00,0.000000000000000000e+00,-3.000000000000000000e+00,-4.000000000000000000e+00,-4.000000000000000000e+00,-1.000000000000000000e+00,-1.000000000000000000e+00,-1.000000000000000000e+00,-4.511108398437500000e-01,1.421508789062500000e-01,8.082885742187500000e-01,3.506469726562500000e-01
1.000000000000000000e+00,0.000000000000000000e+00,5.000000000000000000e+00,0.000000000000000000e+00,0.000000000000000000e+00,-1.000000000000000000e+00,-1.000000000000000000e+00,1.000000000000000000e+00,-4.486694335937500000e-01,1.380004882812500000e-01,8.098144531250000000e-01,3.518066406250000000e-01
-4.000000000000000000e+00,-4.000000000000000000e+00,3.000000000000000000e+00,-4.000000000000000000e+00,-1.000000000000000000e+00,-1.000000000000000000e+00,1.000000000000000000e+00,-2.000000000000000000e+00,-4.486694335937500000e-01,1.380004882812500000e-01,8.098144531250000000e-01,3.518066406250000000e-01
0.000000000000000000e+00,-2.000000000000000000e+00,1.000000000000000000e+00,-5.000000000000000000e+00,-6.000000000000000000e+00,-3.000000000000000000e+00,-1.000000000000000000e+00,2.000000000000000000e+00,-4.486694335937500000e-01,1.380004882812500000e-01,8.098144531250000000e-01,3.518066406250000000e-01
-2.000000000000000000e+00,-1.000000000000000000e+00,-1.000000000000000000e+00,-7.000000000000000000e+00,-6.000000000000000000e+00,-2.000000000000000000e+00,0.000000000000000000e+00,-3.000000000000000000e+00,-4.486694335937500000e-01,1.380004882812500000e-01,8.098144531250000000e-01,3.518066406250000000e-01
3.000000000000000000e+00,2.000000000000000000e+00,-1.000000000000000000e+00,1.500000000000000000e+01,6.000000000000000000e+00,-2.000000000000000000e+00,1.000000000000000000e+00,1.000000000000000000e+00,-4.458007812500000000e-01,1.357421875000000000e-01,8.109741210937500000e-01,3.537597656250000000e-01
-3.000000000000000000e+00,-3.000000000000000000e+00,2.000000000000000000e+00,0.000000000000000000e+00,-2.000000000000000000e+00,2.000000000000000000e+00,-4.000000000000000000e+00,-3.000000000000000000e+00,-4.458007812500000000e-01,1.357421875000000000e-01,8.109741210937500000e-01,3.537597656250000000e-01
-1.000000000000000000e+00,0.000000000000000000e+00,0.000000000000000000e+00,-2.000000000000000000e+00,-8.000000000000000000e+00,-2.000000000000000000e+00,-2.000000000000000000e+00,0.000000000000000000e+00,-4.458007812500000000e-01,1.357421875000000000e-01,8.109741210937500000e-01,3.537597656250000000e-01
-4.000000000000000000e+00,-1.000000000000000000e+00,-2.000000000000000000e+00,-5.000000000000000000e+00,7.000000000000000000e+00,0.000000000000000000e+00,-2.000000000000000000e+00,-2.000000000000000000e+00,-4.458007812500000000e-01,1.357421875000000000e-01,8.109741210937500000e-01,3.537597656250000000e-01
-1.000000000000000000e+00,0.000000000000000000e+00,2.000000000000000000e+00,-1.000000000000000000e+00,1.000000000000000000e+00,-2.000000000000000000e+00,-1.000000000000000000e+00,-2.000000000000000000e+00,-4.428100585937500000e-01,1.351318359375000000e-01,8.120727539062500000e-01,3.551635742187500000e-01
4.000000000000000000e+00,-1.000000000000000000e+00,-1.000000000000000000e+00,4.000000000000000000e+00,-1.000000000000000000e+00,0.000000000000000000e+00,3.000000000000000000e+00,4.000000000000000000e+00,-4.428100585937500000e-01,1.351318359375000000e-01,8.120727539062500000e-01,3.551635742187500000e-01
0.000000000000000000e+00,-1.000000000000000000e+00,-1.000000000000000000e+00,-1.900000000000000000e+01,-1.000000000000000000e+01,-4.000000000000000000e+00,-1.000000000000000000e+00,-1.000000000000000000e+00,-4.428100585937500000e-01,1.351318359375000000e-01,8.120727539062500000e-01,3.551635742187500000e-01
-1.000000000000000000e+00,0.000000000000000000e+00,-3.000000000000000000e+00,1.000000000000000000e+00,2.000000000000000000e+00,1.000000000000000000e+00,-1.000000000000000000e+00,-2.000000000000000000e+00,-4.428100585937500000e-01,1.351318359375000000e-01,8.120727539062500000e-01,3.551635742187500000e-01
-3.000000000000000000e+00,-4.000000000000000000e+00,-4.000000000000000000e+00,1.100000000000000000e+01,2.000000000000000000e+00,0.000000000000000000e+00,0.000000000000000000e+00,-1.000000000000000000e+00,-4.407958984375000000e-01,1.339721679687500000e-01,8.131713867187500000e-01,3.555908203125000000e-01
0.000000000000000000e+00,-1.000000000000000000e+00,1.000000000000000000e+00,-2.000000000000000000e+00,1.000000000000000000e+00,-2.000000000000000000e+00,0.000000000000000000e+00,0.000000000000000000e+00,-4.407958984375000000e-01,1.339721679687500000e-01,8.131713867187500000e-01,3.555908203125000000e-01
-2.000000000000000000e+00,0.000000000000000000e+00,2.000000000000000000e+00,-2.000000000000000000e+00,1.000000000000000000e+00,0.000000000000000000e+00,0.000000000000000000e+00,-2.000000000000000000e+00,-4.407958984375000000e-01,1.339721679687500000e-01,8.131713867187500000e-01,3.555908203125000000e-01
2.000000000000000000e+00,1.000000000000000000e+00,6.000000000000000000e+00,1.000000000000000000e+00,-5.000000000000000000e+00,-2.000000000000000000e+00,0.000000000000000000e+00,0.000000000000000000e+00,-4.407958984375000000e-01,1.339721679687500000e-01,8.131713867187500000e-01,3.555908203125000000e-01
0.000000000000000000e+00,1.000000000000000000e+00,-4.000000000000000000e+00,-2.000000000000000000e+00,-2.000000000000000000e+00,0.000000000000000000e+00,-2.000000000000000000e+00,-3.000000000000000000e+00,-4.396972656250000000e-01,1.331176757812500000e-01,8.137207031250000000e-01,3.558959960937500000e-01
0.000000000000000000e+00,2.000000000000000000e+00,2.000000000000000000e+00,-2.300000000000000000e+01,-7.000000000000000000e+00,-1.000000000000000000e+00,-3.000000000000000000e+00,-1.000000000000000000e+00,-4.396972656250000000e-01,1.331176757812500000e-01,8.137207031250000000e-01,3.558959960937500000e-01
-1.000000000000000000e+00,-6.000000000000000000e+00,-1.100000000000000000e+01,4.200000000000000000e+01,1.500000000000000000e+01,1.000000000000000000e+00,0.000000000000000000e+00,0.000000000000000000e+00,-4.396972656250000000e-01,1.331176757812500000e-01,8.137207031250000000e-01,3.558959960937500000e-01
-2.000000000000000000e+00,2.000000000000000000e+00,2.000000000000000000e+00,-1.100000000000000000e+01,-4.000000000000000000e+00,-2.000000000000000000e+00,-1.000000000000000000e+00,-2.000000000000000000e+00,-4.396972656250000000e-01,1.331176757812500000e-01,8.137207031250000000e-01,3.558959960937500000e-01
-2.000000000000000000e+00,0.000000000000000000e+00,4.000000000000000000e+00,0.000000000000000000e+00,2.000000000000000000e+00,0.000000000000000000e+00,-2.000000000000000000e+00,-1.000000000000000000e+00,-4.393310546875000000e-01,1.333618164062500000e-01,8.137817382812500000e-01,3.562622070312500000e-01
1.000000000000000000e+00,0.000000000000000000e+00,-3.000000000000000000e+00,4.000000000000000000e+00,0.000000000000000000e+00,-1.000000000000000000e+00,-2.000000000000000000e+00,1.000000000000000000e+00,-4.393310546875000000e-01,1.333618164062500000e-01,8.137817382812500000e-01,3.562622070312500000e-01
-1.000000000000000000e+00,1.000000000000000000e+00,2.000000000000000000e+00,-1.300000000000000000e+01,-8.000000000000000000e+00,-3.000000000000000000e+00,-3.000000000000000000e+00,-3.000000000000000000e+00,-4.393310546875000000e-01,1.333618164062500000e-01,8.137817382812500000e-01,3.562622070312500000e-01
-2.000000000000000000e+00,-4.000000000000000000e+00,-4.000000000000000000e+00,9.000000000000000000e+00,-4.000000000000000000e+00,-7.000000000000000000e+00,-3.000000000000000000e+00,-1.000000000000000000e+00,-4.393310546875000000e-01,1.333618164062500000e-01,8.137817382812500000e-01,3.562622070312500000e-01
-1.000000000000000000e+00,-1.000000000000000000e+00,-1.000000000000000000e+00,-3.000000000000000000e+00,4.000000000000000000e+00,3.000000000000000000e+00,2.000000000000000000e+00,0.000000000000000000e+00,-4.396362304687500000e-01,1.328735351562500000e-01,8.139038085937500000e-01,3.557128906250000000e-01
-1.000000000000000000e+00,2.000000000000000000e+00,-1.000000000000000000e+00,0.000000000000000000e+00,-6.000000000000000000e+00,0.000000000000000000e+00,3.000000000000000000e+00,1.000000000000000000e+00,-4.396362304687500000e-01,1.328735351562500000e-01,8.139038085937500000e-01,3.557128906250000000e-01
-1.000000000000000000e+00,0.000000000000000000e+00,-3.000000000000000000e+00,-3.000000000000000000e+00,-2.000000000000000000e+00,-1.000000000000000000e+00,-1.000000000000000000e+00,0.000000000000000000e+00,-4.396362304687500000e-01,1.328735351562500000e-01,8.139038085937500000e-01,3.557128906250000000e-01
2.000000000000000000e+00,-1.000000000000000000e+00,-6.000000000000000000e+00,0.000000000000000000e+00,0.000000000000000000e+00,2.000000000000000000e+00,0.000000000000000000e+00,3.000000000000000000e+00,-4.396362304687500000e-01,1.328735351562500000e-01,8.139038085937500000e-01,3.557128906250000000e-01
-2.000000000000000000e+00,-4.000000000000000000e+00,0.000000000000000000e+00,-8.000000000000000000e+00,-7.000000000000000000e+00,-2.000000000000000000e+00,-3.000000000000000000e+00,-2.000000000000000000e+00,-4.404296875000000000e-01,1.315917968750000000e-01,8.142089843750000000e-01,3.545532226562500000e-01
-3.000000000000000000e+00,-2.000000000000000000e+00,3.000000000000000000e+00,9.000000000000000000e+00,3.000000000000000000e+00,-1.000000000000000000e+00,-2.000000000000000000e+00,-2.000000000000000000e+00,-4.404296875000000000e-01,1.315917968750000000e-01,8.142089843750000000e-01,3.545532226562500000e-01
-1.000000000000000000e+00,2.000000000000000000e+00,4.000000000000000000e+00,-8.000000000000000000e+00,-2.000000000000000000e+00,-2.000000000000000000e+00,0.000000000000000000e+00,0.000000000000000000e+00,-4.404296875000000000e-01,1.315917968750000000e-01,8.142089843750000000e-01,3.545532226562500000e-01
-3.000000000000000000e+00,-1.000000000000000000e+00,-2.000000000000000000e+00,-2.000000000000000000e+00,-3.000000000000000000e+00,-3.000000000000000000e+00,-3.000000000000000000e+00,-4.000000000000000000e+00,-4.404296875000000000e-01,1.315917968750000000e-01,8.142089843750000000e-01,3.545532226562500000e-01
1.000000000000000000e+00,-1.000000000000000000e+00,-3.000000000000000000e+00,-9.000000000000000000e+00,-5.000000000000000000e+00,-3.000000000000000000e+00,-1.000000000000000000e+00,-2.000000000000000000e+00,-4.413452148437500000e-01,1.300659179687500000e-01,8.144531250000000000e-01,3.535156250000000000e-01
-1.000000000000000000e+00,-1.000000000000000000e+00,-1.000000000000000000e+00,2.100000000000000000e+01,1.400000000000000000e+01,3.000000000000000000e+00,0.000000000000000000e+00,0.000000000000000000e+00,-4.413452148437500000e-01,1.300659179687500000e-01,8.144531250000000000e-01,3.535156250000000000e-01
0.000000000000000000e+00,-4.000000000000000000e+00,-2.000000000000000000e+00,0.000000000000000000e+00,-1.000000000000000000e+00,0.000000000000000000e+00,1.000000000000000000e+00,0.000000000000000000e+00,-4.413452148437500000e-01,1.300659179687500000e-01,8.144531250000000000e-01,3.535156250000000000e-01
-4.000000000000000000e+00,-1.000000000000000000e+00,-2.000000000000000000e+00,-3.000000000000000000e+00,-1.000000000000000000e+00,-1.000000000000000000e+00,-1.000000000000000000e+00,-1.000000000000000000e+00,-4.413452148437500000e-01,1.300659179687500000e-01,8.144531250000000000e-01,3.535156250000000000e-01
-1.000000000000000000e+00,-4.000000000000000000e+00,-3.000000000000000000e+00,2.000000000000000000e+00,1.000000000000000000e+00,-1.000000000000000000e+00,-2.000000000000000000e+00,-4.000000000000000000e+00,-4.423217773437500000e-01,1.290283203125000000e-01,8.143310546875000000e-01,3.529663085937500000e-01
1.000000000000000000e+00,0.000000000000000000e+00,-1.000000000000000000e+00,-2.000000000000000000e+00,-1.000000000000000000e+00,-2.000000000000000000e+00,0.000000000000000000e+00,0.000000000000000000e+00,-4.423217773437500000e-01,1.290283203125000000e-01,8.143310546875000000e-01,3.529663085937500000e-01
-1.000000000000000000e+00,0.000000000000000000e+00,2.000000000000000000e+00,-1.900000000000000000e+01,-5.000000000000000000e+00,-2.000000000000000000e+00,-2.000000000000000000e+00,0.000000000000000000e+00,-4.423217773437500000e-01,1.290283203125000000e-01,8.143310546875000000e-01,3.529663085937500000e-01
-1.000000000000000000e+00,-2.000000000000000000e+00,-5.000000000000000000e+00,2.800000000000000000e+01,7.000000000000000000e+00,0.000000000000000000e+00,0.000000000000000000e+00,-1.000000000000000000e+00,-4.423217773437500000e-01,1.290283203125000000e-01,8.143310546875000000e-01,3.529663085937500000e-01
-3.000000000000000000e+00,-3.000000000000000000e+00,-5.000000000000000000e+00,-5.000000000000000000e+00,1.000000000000000000e+00,0.000000000000000000e+00,1.000000000000000000e+00,-1.000000000000000000e+00,-4.433593750000000000e-01,1.276245117187500000e-01,8.141479492187500000e-01,3.524780273437500000e-01
0.000000000000000000e+00,1.000000000000000000e+00,-2.000000000000000000e+00,-6.000000000000000000e+00,-5.000000000000000000e+00,-3.000000000000000000e+00,-2.000000000000000000e+00,0.000000000000000000e+00,-4.433593750000000000e-01,1.276245117187500000e-01,8.141479492187500000e-01,3.524780273437500000e-01
-1.000000000000000000e+00,-3.000000000000000000e+00,-5.000000000000000000e+00,3.000000000000000000e+00,6.000000000000000000e+00,2.000000000000000000e+00,1.000000000000000000e+00,0.000000000000000000e+00,-4.433593750000000000e-01,1.276245117187500000e-01,8.141479492187500000e-01,3.524780273437500000e-01
-2.000000000000000000e+00,-3.000000000000000000e+00,7.000000000000000000e+00,-1.500000000000000000e+01,-7.000000000000000000e+00,0.000000000000000000e+00,0.000000000000000000e+00,1.000000000000000000e+00,-4.433593750000000000e-01,1.276245117187500000e-01,8.141479492187500000e-01,3.524780273437500000e-01
-2.000000000000000000e+00,-2.000000000000000000e+00,-3.000000000000000000e+00,6.000000000000000000e+00,-1.000000000000000000e+00,0.000000000000000000e+00,-1.000000000000000000e+00,0.000000000000000000e+00,-4.446411132812500000e-01,1.264648437500000000e-01,8.135375976562500000e-01,3.526000976562500000e-01
0.000000000000000000e+00,-2.000000000000000000e+00,-1.000000000000000000e+00,0.000000000000000000e+00,-4.000000000000000000e+00,-2.000000000000000000e+00,-2.000000000000000000e+00,-1.000000000000000000e+00,-4.446411132812500000e-01,1.264648437500000000e-01,8.135375976562500000e-01,3.526000976562500000e-01
-1.000000000000000000e+00,1.000000000000000000e+00,0.000000000000000000e+00,-7.000000000000000000e+00,2.000000000000000000e+00,2.000000000000000000e+00,0.000000000000000000e+00,-2.000000000000000000e+00,-4.446411132812500000e-01,1.264648437500000000e-01,8.135375976562500000e-01,3.526000976562500000e-01
0.000000000000000000e+00,2.000000000000000000e+00,-1.000000000000000000e+00,1.200000000000000000e+01,-3.000000000000000000e+00,-1.000000000000000000e+00,0.000000000000000000e+00,-1.000000000000000000e+00,-4.446411132812500000e-01,1.264648437500000000e-01,8.135375976562500000e-01,3.526000976562500000e-01
1.000000000000000000e+00,3.000000000000000000e+00,0.000000000000000000e+00,0.000000000000000000e+00,4.000000000000000000e+00,2.000000000000000000e+00,2.000000000000000000e+00,1.000000000000000000e+00,-4.456787109375000000e-01,1.268920898437500000e-01,8.124389648437500000e-01,3.538208007812500000e-01
-8.000000000000000000e+00,-1.000000000000000000e+01,-8.000000000000000000e+00,-1.200000000000000000e+01,-6.000000000000000000e+00,-7.000000000000000000e+00,-9.000000000000000000e+00,-5.000000000000000000e+00,-4.456787109375000000e-01,1.268920898437500000e-01,8.124389648437500000e-01,3.538208007812500000e-01
1.000000000000000000e+00,1.000000000000000000e+00,-1.000000000000000000e+00,9.000000000000000000e+00,6.000000000000000000e+00,0.000000000000000000e+00,0.000000000000000000e+00,-2.000000000000000000e+00,-4.456787109375000000e-01,1.268920898437500000e-01,8.124389648437500000e-01,3.538208007812500000e-01
0.000000000000000000e+00,-4.000000000000000000e+00,-1.000000000000000000e+00,-5.000000000000000000e+00,2.000000000000000000e+00,0.000000000000000000e+00,-1.000000000000000000e+00,0.000000000000000000e+00,-4.456787109375000000e-01,1.268920898437500000e-01,8.124389648437500000e-01,3.538208007812500000e-01
0.000000000000000000e+00,0.000000000000000000e+00,2.000000000000000000e+00,-6.000000000000000000e+00,-1.100000000000000000e+01,-2.000000000000000000e+00,2.000000000000000000e+00,1.000000000000000000e+00,-4.458618164062500000e-01,1.285400390625000000e-01,8.115234375000000000e-01,3.550415039062500000e-01
0.000000000000000000e+00,0.000000000000000000e+00,-3.000000000000000000e+00,1.300000000000000000e+01,1.100000000000000000e+01,1.000000000000000000e+00,-1.000000000000000000e+00,-3.000000000000000000e+00,-4.458618164062500000e-01,1.285400390625000000e-01,8.115234375000000000e-01,3.550415039062500000e-01
-1.000000000000000000e+00,-1.000000000000000000e+00,3.000000000000000000e+00,-9.000000000000000000e+00,-9.000000000000000000e+00,-4.000000000000000000e+00,-1.000000000000000000e+00,-2.000000000000000000e+00,-4.458618164062500000e-01,1.285400390625000000e-01,8.115234375000000000e-01,3.550415039062500000e-01
1.000000000000000000e+00,1.000000000000000000e+00,-1.000000000000000000e+00,0.000000000000000000e+00,-3.000000000000000000e+00,-2.000000000000000000e+00,-1.000000000000000000e+00,-2.000000000000000000e+00,-4.458618164062500000e-01,1.285400390625000000e-01,8.115234375000000000e-01,3.550415039062500000e-01
-8.000000000000000000e+00,-2.000000000000000000e+00,0.000000000000000000e+00,-2.500000000000000000e+01,-4.000000000000000000e+00,-4.000000000000000000e+00,-2.000000000000000000e+00,1.000000000000000000e+00,-4.458007812500000000e-01,1.292114257812500000e-01,8.110961914062500000e-01,3.558959960937500000e-01
8.000000000000000000e+00,2.000000000000000000e+00,-1.000000000000000000e+00,1.000000000000000000e+01,4.000000000000000000e+00,2.000000000000000000e+00,1.000000000000000000e+00,1.000000000000000000e+00,-4.458007812500000000e-01,1.292114257812500000e-01,8.110961914062500000e-01,3.558959960937500000e-01
-4.000000000000000000e+00,-5.000000000000000000e+00,-1.000000000000000000e+00,2.000000000000000000e+00,-3.000000000000000000e+00,-1.000000000000000000e+00,-1.000000000000000000e+00,-1.000000000000000000e+00,-4.458007812500000000e-01,1.292114257812500000e-01,8.110961914062500000e-01,3.558959960937500000e-01
-2.000000000000000000e+00,-1.100000000000000000e+01,2.000000000000000000e+00,-9.000000000000000000e+00,-4.000000000000000000e+00,0.000000000000000000e+00,1.000000000000000000e+00,-1.000000000000000000e+00,-4.458007812500000000e-01,1.292114257812500000e-01,8.110961914062500000e-01,3.558959960937500000e-01
5.000000000000000000e+00,5.000000000000000000e+00,1.000000000000000000e+00,4.000000000000000000e+00,-6.000000000000000000e+00,-2.000000000000000000e+00,-2.000000000000000000e+00,0.000000000000000000e+00,-4.456787109375000000e-01,1.293945312500000000e-01,8.106079101562500000e-01,3.569946289062500000e-01
-3.000000000000000000e+00,-4.000000000000000000e+00,-2.000000000000000000e+00,-1.900000000000000000e+01,-9.000000000000000000e+00,-2.000000000000000000e+00,-2.000000000000000000e+00,-3.000000000000000000e+00,-4.456787109375000000e-01,1.293945312500000000e-01,8.106079101562500000e-01,3.569946289062500000e-01
1.000000000000000000e+00,5.000000000000000000e+00,2.000000000000000000e+00,2.100000000000000000e+01,1.300000000000000000e+01,1.000000000000000000e+00,1.000000000000000000e+00,-2.000000000000000000e+00,-4.456787109375000000e-01,1.293945312500000000e-01,8.106079101562500000e-01,3.569946289062500000e-01
1.000000000000000000e+00,3.000000000000000000e+00,-3.000000000000000000e+00,1.000000000000000000e+00,7.000000000000000000e+00,2.000000000000000000e+00,1.000000000000000000e+00,0.000000000000000000e+00,-4.456787109375000000e-01,1.293945312500000000e-01,8.106079101562500000e-01,3.569946289062500000e-01
-5.000000000000000000e+00,-1.000000000000000000e+01,-7.000000000000000000e+00,0.000000000000000000e+00,-9.000000000000000000e+00,-2.000000000000000000e+00,-3.000000000000000000e+00,-3.000000000000000000e+00,-4.452514648437500000e-01,1.296997070312500000e-01,8.102416992187500000e-01,3.583374023437500000e-01
-3.000000000000000000e+00,-1.000000000000000000e+00,2.000000000000000000e+00,5.000000000000000000e+00,1.100000000000000000e+01,2.000000000000000000e+00,0.000000000000000000e+00,-2.000000000000000000e+00,-4.452514648437500000e-01,1.296997070312500000e-01,8.102416992187500000e-01,3.583374023437500000e-01
0.000000000000000000e+00,-1.000000000000000000e+00,3.000000000000000000e+00,-1.300000000000000000e+01,-1.300000000000000000e+01,-1.000000000000000000e+00,-1.000000000000000000e+00,1.000000000000000000e+00,-4.452514648437500000e-01,1.296997070312500000e-01,8.102416992187500000e-01,3.583374023437500000e-01
-2.000000000000000000e+00,-1.000000000000000000e+00,1.000000000000000000e+00,-9.000000000000000000e+00,-4.000000000000000000e+00,-4.000000000000000000e+00,-1.000000000000000000e+00,0.000000000000000000e+00,-4.452514648437500000e-01,1.296997070312500000e-01,8.102416992187500000e-01,3.583374023437500000e-01
1.000000000000000000e+00,2.000000000000000000e+00,1.000000000000000000e+00,1.100000000000000000e+01,5.000000000000000000e+00,-1.000000000000000000e+00,0.000000000000000000e+00,-1.000000000000000000e+00,-4.447631835937500000e-01,1.290283203125000000e-01,8.102416992187500000e-01,3.591918945312500000e-01
1.000000000000000000e+00,2.000000000000000000e+00,4.000000000000000000e+00,-8.000000000000000000e+00,-9.000000000000000000e+00,-3.000000000000000000e+00,-2.000000000000000000e+00,-1.000000000000000000e+00,-4.447631835937500000e-01,1.290283203125000000e-01,8.102416992187500000e-01,3.591918945312500000e-01
-3.000000000000000000e+00,0.000000000000000000e+00,4.000000000000000000e+00,3.000000000000000000e+00,0.000000000000000000e+00,1.000000000000000000e+00,0.000000000000000000e+00,-1.000000000000000000e+00,-4.447631835937500000e-01,1.290283203125000000e-01,8.102416992187500000e-01,3.591918945312500000e-01
0.000000000000000000e+00,2.000000000000000000e+00,2.000000000000000000e+00,3.000000000000000000e+00,-1.000000000000000000e+00,2.000000000000000000e+00,0.000000000000000000e+00,1.000000000000000000e+00,-4.447631835937500000e-01,1.290283203125000000e-01,8.102416992187500000e-01,3.591918945312500000e-01
0.000000000000000000e+00,-4.000000000000000000e+00,-6.000000000000000000e+00,-1.000000000000000000e+01,-2.000000000000000000e+00,-2.000000000000000000e+00,-2.000000000000000000e+00,-3.000000000000000000e+00,-4.441528320312500000e-01,1.273193359375000000e-01,8.106689453125000000e-01,3.594970703125000000e-01
-1.000000000000000000e+00,0.000000000000000000e+00,1.000000000000000000e+00,0.000000000000000000e+00,-6.000000000000000000e+00,-1.000000000000000000e+00,2.000000000000000000e+00,0.000000000000000000e+00,-4.441528320312500000e-01,1.273193359375000000e-01,8.106689453125000000e-01,3.594970703125000000e-01
-2.000000000000000000e+00,0.000000000000000000e+00,-3.000000000000000000e+00,-1.000000000000000000e+00,-3.000000000000000000e+00,-2.000000000000000000e+00,0.000000000000000000e+00,0.000000000000000000e+00,-4.441528320312500000e-01,1.273193359375000000e-01,8.106689453125000000e-01,3.594970703125000000e-01
0.000000000000000000e+00,2.000000000000000000e+00,-2.000000000000000000e+00,-1.500000000000000000e+01,0.000000000000000000e+00,0.000000000000000000e+00,-2.000000000000000000e+00,-3.000000000000000000e+00,-4.441528320312500000e-01,1.273193359375000000e-01,8.106689453125000000e-01,3.594970703125000000e-01
-1.000000000000000000e+00,0.000000000000000000e+00,5.000000000000000000e+00,1.000000000000000000e+01,5.000000000000000000e+00,3.000000000000000000e+00,0.000000000000000000e+00,0.000000000000000000e+00,-4.431762695312500000e-01,1.260986328125000000e-01,8.112792968750000000e-01,3.598022460937500000e-01
-2.000000000000000000e+00,0.000000000000000000e+00,-1.000000000000000000e+00,-7.000000000000000000e+00,-5.000000000000000000e+00,-2.000000000000000000e+00,-1.000000000000000000e+00,-2.000000000000000000e+00,-4.431762695312500000e-01,1.260986328125000000e-01,8.112792968750000000e-01,3.598022460937500000e-01
1.000000000000000000e+00,-3.000000000000000000e+00,5.000000000000000000e+00,-1.000000000000000000e+00,0.000000000000000000e+00,-2.000000000000000000e+00,-2.000000000000000000e+00,1.000000000000000000e+00,-4.431762695312500000e-01,1.260986328125000000e-01,8.112792968750000000e-01,3.598022460937500000e-01
0.000000000000000000e+00,-1.000000000000000000e+00,-2.000000000000000000e+00,-4.000000000000000000e+00,-4.000000000000000000e+00,-2.000000000000000000e+00,-2.000000000000000000e+00,-1.000000000000000000e+00,-4.431762695312500000e-01,1.260986328125000000e-01,8.112792968750000000e-01,3.598022460937500000e-01
-2.000000000000000000e+00,3.000000000000000000e+00,1.200000000000000000e+01,1.000000000000000000e+00,-2.000000000000000000e+00,-2.000000000000000000e+00,-2.000000000000000000e+00,-1.000000000000000000e+00,-4.423828125000000000e-01,1.256103515625000000e-01,8.115234375000000000e-01,3.604125976562500000e-01
-3.000000000000000000e+00,-4.000000000000000000e+00,-1.400000000000000000e+01,4.000000000000000000e+00,3.000000000000000000e+00,1.000000000000000000e+00,1.000000000000000000e+00,0.000000000000000000e+00,-4.423828125000000000e-01,1.256103515625000000e-01,8.115234375000000000e-01,3.604125976562500000e-01
-2.000000000000000000e+00,0.000000000000000000e+00,3.000000000000000000e+00,-1.000000000000000000e+01,-5.000000000000000000e+00,-3.000000000000000000e+00,-1.000000000000000000e+00,-5.000000000000000000e+00,-4.423828125000000000e-01,1.256103515625000000e-01,8.115234375000000000e-01,3.604125976562500000e-01
4.000000000000000000e+00,2.000000000000000000e+00,1.000000000000000000e+00,5.000000000000000000e+00,4.000000000000000000e+00,2.000000000000000000e+00,1.000000000000000000e+00,3.000000000000000000e+00,-4.423828125000000000e-01,1.256103515625000000e-01,8.115234375000000000e-01,3.604125976562500000e-01
-4.000000000000000000e+00,-7.000000000000000000e+00,-1.100000000000000000e+01,-1.300000000000000000e+01,-5.000000000000000000e+00,-1.000000000000000000e+00,-2.000000000000000000e+00,-3.000000000000000000e+00,-4.415283203125000000e-01,1.258544921875000000e-01,8.117065429687500000e-01,3.609619140625000000e-01
-1.000000000000000000e+00,0.000000000000000000e+00,9.000000000000000000e+00,5.000000000000000000e+00,2.000000000000000000e+00,0.000000000000000000e+00,-1.000000000000000000e+00,1.000000000000000000e+00,-4.415283203125000000e-01,1.258544921875000000e-01,8.117065429687500000e-01,3.609619140625000000e-01
0.000000000000000000e+00,-2.000000000000000000e+00,-8.000000000000000000e+00,1.000000000000000000e+00,-6.000000000000000000e+00,-3.000000000000000000e+00,-2.000000000000000000e+00,-2.000000000000000000e+00,-4.415283203125000000e-01,1.258544921875000000e-01,8.117065429687500000e-01,3.609619140625000000e-01
-4.000000000000000000e+00,-4.000000000000000000e+00,2.000000000000000000e+00,-7.000000000000000000e+00,-3.000000000000000000e+00,-2.000000000000000000e+00,-3.000000000000000000e+00,-3.000000000000000000e+00,-4.415283203125000000e-01,1.258544921875000000e-01,8.117065429687500000e-01,3.609619140625000000e-01
1.000000000000000000e+00,3.000000000000000000e+00,4.000000000000000000e+00,1.000000000000000000e+00,0.000000000000000000e+00,1.000000000000000000e+00,0.000000000000000000e+00,0.000000000000000000e+00,-4.411621093750000000e-01,1.264038085937500000e-01,8.117065429687500000e-01,3.612060546875000000e-01
-2.000000000000000000e+00,0.000000000000000000e+00,5.000000000000000000e+00,-7.000000000000000000e+00,-7.000000000000000000e+00,-2.000000000000000000e+00,-1.000000000000000000e+00,-3.000000000000000000e+00,-4.411621093750000000e-01,1.264038085937500000e-01,8.117065429687500000e-01,3.612060546875000000e-01
-2.000000000000000000e+00,-1.000000000000000000e+00,-1.100000000000000000e+01,2.000000000000000000e+00,4.000000000000000000e+00,-2.000000000000000000e+00,-3.000000000000000000e+00,-1.000000000000000000e+00,-4.411621093750000000e-01,1.264038085937500000e-01,8.117065429687500000e-01,3.612060546875000000e-01
1.000000000000000000e+00,1.000000000000000000e+00,0.000000000000000000e+00,-6.000000000000000000e+00,-3.000000000000000000e+00,-1.000000000000000000e+00,-1.000000000000000000e+00,0.000000000000000000e+00,-4.411621093750000000e-01,1.264038085937500000e-01,8.117065429687500000e-01,3.612060546875000000e-01
-3.000000000000000000e+00,-2.000000000000000000e+00,-1.000000000000000000e+00,-1.000000000000000000e+01,-2.000000000000000000e+00,-5.000000000000000000e+00,-1.000000000000000000e+00,-1.000000000000000000e+00,-4.411621093750000000e-01,1.271972656250000000e-01,8.115844726562500000e-01,3.612670898437500000e-01
-2.000000000000000000e+00,-5.000000000000000000e+00,-1.200000000000000000e+01,3.000000000000000000e+00,5.000000000000000000e+00,3.000000000000000000e+00,-1.000000000000000000e+00,1.000000000000000000e+00,-4.411621093750000000e-01,1.271972656250000000e-01,8.115844726562500000e-01,3.612670898437500000e-01
1.000000000000000000e+00,-2.000000000000000000e+00,6.000000000000000000e+00,-2.000000000000000000e+01,-9.000000000000000000e+00,-4.000000000000000000e+00,-4.000000000000000000e+00,0.000000000000000000e+00,-4.411621093750000000e-01,1.271972656250000000e-01,8.115844726562500000e-01,3.612670898437500000e-01
1.000000000000000000e+00,0.000000000000000000e+00,-2.000000000000000000e+00,1.000000000000000000e+01,-3.000000000000000000e+00,-2.000000000000000000e+00,-1.000000000000000000e+00,0.000000000000000000e+00,-4.411621093750000000e-01,1.271972656250000000e-01,8.115844726562500000e-01,3.612670898437500000e-01
1.000000000000000000e+00,-1.000000000000000000e+00,0.000000000000000000e+00,5.000000000000000000e+00,4.000000000000000000e+00,2.000000000000000000e+00,-1.000000000000000000e+00,1.000000000000000000e+00,-4.413452148437500000e-01,1.276855468750000000e-01,8.114624023437500000e-01,3.610839843750000000e-01
0.000000000000000000e+00,1.000000000000000000e+00,1.000000000000000000e+00,-5.000000000000000000e+00,-4.000000000000000000e+00,-2.000000000000000000e+00,-4.000000000000000000e+00,-3.000000000000000000e+00,-4.413452148437500000e-01,1.276855468750000000e-01,8.114624023437500000e-01,3.610839843750000000e-01
0.000000000000000000e+00,1.000000000000000000e+00,0.000000000000000000e+00,-2.000000000000000000e+00,5.000000000000000000e+00,1.000000000000000000e+00,3.000000000000000000e+00,0.000000000000000000e+00,-4.413452148437500000e-01,1.276855468750000000e-01,8.114624023437500000e-01,3.610839843750000000e-01
-3.000000000000000000e+00,-4.000000000000000000e+00,-6.000000000000000000e+00,-1.000000000000000000e+00,1.000000000000000000e+00,1.000000000000000000e+00,0.000000000000000000e+00,-4.000000000000000000e+00,-4.413452148437500000e-01,1.276855468750000000e-01,8.114624023437500000e-01,3.610839843750000000e-01
1.000000000000000000e+00,2.000000000000000000e+00,5.000000000000000000e+00,1.000000000000000000e+01,-1.000000000000000000e+00,-1.000000000000000000e+00,0.000000000000000000e+00,1.000000000000000000e+00,-4.417724609375000000e-01,1.270751953125000000e-01,8.115234375000000000e-01,3.606567382812500000e-01
0.000000000000000000e+00,-1.000000000000000000e+00,-2.000000000000000000e+00,-5.000000000000000000e+00,-5.000000000000000000e+00,0.000000000000000000e+00,1.000000000000000000e+00,2.000000000000000000e+00,-4.417724609375000000e-01,1.270751953125000000e-01,8.115234375000000000e-01,3.606567382812500000e-01
-1.000000000000000000e+00,-1.000000000000000000e+00,-5.000000000000000000e+00,3.000000000000000000e+00,-2.000000000000000000e+00,-1.000000000000000000e+00,-1.000000000000000000e+00,0.000000000000000000e+00,-4.417724609375000000e-01,1.270751953125000000e-01,8.115234375000000000e-01,3.606567382812500000e-01
-1.000000000000000000e+00,-2.000000000000000000e+00,0.000000000000000000e+00,-4.000000000000000000e+00,-1.000000000000000000e+00,-3.000000000000000000e+00,-1.000000000000000000e+00,-3.000000000000000000e+00,-4.417724609375000000e-01,1.270751953125000000e-01,8.115234375000000000e-01,3.606567382812500000e-01
0.000000000000000000e+00,-1.000000000000000000e+00,-1.000000000000000000e+00,7.000000000000000000e+00,5.000000000000000000e+00,1.000000000000000000e+00,-2.000000000000000000e+00,-3.000000000000000000e+00,-4.422607421875000000e-01,1.263427734375000000e-01,8.114013671875000000e-01,3.605957031250000000e-01
-1.000000000000000000e+00,0.000000000000000000e+00,4.000000000000000000e+00,-4.000000000000000000e+00,-4.000000000000000000e+00,-2.000000000000000000e+00,-3.000000000000000000e+00,0.000000000000000000e+00,-4.422607421875000000e-01,1.263427734375000000e-01,8.114013671875000000e-01,3.605957031250000000e-01
-2.000000000000000000e+00,-1.000000000000000000e+00,-3.000000000000000000e+00,1.000000000000000000e+00,6.000000000000000000e+00,2.000000000000000000e+00,1.000000000000000000e+00,0.000000000000000000e+00,-4.422607421875000000e-01,1.263427734375000000e-01,8.114013671875000000e-01,3.605957031250000000e-01
-3.000000000000000000e+00,0.000000000000000000e+00,0.000000000000000000e+00,-9.000000000000000000e+00,-9.000000000000000000e+00,-2.000000000000000000e+00,-1.000000000000000000e+00,-3.000000000000000000e+00,-4.422607421875000000e-01,1.263427734375000000e-01,8.114013671875000000e-01,3.605957031250000000e-01
-1.000000000000000000e+00,-1.000000000000000000e+00,-2.000000000000000000e+00,2.800000000000000000e+01,1.500000000000000000e+01,1.000000000000000000e+00,-1.000000000000000000e+00,-1.000000000000000000e+00,-4.427490234375000000e-01,1.265869140625000000e-01,8.109741210937500000e-01,3.608398437500000000e-01
-4.000000000000000000e+00,0.000000000000000000e+00,-3.000000000000000000e+00,-1.000000000000000000e+01,-8.000000000000000000e+00,-4.000000000000000000e+00,-1.000000000000000000e+00,-5.000000000000000000e+00,-4.427490234375000000e-01,1.265869140625000000e-01,8.109741210937500000e-01,3.608398437500000000e-01
1.000000000000000000e+00,0.000000000000000000e+00,-4.000000000000000000e+00,-9.000000000000000000e+00,-3.000000000000000000e+00,0.000000000000000000e+00,0.000000000000000000e+00,2.000000000000000000e+00,-4.427490234375000000e-01,1.265869140625000000e-01,8.109741210937500000e-01,3.608398437500000000e-01
3.000000000000000000e+00,1.000000000000000000e+00,2.000000000000000000e+00,5.000000000000000000e+00,0.000000000000000000e+00,-2.000000000000000000e+00,0.000000000000000000e+00,2.000000000000000000e+00,-4.427490234375000000e-01,1.265869140625000000e-01,8.109741210937500000e-01,3.608398437500000000e-01
-4.000000000000000000e+00,-6.000000000000000000e+00,-3.000000000000000000e+00,-1.000000000000000000e+01,-7.000000000000000000e+00,-2.000000000000000000e+00,-2.000000000000000000e+00,-1.000000000000000000e+00,-4.430541992187500000e-01,1.269531250000000000e-01,8.106079101562500000e-01,3.610839843750000000e-01
0.000000000000000000e+00,0.000000000000000000e+00,-1.000000000000000000e+00,3.000000000000000000e+00,3.000000000000000000e+00,-2.000000000000000000e+00,-1.000000000000000000e+00,-1.000000000000000000e+00,-4.430541992187500000e-01,1.269531250000000000e-01,8.106079101562500000e-01,3.610839843750000000e-01
-4.000000000000000000e+00,-1.000000000000000000e+00,0.000000000000000000e+00,4.000000000000000000e+00,1.000000000000000000e+00,-1.000000000000000000e+00,-2.000000000000000000e+00,-5.000000000000000000e+00,-4.430541992187500000e-01,1.269531250000000000e-01,8.106079101562500000e-01,3.610839843750000000e-01
-2.000000000000000000e+00,-1.000000000000000000e+00,-2.000000000000000000e+00,-6.000000000000000000e+00,-2.000000000000000000e+00,-1.000000000000000000e+00,-3.000000000000000000e+00,-2.000000000000000000e+00,-4.430541992187500000e-01,1.269531250000000000e-01,8.106079101562500000e-01,3.610839843750000000e-01
1.000000000000000000e+00,0.000000000000000000e+00,0.000000000000000000e+00,-4.000000000000000000e+00,-3.000000000000000000e+00,-1.000000000000000000e+00,0.000000000000000000e+00,1.000000000000000000e+00,-4.436035156250000000e-01,1.267700195312500000e-01,8.104248046875000000e-01,3.610229492187500000e-01
-1.000000000000000000e+00,1.000000000000000000e+00,1.000000000000000000e+00,-6.000000000000000000e+00,-3.000000000000000000e+00,-1.000000000000000000e+00,1.000000000000000000e+00,-1.000000000000000000e+00,-4.436035156250000000e-01,1.267700195312500000e-01,8.104248046875000000e-01,3.610229492187500000e-01
-2.000000000000000000e+00,-4.000000000000000000e+00,-4.000000000000000000e+00,1.600000000000000000e+01,8.000000000000000000e+00,0.000000000000000000e+00,0.000000000000000000e+00,0.000000000000000000e+00,-4.436035156250000000e-01,1.267700195312500000e-01,8.104248046875000000e-01,3.610229492187500000e-01
-2.000000000000000000e+00,1.000000000000000000e+00,2.000000000000000000e+00,-3.000000000000000000e+00,-3.000000000000000000e+00,-1.000000000000000000e+00,-3.000000000000000000e+00,-1.000000000000000000e+00,-4.436035156250000000e-01,1.267700195312500000e-01,8.104248046875000000e-01,3.610229492187500000e-01
2.000000000000000000e+00,1.000000000000000000e+00,-2.000000000000000000e+00,-1.000000000000000000e+00,3.000000000000000000e+00,2.000000000000000000e+00,0.000000000000000000e+00,0.000000000000000000e+00,-4.442749023437500000e-01,1.268920898437500000e-01,8.099365234375000000e-01,3.611450195312500000e-01
-3.000000000000000000e+00,-2.000000000000000000e+00,4.000000000000000000e+00,-1.100000000000000000e+01,-7.000000000000000000e+00,-3.000000000000000000e+00,0.000000000000000000e+00,-3.000000000000000000e+00,-4.442749023437500000e-01,1.268920898437500000e-01,8.099365234375000000e-01,3.611450195312500000e-01
-3.000000000000000000e+00,-4.000000000000000000e+00,-1.000000000000000000e+00,-3.000000000000000000e+00,-8.000000000000000000e+00,-5.000000000000000000e+00,-2.000000000000000000e+00,-2.000000000000000000e+00,-4.442749023437500000e-01,1.268920898437500000e-01,8.099365234375000000e-01,3.611450195312500000e-01
0.000000000000000000e+00,1.000000000000000000e+00,1.000000000000000000e+00,-8.000000000000000000e+00,-3.000000000000000000e+00,-2.000000000000000000e+00,-1.000000000000000000e+00,0.000000000000000000e+00,-4.442749023437500000e-01,1.268920898437500000e-01,8.099365234375000000e-01,3.611450195312500000e-01
-1.000000000000000000e+00,-2.000000000000000000e+00,0.000000000000000000e+00,9.000000000000000000e+00,3.000000000000000000e+00,0.000000000000000000e+00,-1.000000000000000000e+00,0.000000000000000000e+00,-4.448852539062500000e-01,1.276245117187500000e-01,8.094482421875000000e-01,3.613281250000000000e-01
1.000000000000000000e+00,0.000000000000000000e+00,-3.000000000000000000e+00,4.000000000000000000e+00,2.000000000000000000e+00,1.000000000000000000e+00,-1.000000000000000000e+00,0.000000000000000000e+00,-4.448852539062500000e-01,1.276245117187500000e-01,8.094482421875000000e-01,3.613281250000000000e-01
0.000000000000000000e+00,2.000000000000000000e+00,1.000000000000000000e+00,-4.000000000000000000e+00,-4.000000000000000000e+00,0.000000000000000000e+00,0.000000000000000000e+00,1.000000000000000000e+00,-4.448852539062500000e-01,1.276245117187500000e-01,8.094482421875000000e-01,3.613281250000000000e-01
-2.000000000000000000e+00,0.000000000000000000e+00,7.000000000000000000e+00,3.000000000000000000e+00,-1.000000000000000000e+00,-2.000000000000000000e+00,-1.000000000000000000e+00,-2.000000000000000000e+00,-4.448852539062500000e-01,1.276245117187500000e-01,8.094482421875000000e-01,3.613281250000000000e-01
0.000000000000000000e+00,-1.000000000000000000e+00,-1.100000000000000000e+01,-1.400000000000000000e+01,-8.000000000000000000e+00,-4.000000000000000000e+00,0.000000000000000000e+00,-1.000000000000000000e+00,-4.448852539062500000e-01,1.277465820312500000e-01,8.094482421875000000e-01,3.613281250000000000e-01
-4.000000000000000000e+00,-4.000000000000000000e+00,-4.000000000000000000e+00,4.000000000000000000e+00,2.000000000000000000e+00,-2.000000000000000000e+00,0.000000000000000000e+00,0.000000000000000000e+00,-4.448852539062500000e-01,1.277465820312500000e-01,8.094482421875000000e-01,3.613281250000000000e-01
-3.000000000000000000e+00,-2.000000000000000000e+00,2.000000000000000000e+00,2.000000000000000000e+00,1.000000000000000000e+00,-1.000000000000000000e+00,-2.000000000000000000e+00,-2.000000000000000000e+00,-4.448852539062500000e-01,1.277465820312500000e-01,8.094482421875000000e-01,3.613281250000000000e-01
-1.000000000000000000e+00,-1.000000000000000000e+00,-2.000000000000000000e+00,-5.000000000000000000e+00,-3.000000000000000000e+00,0.000000000000000000e+00,-1.000000000000000000e+00,0.000000000000000000e+00,-4.448852539062500000e-01,1.277465820312500000e-01,8.094482421875000000e-01,3.613281250000000000e-01
1.000000000000000000e+00,2.000000000000000000e+00,8.000000000000000000e+00,-1.000000000000000000e+00,-2.000000000000000000e+00,-5.000000000000000000e+00,-3.000000000000000000e+00,1.000000000000000000e+00,-4.451904296875000000e-01,1.274414062500000000e-01,8.092651367187500000e-01,3.613281250000000000e-01
-1.000000000000000000e+00,-2.000000000000000000e+00,0.000000000000000000e+00,4.000000000000000000e+00,1.000000000000000000e+00,1.000000000000000000e+00,-1.000000000000000000e+00,-1.000000000000000000e+00,-4.451904296875000000e-01,1.274414062500000000e-01,8.092651367187500000e-01,3.613281250000000000e-01
0.000000000000000000e+00,1.000000000000000000e+00,1.000000000000000000e+00,-2.000000000000000000e+00,-3.000000000000000000e+00,-1.000000000000000000e+00,-1.000000000000000000e+00,-1.000000000000000000e+00,-4.451904296875000000e-01,1.274414062500000000e-01,8.092651367187500000e-01,3.613281250000000000e-01
-1.000000000000000000e+00,-2.000000000000000000e+00,-1.000000000000000000e+00,-7.000000000000000000e+00,1.000000000000000000e+00,0.000000000000000000e+00,-1.000000000000000000e+00,-1.000000000000000000e+00,-4.451904296875000000e-01,1.274414062500000000e-01,8.092651367187500000e-01,3.613281250000000000e-01
-2.000000000000000000e+00,-4.000000000000000000e+00,-3.000000000000000000e+00,6.000000000000000000e+00,4.000000000000000000e+00,1.000000000000000000e+00,1.000000000000000000e+00,-2.000000000000000000e+00,-4.454345703125000000e-01,1.276245117187500000e-01,8.090209960937500000e-01,3.616943359375000000e-01
-1.000000000000000000e+00,-3.000000000000000000e+00,1.000000000000000000e+00,9.000000000000000000e+00,6.000000000000000000e+00,-1.000000000000000000e+00,0.000000000000000000e+00,-1.000000000000000000e+00,-4.454345703125000000e-01,1.276245117187500000e-01,8.090209960937500000e-01,3.616943359375000000e-01
1.000000000000000000e+00,1.000000000000000000e+00,2.000000000000000000e+00,-1.000000000000000000e+01,-8.000000000000000000e+00,-2.000000000000000000e+00,-1.000000000000000000e+00,0.000000000000000000e+00,-4.454345703125000000e-01,1.276245117187500000e-01,8.090209960937500000e-01,3.616943359375000000e-01
0.000000000000000000e+00,-2.000000000000000000e+00,-1.000000000000000000e+00,-3.000000000000000000e+00,-2.000000000000000000e+00,0.000000000000000000e+00,-1.000000000000000000e+00,0.000000000000000000e+00,-4.454345703125000000e-01,1.276245117187500000e-01,8.090209960937500000e-01,3.616943359375000000e-01
-2.000000000000000000e+00,-2.000000000000000000e+00,-2.000000000000000000e+00,-6.000000000000000000e+00,-2.000000000000000000e+00,-1.000000000000000000e+00,-3.000000000000000000e+00,-2.000000000000000000e+00,-4.455566406250000000e-01,1.284179687500000000e-01,8.084716796875000000e-01,3.623046875000000000e-01
-1.000000000000000000e+00,-1.000000000000000000e+00,-1.000000000000000000e+00,-8.000000000000000000e+00,-4.000000000000000000e+00,1.000000000000000000e+00,-1.000000000000000000e+00,1.000000000000000000e+00,-4.455566406250000000e-01,1.284179687500000000e-01,8.084716796875000000e-01,3.623046875000000000e-01
0.000000000000000000e+00,-1.000000000000000000e+00,2.000000000000000000e+00,0.000000000000000000e+00,-1.000000000000000000e+00,1.000000000000000000e+00,-2.000000000000000000e+00,-2.000000000000000000e+00,-4.455566406250000000e-01,1.284179687500000000e-01,8.084716796875000000e-01,3.623046875000000000e-01
2.000000000000000000e+00,1.000000000000000000e+00,1.000000000000000000e+00,1.400000000000000000e+01,2.000000000000000000e+00,-1.000000000000000000e+00,-1.000000000000000000e+00,0.000000000000000000e+00,-4.455566406250000000e-01,1.284179687500000000e-01,8.084716796875000000e-01,3.623046875000000000e-01
-2.000000000000000000e+00,-1.000000000000000000e+00,-3.000000000000000000e+00,-1.300000000000000000e+01,-3.000000000000000000e+00,0.000000000000000000e+00,2.000000000000000000e+00,1.000000000000000000e+00,-4.454956054687500000e-01,1.288452148437500000e-01,8.081665039062500000e-01,3.629760742187500000e-01
-3.000000000000000000e+00,-2.000000000000000000e+00,-4.000000000000000000e+00,7.000000000000000000e+00,2.000000000000000000e+00,-1.000000000000000000e+00,1.000000000000000000e+00,-3.000000000000000000e+00,-4.454956054687500000e-01,1.288452148437500000e-01,8.081665039062500000e-01,3.629760742187500000e-01
1.000000000000000000e+00,-3.000000000000000000e+00,3.000000000000000000e+00,0.000000000000000000e+00,-1.000000000000000000e+00,-2.000000000000000000e+00,-1.000000000000000000e+00,1.000000000000000000e+00,-4.454956054687500000e-01,1.288452148437500000e-01,8.081665039062500000e-01,3.629760742187500000e-01
-3.000000000000000000e+00,1.000000000000000000e+00,0.000000000000000000e+00,0.000000000000000000e+00,1.000000000000000000e+00,-1.000000000000000000e+00,-2.000000000000000000e+00,-1.000000000000000000e+00,-4.454956054687500000e-01,1.288452148437500000e-01,8.081665039062500000e-01,3.629760742187500000e-01
-1.000000000000000000e+00,0.000000000000000000e+00,3.000000000000000000e+00,-1.000000000000000000e+00,-4.000000000000000000e+00,-3.000000000000000000e+00,-4.000000000000000000e+00,-3.000000000000000000e+00,-4.453125000000000000e-01,1.285400390625000000e-01,8.081665039062500000e-01,3.632812500000000000e-01
1.000000000000000000e+00,-2.000000000000000000e+00,-3.000000000000000000e+00,-6.000000000000000000e+00,-3.000000000000000000e+00,-1.000000000000000000e+00,-3.000000000000000000e+00,-1.000000000000000000e+00,-4.453125000000000000e-01,1.285400390625000000e-01,8.081665039062500000e-01,3.632812500000000000e-01
0.000000000000000000e+00,-1.000000000000000000e+00,-5.000000000000000000e+00,2.000000000000000000e+00,3.000000000000000000e+00,0.000000000000000000e+00,0.000000000000000000e+00,-3.000000000000000000e+00,-4.453125000000000000e-01,1.285400390625000000e-01,8.081665039062500000e-01,3.632812500000000000e-01
-2.000000000000000000e+00,-1.000000000000000000e+00,2.000000000000000000e+00,0.000000000000000000e+00,-1.000000000000000000e+00,-2.000000000000000000e+00,2.000000000000000000e+00,1.000000000000000000e+00,-4.453125000000000000e-01,1.285400390625000000e-01,8.081665039062500000e-01,3.632812500000000000e-01
-2.000000000000000000e+00,1.000000000000000000e+00,3.000000000000000000e+00,4.000000000000000000e+00,-1.000000000000000000e+00,1.000000000000000000e+00,0.000000000000000000e+00,0.000000000000000000e+00,-4.455566406250000000e-01,1.268920898437500000e-01,8.082885742187500000e-01,3.632812500000000000e-01
1.000000000000000000e+00,1.000000000000000000e+00,3.000000000000000000e+00,3.000000000000000000e+00,-3.000000000000000000e+00,-1.000000000000000000e+00,-1.000000000000000000e+00,0.000000000000000000e+00,-4.455566406250000000e-01,1.268920898437500000e-01,8.082885742187500000e-01,3.632812500000000000e-01
-1.000000000000000000e+00,-4.000000000000000000e+00,-1.000000000000000000e+00,0.000000000000000000e+00,0.000000000000000000e+00,2.000000000000000000e+00,-2.000000000000000000e+00,0.000000000000000000e+00,-4.455566406250000000e-01,1.268920898437500000e-01,8.082885742187500000e-01,3.632812500000000000e-01
-2.000000000000000000e+00,-2.000000000000000000e+00,-5.000000000000000000e+00,-1.000000000000000000e+00,-1.000000000000000000e+00,-1.000000000000000000e+00,-2.000000000000000000e+00,-2.000000000000000000e+00,-4.455566406250000000e-01,1.268920898437500000e-01,8.082885742187500000e-01,3.632812500000000000e-01
-1.000000000000000000e+00,-1.000000000000000000e+00,-2.000000000000000000e+00,0.000000000000000000e+00,-2.000000000000000000e+00,1.000000000000000000e+00,0.000000000000000000e+00,-4.000000000000000000e+00,-4.458618164062500000e-01,1.253662109375000000e-01,8.079833984375000000e-01,3.640747070312500000e-01
0.000000000000000000e+00,1.000000000000000000e+00,3.000000000000000000e+00,-1.000000000000000000e+00,-5.000000000000000000e+00,-4.000000000000000000e+00,-1.000000000000000000e+00,-2.000000000000000000e+00,-4.458618164062500000e-01,1.253662109375000000e-01,8.079833984375000000e-01,3.640747070312500000e-01
1.000000000000000000e+00,0.000000000000000000e+00,4.000000000000000000e+00,3.000000000000000000e+00,0.000000000000000000e+00,-2.000000000000000000e+00,0.000000000000000000e+00,0.000000000000000000e+00,-4.458618164062500000e-01,1.253662109375000000e-01,8.079833984375000000e-01,3.640747070312500000e-01
0.000000000000000000e+00,-1.000000000000000000e+00,-1.000000000000000000e+00,-1.000000000000000000e+00,0.000000000000000000e+00,0.000000000000000000e+00,0.000000000000000000e+00,0.000000000000000000e+00,-4.458618164062500000e-01,1.253662109375000000e-01,8.079833984375000000e-01,3.640747070312500000e-01
-2.000000000000000000e+00,-2.000000000000000000e+00,1.000000000000000000e+00,0.000000000000000000e+00,4.000000000000000000e+00,-1.000000000000000000e+00,-1.000000000000000000e+00,1.000000000000000000e+00,-4.456787109375000000e-01,1.242675781250000000e-01,8.074340820312500000e-01,3.659667968750000000e-01
-1.000000000000000000e+00,0.000000000000000000e+00,-1.000000000000000000e+00,-5.000000000000000000e+00,-2.000000000000000000e+00,1.000000000000000000e+00,-1.000000000000000000e+00,-1.000000000000000000e+00,-4.456787109375000000e-01,1.242675781250000000e-01,8.074340820312500000e-01,3.659667968750000000e-01
-2.000000000000000000e+00,0.000000000000000000e+00,1.000000000000000000e+00,3.000000000000000000e+00,-4.000000000000000000e+00,-2.000000000000000000e+00,-1.000000000000000000e+00,-2.000000000000000000e+00,-4.456787109375000000e-01,1.242675781250000000e-01,8.074340820312500000e-01,3.659667968750000000e-01
-3.000000000000000000e+00,-6.000000000000000000e+00,-5.000000000000000000e+00,2.000000000000000000e+00,-1.000000000000000000e+00,1.000000000000000000e+00,0.000000000000000000e+00,-2.000000000000000000e+00,-4.456787109375000000e-01,1.242675781250000000e-01,8.074340820312500000e-01,3.659667968750000000e-01
-3.000000000000000000e+00,1.000000000000000000e+00,1.000000000000000000e+00,-3.000000000000000000e+00,-4.000000000000000000e+00,0.000000000000000000e+00,-1.000000000000000000e+00,-2.000000000000000000e+00,-4.456176757812500000e-01,1.218872070312500000e-01,8.069458007812500000e-01,3.679199218750000000e-01
2.000000000000000000e+00,0.000000000000000000e+00,1.000000000000000000e+00,0.000000000000000000e+00,0.000000000000000000e+00,-1.000000000000000000e+00,-2.000000000000000000e+00,-1.000000000000000000e+00,-4.456176757812500000e-01,1.218872070312500000e-01,8.069458007812500000e-01,3.679199218750000000e-01
-2.000000000000000000e+00,0.000000000000000000e+00,1.000000000000000000e+00,-1.000000000000000000e+00,0.000000000000000000e+00,-1.000000000000000000e+00,-2.000000000000000000e+00,1.000000000000000000e+00,-4.456176757812500000e-01,1.218872070312500000e-01,8.069458007812500000e-01,3.679199218750000000e-01
2.000000000000000000e+00,0.000000000000000000e+00,-4.000000000000000000e+00,-1.000000000000000000e+00,0.000000000000000000e+00,-1.000000000000000000e+00,-2.000000000000000000e+00,-1.000000000000000000e+00,-4.456176757812500000e-01,1.218872070312500000e-01,8.069458007812500000e-01,3.679199218750000000e-01
-3.000000000000000000e+00,-3.000000000000000000e+00,0.000000000000000000e+00,-2.000000000000000000e+00,-1.000000000000000000e+00,-1.000000000000000000e+00,0.000000000000000000e+00,-1.000000000000000000e+00,-4.461669921875000000e-01,1.181030273437500000e-01,8.063964843750000000e-01,3.696289062500000000e-01
-2.000000000000000000e+00,-1.000000000000000000e+00,-3.000000000000000000e+00,2.000000000000000000e+00,3.000000000000000000e+00,0.000000000000000000e+00,2.000000000000000000e+00,0.000000000000000000e+00,-4.461669921875000000e-01,1.181030273437500000e-01,8.063964843750000000e-01,3.696289062500000000e-01
-2.000000000000000000e+00,-3.000000000000000000e+00,-3.000000000000000000e+00,-4.000000000000000000e+00,-2.000000000000000000e+00,0.000000000000000000e+00,0.000000000000000000e+00,-2.000000000000000000e+00,-4.461669921875000000e-01,1.181030273437500000e-01,8.063964843750000000e-01,3.696289062500000000e-01
-1.000000000000000000e+00,0.000000000000000000e+00,-2.000000000000000000e+00,-1.000000000000000000e+00,0.000000000000000000e+00,-2.000000000000000000e+00,-1.000000000000000000e+00,-2.000000000000000000e+00,-4.461669921875000000e-01,1.181030273437500000e-01,8.063964843750000000e-01,3.696289062500000000e-01
-1.000000000000000000e+00,-2.000000000000000000e+00,3.000000000000000000e+00,0.000000000000000000e+00,-4.000000000000000000e+00,-1.000000000000000000e+00,-2.000000000000000000e+00,0.000000000000000000e+00,-4.470214843750000000e-01,1.138305664062500000e-01,8.059082031250000000e-01,3.710327148437500000e-01
-1.000000000000000000e+00,0.000000000000000000e+00,-5.000000000000000000e+00,-1.000000000000000000e+00,-2.000000000000000000e+00,-1.000000000000000000e+00,0.000000000000000000e+00,0.000000000000000000e+00,-4.470214843750000000e-01,1.138305664062500000e-01,8.059082031250000000e-01,3.710327148437500000e-01
1.000000000000000000e+00,4.000000000000000000e+00,6.000000000000000000e+00,-1.000000000000000000e+00,-1.000000000000000000e+00,-1.000000000000000000e+00,1.000000000000000000e+00,0.000000000000000000e+00,-4.476928710937500000e-01,1.093139648437500000e-01,8.054809570312500000e-01,3.724975585937500000e-01
-1.000000000000000000e+00,-5.000000000000000000e+00,-1.000000000000000000e+01,0.000000000000000000e+00,-1.000000000000000000e+00,-1.000000000000000000e+00,1.000000000000000000e+00,1.000000000000000000e+00,-4.476928710937500000e-01,1.093139648437500000e-01,8.054809570312500000e-01,3.724975585937500000e-01
0.000000000000000000e+00,1.000000000000000000e+00,1.000000000000000000e+00,-1.000000000000000000e+00,1.000000000000000000e+00,-2.000000000000000000e+00,-2.000000000000000000e+00,0.000000000000000000e+00,-4.476928710937500000e-01,1.093139648437500000e-01,8.054809570312500000e-01,3.724975585937500000e-01
-2.000000000000000000e+00,-3.000000000000000000e+00,-1.000000000000000000e+01,-1.000000000000000000e+00,2.000000000000000000e+00,1.000000000000000000e+00,-1.000000000000000000e+00,1.000000000000000000e+00,-4.476928710937500000e-01,1.093139648437500000e-01,8.054809570312500000e-01,3.724975585937500000e-01
-3.000000000000000000e+00,-2.000000000000000000e+00,-4.000000000000000000e+00,-1.000000000000000000e+00,-4.000000000000000000e+00,-2.000000000000000000e+00,-2.000000000000000000e+00,-4.000000000000000000e+00,-4.481201171875000000e-01,1.046142578125000000e-01,8.048706054687500000e-01,3.746337890625000000e-01
-1.000000000000000000e+00,2.000000000000000000e+00,-1.000000000000000000e+00,5.000000000000000000e+00,2.000000000000000000e+00,0.000000000000000000e+00,0.000000000000000000e+00,-1.000000000000000000e+00,-4.481201171875000000e-01,1.046142578125000000e-01,8.048706054687500000e-01,3.746337890625000000e-01
-2.000000000000000000e+00,1.000000000000000000e+00,-1.000000000000000000e+00,-2.000000000000000000e+00,-5.000000000000000000e+00,-1.000000000000000000e+00,-2.000000000000000000e+00,-2.000000000000000000e+00,-4.481201171875000000e-01,1.046142578125000000e-01,8.048706054687500000e-01,3.746337890625000000e-01
0.000000000000000000e+00,1.000000000000000000e+00,4.000000000000000000e+00,-1.000000000000000000e+00,-2.000000000000000000e+00,0.000000000000000000e+00,-1.000000000000000000e+00,-1.000000000000000000e+00,-4.481201171875000000e-01,1.046142578125000000e-01,8.048706054687500000e-01,3.746337890625000000e-01
-3.000000000000000000e+00,-1.000000000000000000e+00,-4.000000000000000000e+00,-3.000000000000000000e+00,1.000000000000000000e+00,0.000000000000000000e+00,-1.000000000000000000e+00,-1.000000000000000000e+00,-4.475708007812500000e-01,9.991455078125000000e-02,8.041992187500000000e-01,3.779907226562500000e-01
-1.000000000000000000e+00,-1.000000000000000000e+00,2.000000000000000000e+00,0.000000000000000000e+00,0.000000000000000000e+00,0.000000000000000000e+00,-2.000000000000000000e+00,1.000000000000000000e+00,-4.475708007812500000e-01,9.991455078125000000e-02,8.041992187500000000e-01,3.779907226562500000e-01
0.000000000000000000e+00,-3.000000000000000000e+00,-6.000000000000000000e+00,-2.000000000000000000e+00,-1.000000000000000000e+00,-2.000000000000000000e+00,0.000000000000000000e+00,-2.000000000000000000e+00,-4.475708007812500000e-01,9.991455078125000000e-02,8.041992187500000000e-01,3.779907226562500000e-01
0.000000000000000000e+00,0.000000000000000000e+00,2.000000000000000000e+00,-1.000000000000000000e+00,1.000000000000000000e+00,-2.000000000000000000e+00,1.000000000000000000e+00,-1.000000000000000000e+00,-4.475708007812500000e-01,9.991455078125000000e-02,8.041992187500000000e-01,3.779907226562500000e-01
-2.000000000000000000e+00,-1.000000000000000000e+00,-6.000000000000000000e+00,0.000000000000000000e+00,-1.000000000000000000e+00,-2.000000000000000000e+00,-2.000000000000000000e+00,0.000000000000000000e+00,-4.456787109375000000e-01,9.576416015625000000e-02,8.031616210937500000e-01,3.834838867187500000e-01
-2.000000000000000000e+00,-1.000000000000000000e+00,0.000000000000000000e+00,1.000000000000000000e+00,-1.000000000000000000e+00,0.000000000000000000e+00,-2.000000000000000000e+00,-2.000000000000000000e+00,-4.456787109375000000e-01,9.576416015625000000e-02,8.031616210937500000e-01,3.834838867187500000e-01
1.000000000000000000e+00,0.000000000000000000e+00,-3.000000000000000000e+00,-2.000000000000000000e+00,-1.000000000000000000e+00,0.000000000000000000e+00,0.000000000000000000e+00,-1.000000000000000000e+00,-4.456787109375000000e-01,9.576416015625000000e-02,8.031616210937500000e-01,3.834838867187500000e-01
0.000000000000000000e+00,-2.000000000000000000e+00,0.000000000000000000e+00,0.000000000000000000e+00,0.000000000000000000e+00,-2.000000000000000000e+00,-1.000000000000000000e+00,1.000000000000000000e+00,-4.456787109375000000e-01,9.576416015625000000e-02,8.031616210937500000e-01,3.834838867187500000e-01
-2.000000000000000000e+00,-3.000000000000000000e+00,-2.000000000000000000e+00,-1.000000000000000000e+00,0.000000000000000000e+00,-1.000000000000000000e+00,0.000000000000000000e+00,0.000000000000000000e+00,-4.425048828125000000e-01,9.173583984375000000e-02,8.015747070312500000e-01,3.914184570312500000e-01
-1.000000000000000000e+00,-2.000000000000000000e+00,2.000000000000000000e+00,-1.000000000000000000e+00,-1.000000000000000000e+00,-1.000000000000000000e+00,0.000000000000000000e+00,-1.000000000000000000e+00,-4.425048828125000000e-01,9.173583984375000000e-02,8.015747070312500000e-01,3.914184570312500000e-01
-1.000000000000000000e+00,0.000000000000000000e+00,-1.000000000000000000e+00,-1.000000000000000000e+00,-1.000000000000000000e+00,-2.000000000000000000e+00,-1.000000000000000000e+00,-1.000000000000000000e+00,-4.425048828125000000e-01,9.173583984375000000e-02,8.015747070312500000e-01,3.914184570312500000e-01
-2.000000000000000000e+00,-2.000000000000000000e+00,-2.000000000000000000e+00,0.000000000000000000e+00,0.000000000000000000e+00,-1.000000000000000000e+00,-2.000000000000000000e+00,-2.000000000000000000e+00,-4.425048828125000000e-01,9.173583984375000000e-02,8.015747070312500000e-01,3.914184570312500000e-01
-1.000000000000000000e+00,-3.000000000000000000e+00,-1.000000000000000000e+00,-2.000000000000000000e+00,-1.000000000000000000e+00,1.000000000000000000e+00,-1.000000000000000000e+00,0.000000000000000000e+00,-4.378662109375000000e-01,8.728027343750000000e-02,7.992553710937500000e-01,4.022216796875000000e-01
1.000000000000000000e+00,-1.000000000000000000e+00,1.000000000000000000e+00,-3.000000000000000000e+00,-3.000000000000000000e+00,-1.000000000000000000e+00,1.000000000000000000e+00,-2.000000000000000000e+00,-4.378662109375000000e-01,8.728027343750000000e-02,7.992553710937500000e-01,4.022216796875000000e-01
1.000000000000000000e+00,0.000000000000000000e+00,-1.000000000000000000e+00,1.000000000000000000e+00,0.000000000000000000e+00,0.000000000000000000e+00,0.000000000000000000e+00,-2.000000000000000000e+00,-4.378662109375000000e-01,8.728027343750000000e-02,7.992553710937500000e-01,4.022216796875000000e-01
-2.000000000000000000e+00,1.000000000000000000e+00,0.000000000000000000e+00,0.000000000000000000e+00,-1.000000000000000000e+00,-1.000000000000000000e+00,-1.000000000000000000e+00,-1.000000000000000000e+00,-4.378662109375000000e-01,8.728027343750000000e-02,7.992553710937500000e-01,4.022216796875000000e-01
1.000000000000000000e+00,0.000000000000000000e+00,1.000000000000000000e+00,-1.000000000000000000e+00,-3.000000000000000000e+00,-2.000000000000000000e+00,-2.000000000000000000e+00,-2.000000000000000000e+00,-4.312744140625000000e-01,8.209228515625000000e-02,7.962036132812500000e-01,4.161987304687500000e-01
-2.000000000000000000e+00,-2.000000000000000000e+00,-1.000000000000000000e+00,-3.000000000000000000e+00,-2.000000000000000000e+00,-1.000000000000000000e+00,-1.000000000000000000e+00,-1.000000000000000000e+00,-4.312744140625000000e-01,8.209228515625000000e-02,7.962036132812500000e-01,4.161987304687500000e-01
-1.000000000000000000e+00,-3.000000000000000000e+00,0.000000000000000000e+00,-1.000000000000000000e+00,1.000000000000000000e+00,-2.000000000000000000e+00,0.000000000000000000e+00,0.000000000000000000e+00,-4.312744140625000000e-01,8.209228515625000000e-02,7.962036132812500000e-01,4.161987304687500000e-01
0.000000000000000000e+00,-1.000000000000000000e+00,2.000000000000000000e+00,2.000000000000000000e+00,0.000000000000000000e+00,1.000000000000000000e+00,-1.000000000000000000e+00,-2.000000000000000000e+00,-4.312744140625000000e-01,8.209228515625000000e-02,7.962036132812500000e-01,4.161987304687500000e-01
1.000000000000000000e+00,0.000000000000000000e+00,-1.000000000000000000e+00,1.000000000000000000e+00,0.000000000000000000e+00,1.000000000000000000e+00,-2.000000000000000000e+00,-1.000000000000000000e+00,-4.230957031250000000e-01,7.556152343750000000e-02,7.919921875000000000e-01,4.335327148437500000e-01
-2.000000000000000000e+00,-1.000000000000000000e+00,1.000000000000000000e+00,0.000000000000000000e+00,-2.000000000000000000e+00,-1.000000000000000000e+00,-1.000000000000000000e+00,0.000000000000000000e+00,-4.230957031250000000e-01,7.556152343750000000e-02,7.919921875000000000e-01,4.335327148437500000e-01
-1.000000000000000000e+00,-3.000000000000000000e+00,-2.000000000000000000e+00,-2.000000000000000000e+00,-1.000000000000000000e+00,0.000000000000000000e+00,0.000000000000000000e+00,-1.000000000000000000e+00,-4.230957031250000000e-01,7.556152343750000000e-02,7.919921875000000000e-01,4.335327148437500000e-01
-2.000000000000000000e+00,0.000000000000000000e+00,2.000000000000000000e+00,0.000000000000000000e+00,0.000000000000000000e+00,0.000000000000000000e+00,-1.000000000000000000e+00,0.000000000000000000e+00,-4.230957031250000000e-01,7.556152343750000000e-02,7.919921875000000000e-01,4.335327148437500000e-01
0.000000000000000000e+00,2.000000000000000000e+00,0.000000000000000000e+00,-1.000000000000000000e+00,-1.000000000000000000e+00,-2.000000000000000000e+00,0.000000000000000000e+00,0.000000000000000000e+00,-4.114990234375000000e-01,6.872558593750000000e-02,7.873535156250000000e-01,4.538574218750000000e-01
-1.000000000000000000e+00,-1.000000000000000000e+00,0.000000000000000000e+00,0.000000000000000000e+00,0.000000000000000000e+00,-1.000000000000000000e+00,-1.000000000000000000e+00,-3.000000000000000000e+00,-4.114990234375000000e-01,6.872558593750000000e-02,7.873535156250000000e-01,4.538574218750000000e-01
-1.000000000000000000e+00,-1.000000000000000000e+00,-1.000000000000000000e+00,2.000000000000000000e+00,-2.000000000000000000e+00,-2.000000000000000000e+00,-4.000000000000000000e+00,-1.000000000000000000e+00,-4.114990234375000000e-01,6.872558593750000000e-02,7.873535156250000000e-01,4.538574218750000000e-01
2.000000000000000000e+00,0.000000000000000000e+00,1.000000000000000000e+00,-3.000000000000000000e+00,-4.000000000000000000e+00,-1.000000000000000000e+00,-2.000000000000000000e+00,0.000000000000000000e+00,-4.114990234375000000e-01,6.872558593750000000e-02,7.873535156250000000e-01,4.538574218750000000e-01
-1.000000000000000000e+00,-1.000000000000000000e+00,-3.000000000000000000e+00,-3.000000000000000000e+00,-2.000000000000000000e+00,-3.000000000000000000e+00,-3.000000000000000000e+00,4.000000000000000000e+00,-3.960571289062500000e-01,6.097412109375000000e-02,7.823486328125000000e-01,4.768066406250000000e-01
-1.300000000000000000e+01,-4.000000000000000000e+00,-1.000000000000000000e+00,-2.000000000000000000e+00,-1.000000000000000000e+00,-1.000000000000000000e+00,0.000000000000000000e+00,-4.000000000000000000e+00,-3.960571289062500000e-01,6.097412109375000000e-02,7.823486328125000000e-01,4.768066406250000000e-01
0.000000000000000000e+00,2.000000000000000000e+00,-4.000000000000000000e+00,-2.000000000000000000e+00,-2.000000000000000000e+00,2.000000000000000000e+00,-1.000000000000000000e+00,-7.000000000000000000e+00,-3.960571289062500000e-01,6.097412109375000000e-02,7.823486328125000000e-01,4.768066406250000000e-01
1.200000000000000000e+01,-3.000000000000000000e+00,4.000000000000000000e+00,-1.000000000000000000e+00,-1.000000000000000000e+00,-2.000000000000000000e+00,-1.000000000000000000e+00,9.000000000000000000e+00,-3.960571289062500000e-01,6.097412109375000000e-02,7.823486328125000000e-01,4.768066406250000000e-01
-1.000000000000000000e+01,0.000000000000000000e+00,6.000000000000000000e+00,3.000000000000000000e+00,0.000000000000000000e+00,-1.000000000000000000e+00,0.000000000000000000e+00,-5.000000000000000000e+00,-3.767089843750000000e-01,5.108642578125000000e-02,7.767333984375000000e-01,5.021362304687500000e-01
9.000000000000000000e+00,1.000000000000000000e+00,-1.000000000000000000e+00,1.000000000000000000e+00,0.000000000000000000e+00,0.000000000000000000e+00,-1.000000000000000000e+00,-2.000000000000000000e+00,-3.767089843750000000e-01,5.108642578125000000e-02,7.767333984375000000e-01,5.021362304687500000e-01
-3.000000000000000000e+00,-2.000000000000000000e+00,3.000000000000000000e+00,-2.000000000000000000e+00,-1.000000000000000000e+00,-1.000000000000000000e+00,-1.000000000000000000e+00,1.000000000000000000e+00,-3.767089843750000000e-01,5.108642578125000000e-02,7.767333984375000000e-01,5.021362304687500000e-01
0.000000000000000000e+00,-4.000000000000000000e+00,-7.000000000000000000e+00,-3.000000000000000000e+00,-3.000000000000000000e+00,-2.000000000000000000e+00,1.000000000000000000e+00,-5.000000000000000000e+00,-3.767089843750000000e-01,5.108642578125000000e-02,7.767333984375000000e-01,5.021362304687500000e-01
1.000000000000000000e+00,-7.000000000000000000e+00,-7.000000000000000000e+00,-5.000000000000000000e+00,-2.000000000000000000e+00,-2.000000000000000000e+00,-3.000000000000000000e+00,-3.000000000000000000e+00,-3.537597656250000000e-01,3.710937500000000000e-02,7.699584960937500000e-01,5.297241210937500000e-01
2.000000000000000000e+00,-6.000000000000000000e+00,5.000000000000000000e+00,1.000000000000000000e+00,-1.000000000000000000e+00,0.000000000000000000e+00,1.000000000000000000e+00,1.200000000000000000e+01,-3.537597656250000000e-01,3.710937500000000000e-02,7.699584960937500000e-01,5.297241210937500000e-01
-1.000000000000000000e+00,1.400000000000000000e+01,2.000000000000000000e+00,-2.000000000000000000e+00,2.000000000000000000e+00,0.000000000000000000e+00,0.000000000000000000e+00,2.000000000000000000e+00,-3.537597656250000000e-01,3.710937500000000000e-02,7.699584960937500000e-01,5.297241210937500000e-01
-1.000000000000000000e+00,-3.000000000000000000e+00,0.000000000000000000e+00,6.000000000000000000e+00,1.000000000000000000e+00,0.000000000000000000e+00,-2.000000000000000000e+00,-2.000000000000000000e+00,-3.537597656250000000e-01,3.710937500000000000e-02,7.699584960937500000e-01,5.297241210937500000e-01
-6.000000000000000000e+00,-8.000000000000000000e+00,-1.300000000000000000e+01,-8.000000000000000000e+00,-3.000000000000000000e+00,0.000000000000000000e+00,2.000000000000000000e+00,5.000000000000000000e+00,-3.283081054687500000e-01,1.794433593750000000e-02,7.615966796875000000e-01,5.584106445312500000e-01
1.300000000000000000e+01,-3.000000000000000000e+00,-2.000000000000000000e+00,-1.000000000000000000e+00,-2.000000000000000000e+00,-5.000000000000000000e+00,-6.000000000000000000e+00,-9.000000000000000000e+00,-3.283081054687500000e-01,1.794433593750000000e-02,7.615966796875000000e-01,5.584106445312500000e-01
1.000000000000000000e+00,-6.000000000000000000e+00,-1.000000000000000000e+00,-1.000000000000000000e+00,1.000000000000000000e+00,0.000000000000000000e+00,0.000000000000000000e+00,0.000000000000000000e+00,-3.283081054687500000e-01,1.794433593750000000e-02,7.615966796875000000e-01,5.584106445312500000e-01
-1.000000000000000000e+00,5.000000000000000000e+00,3.000000000000000000e+00,-3.000000000000000000e+00,0.000000000000000000e+00,-2.000000000000000000e+00,1.000000000000000000e+00,-3.000000000000000000e+00,-3.283081054687500000e-01,1.794433593750000000e-02,7.615966796875000000e-01,5.584106445312500000e-01
-2.000000000000000000e+00,-1.000000000000000000e+00,0.000000000000000000e+00,-1.000000000000000000e+00,2.000000000000000000e+00,-1.000000000000000000e+00,0.000000000000000000e+00,1.000000000000000000e+00,-3.016967773437500000e-01,-8.728027343750000000e-03,7.507324218750000000e-01,5.875854492187500000e-01
-2.000000000000000000e+00,1.000000000000000000e+00,-6.000000000000000000e+00,-1.000000000000000000e+00,-1.000000000000000000e+00,0.000000000000000000e+00,-1.000000000000000000e+00,3.000000000000000000e+00,-3.016967773437500000e-01,-8.728027343750000000e-03,7.507324218750000000e-01,5.875854492187500000e-01
-1.000000000000000000e+00,-4.000000000000000000e+00,4.000000000000000000e+00,3.000000000000000000e+00,-2.000000000000000000e+00,-3.000000000000000000e+00,0.000000000000000000e+00,-2.000000000000000000e+00,-3.016967773437500000e-01,-8.728027343750000000e-03,7.507324218750000000e-01,5.875854492187500000e-01
-5.000000000000000000e+00,2.000000000000000000e+00,-2.000000000000000000e+00,1.000000000000000000e+00,-1.000000000000000000e+00,-2.000000000000000000e+00,-3.000000000000000000e+00,-3.000000000000000000e+00,-3.016967773437500000e-01,-8.728027343750000000e-03,7.507324218750000000e-01,5.875854492187500000e-01
1.000000000000000000e+01,0.000000000000000000e+00,7.000000000000000000e+00,1.000000000000000000e+00,-2.000000000000000000e+00,-1.000000000000000000e+00,-1.000000000000000000e+00,1.000000000000000000e+00,-2.733154296875000000e-01,-4.064941406250000000e-02,7.373046875000000000e-01,6.163940429687500000e-01
-1.100000000000000000e+01,0.000000000000000000e+00,0.000000000000000000e+00,-4.000000000000000000e+00,-2.000000000000000000e+00,1.000000000000000000e+00,0.000000000000000000e+00,2.000000000000000000e+00,-2.733154296875000000e-01,-4.064941406250000000e-02,7.373046875000000000e-01,6.163940429687500000e-01
1.000000000000000000e+00,-3.000000000000000000e+00,-1.000000000000000000e+00,1.000000000000000000e+00,0.000000000000000000e+00,-1.000000000000000000e+00,-2.000000000000000000e+00,1.000000000000000000e+00,-2.733154296875000000e-01,-4.064941406250000000e-02,7.373046875000000000e-01,6.163940429687500000e-01
-1.400000000000000000e+01,2.000000000000000000e+00,1.100000000000000000e+01,-1.000000000000000000e+00,2.000000000000000000e+00,2.000000000000000000e+00,2.000000000000000000e+00,1.000000000000000000e+01,-2.733154296875000000e-01,-4.064941406250000000e-02,7.373046875000000000e-01,6.163940429687500000e-01
3.900000000000000000e+01,3.000000000000000000e+00,-1.400000000000000000e+01,-3.000000000000000000e+00,-5.000000000000000000e+00,-4.000000000000000000e+00,-5.000000000000000000e+00,-1.400000000000000000e+01,-2.447509765625000000e-01,-8.044433593750000000e-02,7.200927734375000000e-01,6.442260742187500000e-01
-2.900000000000000000e+01,5.000000000000000000e+00,1.100000000000000000e+01,-4.000000000000000000e+00,-2.000000000000000000e+00,-3.000000000000000000e+00,-2.000000000000000000e+00,-8.000000000000000000e+00,-2.447509765625000000e-01,-8.044433593750000000e-02,7.200927734375000000e-01,6.442260742187500000e-01
-3.000000000000000000e+00,-2.000000000000000000e+00,-3.000000000000000000e+00,1.000000000000000000e+00,-1.000000000000000000e+00,-4.000000000000000000e+00,3.000000000000000000e+00,-7.000000000000000000e+00,-2.447509765625000000e-01,-8.044433593750000000e-02,7.200927734375000000e-01,6.442260742187500000e-01
-1.700000000000000000e+01,-6.000000000000000000e+00,-3.000000000000000000e+00,-1.000000000000000000e+01,0.000000000000000000e+00,0.000000000000000000e+00,-6.000000000000000000e+00,-1.600000000000000000e+01,-2.447509765625000000e-01,-8.044433593750000000e-02,7.200927734375000000e-01,6.442260742187500000e-01
