-1.000000000000000000e+00,-2.000000000000000000e+00,2.000000000000000000e+00,-1.000000000000000000e+00,-3.000000000000000000e+00,-1.000000000000000000e+00,0.000000000000000000e+00,1.000000000000000000e+00,-3.814086914062500000e-01,3.903198242187500000e-01,6.297607421875000000e-01,5.526733398437500000e-01
3.000000000000000000e+00,1.000000000000000000e+00,-6.000000000000000000e+00,-3.000000000000000000e+00,-3.000000000000000000e+00,1.000000000000000000e+00,-1.000000000000000000e+00,-1.000000000000000000e+00,-3.814086914062500000e-01,3.903198242187500000e-01,6.297607421875000000e-01,5.526733398437500000e-01
-6.000000000000000000e+00,-1.100000000000000000e+01,-5.000000000000000000e+00,-3.000000000000000000e+00,-7.000000000000000000e+00,-6.000000000000000000e+00,-5.000000000000000000e+00,-3.000000000000000000e+00,-3.814086914062500000e-01,3.903198242187500000e-01,6.297607421875000000e-01,5.526733398437500000e-01
3.000000000000000000e+00,-5.000000000000000000e+00,1.000000000000000000e+00,-3.000000000000000000e+00,-2.000000000000000000e+00,0.000000000000000000e+00,0.000000000000000000e+00,-1.000000000000000000e+00,-3.814086914062500000e-01,3.903198242187500000e-01,6.297607421875000000e-01,5.526733398437500000e-01
0.000000000000000000e+00,1.000000000000000000e+00,3.000000000000000000e+00,5.000000000000000000e+00,5.000000000000000000e+00,2.000000000000000000e+00,2.000000000000000000e+00,0.000000000000000000e+00,-3.833007812500000000e-01,3.907470703125000000e-01,6.286621093750000000e-01,5.523681640625000000e-01
-1.000000000000000000e+00,2.200000000000000000e+01,4.000000000000000000e+00,-9.000000000000000000e+00,-1.000000000000000000e+01,-3.000000000000000000e+00,0.000000000000000000e+00,1.000000000000000000e+00,-3.833007812500000000e-01,3.907470703125000000e-01,6.286621093750000000e-01,5.523681640625000000e-01
0.000000000000000000e+00,-1.200000000000000000e+01,-7.000000000000000000e+00,7.000000000000000000e+00,1.300000000000000000e+01,-1.000000000000000000e+00,1.000000000000000000e+00,0.000000000000000000e+00,-3.833007812500000000e-01,3.907470703125000000e-01,6.286621093750000000e-01,5.523681640625000000e-01
-4.000000000000000000e+00,-3.000000000000000000e+00,-4.000000000000000000e+00,3.000000000000000000e+00,0.000000000000000000e+00,2.000000000000000000e+00,0.000000000000000000e+00,-2.000000000000000000e+00,-3.833007812500000000e-01,3.907470703125000000e-01,6.286621093750000000e-01,5.523681640625000000e-01
-6.000000000000000000e+00,-5.000000000000000000e+00,8.000000000000000000e+00,0.000000000000000000e+00,-3.000000000000000000e+00,0.000000000000000000e+00,-2.000000000000000000e+00,-2.000000000000000000e+00,-3.845825195312500000e-01,3.903198242187500000e-01,6.276245117187500000e-01,5.529785156250000000e-01
-3.000000000000000000e+00,-1.400000000000000000e+01,-7.000000000000000000e+00,-3.000000000000000000e+00,0.000000000000000000e+00,0.000000000000000000e+00,0.000000000000000000e+00,1.000000000000000000e+00,-3.845825195312500000e-01,3.903198242187500000e-01,6.276245117187500000e-01,5.529785156250000000e-01
-1.000000000000000000e+00,-2.000000000000000000e+00,7.000000000000000000e+00,1.000000000000000000e+00,-8.000000000000000000e+00,-4.000000000000000000e+00,-2.000000000000000000e+00,-3.000000000000000000e+00,-3.845825195312500000e-01,3.903198242187500000e-01,6.276245117187500000e-01,5.529785156250000000e-01
5.000000000000000000e+00,1.100000000000000000e+01,-1.200000000000000000e+01,-1.300000000000000000e+01,0.000000000000000000e+00,0.000000000000000000e+00,1.000000000000000000e+00,4.000000000000000000e+00,-3.845825195312500000e-01,3.903198242187500000e-01,6.276245117187500000e-01,5.529785156250000000e-01
-5.000000000000000000e+00,-1.500000000000000000e+01,-2.000000000000000000e+00,-1.000000000000000000e+00,-1.000000000000000000e+00,0.000000000000000000e+00,-1.000000000000000000e+00,-2.000000000000000000e+00,-3.856201171875000000e-01,3.892211914062500000e-01,6.264038085937500000e-01,5.543823242187500000e-01
-4.000000000000000000e+00,-9.000000000000000000e+00,-2.000000000000000000e+00,2.000000000000000000e+00,1.000000000000000000e+00,1.000000000000000000e+00,-1.000000000000000000e+00,-2.000000000000000000e+00,-3.856201171875000000e-01,3.892211914062500000e-01,6.264038085937500000e-01,5.543823242187500000e-01
0.000000000000000000e+00,2.000000000000000000e+00,2.000000000000000000e+00,-1.600000000000000000e+01,-8.000000000000000000e+00,-4.000000000000000000e+00,-2.000000000000000000e+00,-3.000000000000000000e+00,-3.856201171875000000e-01,3.892211914062500000e-01,6.264038085937500000e-01,5.543823242187500000e-01
-2.000000000000000000e+00,-9.000000000000000000e+00,2.000000000000000000e+00,2.000000000000000000e+01,-3.000000000000000000e+00,-2.000000000000000000e+00,-1.000000000000000000e+00,-3.000000000000000000e+00,-3.856201171875000000e-01,3.892211914062500000e-01,6.264038085937500000e-01,5.543823242187500000e-01
1.000000000000000000e+00,3.000000000000000000e+00,-5.000000000000000000e+00,-5.000000000000000000e+00,1.000000000000000000e+00,1.000000000000000000e+00,0.000000000000000000e+00,0.000000000000000000e+00,-3.861694335937500000e-01,3.873901367187500000e-01,6.254882812500000000e-01,5.563354492187500000e-01
-2.000000000000000000e+00,-1.800000000000000000e+01,-1.300000000000000000e+01,-1.000000000000000000e+00,-3.000000000000000000e+00,-2.000000000000000000e+00,-1.000000000000000000e+00,-1.000000000000000000e+00,-3.861694335937500000e-01,3.873901367187500000e-01,6.254882812500000000e-01,5.563354492187500000e-01
4.000000000000000000e+00,3.900000000000000000e+01,2.000000000000000000e+01,2.000000000000000000e+00,1.000000000000000000e+00,-3.000000000000000000e+00,-3.000000000000000000e+00,0.000000000000000000e+00,-3.861694335937500000e-01,3.873901367187500000e-01,6.254882812500000000e-01,5.563354492187500000e-01
0.000000000000000000e+00,-6.000000000000000000e+00,-3.000000000000000000e+00,-7.000000000000000000e+00,-2.000000000000000000e+00,1.000000000000000000e+00,1.000000000000000000e+00,-1.000000000000000000e+00,-3.861694335937500000e-01,3.873901367187500000e-01,6.254882812500000000e-01,5.563354492187500000e-01
-1.000000000000000000e+00,-1.000000000000000000e+00,-6.000000000000000000e+00,2.000000000000000000e+00,-4.000000000000000000e+00,-2.000000000000000000e+00,-2.000000000000000000e+00,-1.000000000000000000e+00,-3.862304687500000000e-01,3.851928710937500000e-01,6.250610351562500000e-01,5.582885742187500000e-01
1.000000000000000000e+00,-1.200000000000000000e+01,-1.000000000000000000e+01,-8.000000000000000000e+00,-1.000000000000000000e+00,-3.000000000000000000e+00,-2.000000000000000000e+00,-1.000000000000000000e+00,-3.862304687500000000e-01,3.851928710937500000e-01,6.250610351562500000e-01,5.582885742187500000e-01
-3.000000000000000000e+00,6.000000000000000000e+00,1.300000000000000000e+01,6.000000000000000000e+00,-3.000000000000000000e+00,1.000000000000000000e+00,-1.000000000000000000e+00,-3.000000000000000000e+00,-3.862304687500000000e-01,3.851928710937500000e-01,6.250610351562500000e-01,5.582885742187500000e-01
2.000000000000000000e+00,-4.000000000000000000e+00,2.000000000000000000e+00,3.000000000000000000e+00,-2.000000000000000000e+00,-1.000000000000000000e+00,-2.000000000000000000e+00,-2.000000000000000000e+00,-3.862304687500000000e-01,3.851928710937500000e-01,6.250610351562500000e-01,5.582885742187500000e-01
7.000000000000000000e+00,1.900000000000000000e+01,1.000000000000000000e+01,4.000000000000000000e+00,-3.000000000000000000e+00,0.000000000000000000e+00,0.000000000000000000e+00,0.000000000000000000e+00,-3.864746093750000000e-01,3.826904296875000000e-01,6.248168945312500000e-01,5.601196289062500000e-01
0.000000000000000000e+00,-1.200000000000000000e+01,-6.000000000000000000e+00,-3.000000000000000000e+00,4.000000000000000000e+00,1.000000000000000000e+00,1.000000000000000000e+00,1.000000000000000000e+00,-3.864746093750000000e-01,3.826904296875000000e-01,6.248168945312500000e-01,5.601196289062500000e-01
-4.000000000000000000e+00,-1.000000000000000000e+01,-8.000000000000000000e+00,-9.000000000000000000e+00,-8.000000000000000000e+00,-1.000000000000000000e+00,-4.000000000000000000e+00,-2.000000000000000000e+00,-3.864746093750000000e-01,3.826904296875000000e-01,6.248168945312500000e-01,5.601196289062500000e-01
-4.000000000000000000e+00,-1.300000000000000000e+01,-1.200000000000000000e+01,2.000000000000000000e+00,-7.000000000000000000e+00,-7.000000000000000000e+00,-4.000000000000000000e+00,-2.000000000000000000e+00,-3.864746093750000000e-01,3.826904296875000000e-01,6.248168945312500000e-01,5.601196289062500000e-01
-1.000000000000000000e+00,-1.100000000000000000e+01,-8.000000000000000000e+00,3.000000000000000000e+00,3.000000000000000000e+01,1.000000000000000000e+01,1.000000000000000000e+00,0.000000000000000000e+00,-3.865966796875000000e-01,3.801269531250000000e-01,6.245727539062500000e-01,5.620117187500000000e-01
0.000000000000000000e+00,2.200000000000000000e+01,1.500000000000000000e+01,5.000000000000000000e+00,-4.000000000000000000e+00,-4.000000000000000000e+00,-3.000000000000000000e+00,-2.000000000000000000e+00,-3.865966796875000000e-01,3.801269531250000000e-01,6.245727539062500000e-01,5.620117187500000000e-01
0.000000000000000000e+00,1.000000000000000000e+00,5.000000000000000000e+00,4.000000000000000000e+00,2.000000000000000000e+00,-1.000000000000000000e+00,-1.000000000000000000e+00,1.000000000000000000e+00,-3.865966796875000000e-01,3.801269531250000000e-01,6.245727539062500000e-01,5.620117187500000000e-01
-2.000000000000000000e+00,-5.000000000000000000e+00,0.000000000000000000e+00,-7.000000000000000000e+00,-7.000000000000000000e+00,-2.000000000000000000e+00,-1.000000000000000000e+00,-2.000000000000000000e+00,-3.865966796875000000e-01,3.801269531250000000e-01,6.245727539062500000e-01,5.620117187500000000e-01
-1.000000000000000000e+00,2.000000000000000000e+01,-5.000000000000000000e+00,-9.000000000000000000e+00,-1.300000000000000000e+01,-7.000000000000000000e+00,-2.000000000000000000e+00,-2.000000000000000000e+00,-3.860473632812500000e-01,3.784790039062500000e-01,6.239624023437500000e-01,5.642089843750000000e-01
-1.000000000000000000e+00,-6.000000000000000000e+00,-9.000000000000000000e+00,5.000000000000000000e+00,0.000000000000000000e+00,2.000000000000000000e+00,-2.000000000000000000e+00,1.000000000000000000e+00,-3.860473632812500000e-01,3.784790039062500000e-01,6.239624023437500000e-01,5.642089843750000000e-01
-1.000000000000000000e+00,0.000000000000000000e+00,9.000000000000000000e+00,0.000000000000000000e+00,-1.000000000000000000e+00,2.000000000000000000e+00,1.000000000000000000e+00,-2.000000000000000000e+00,-3.860473632812500000e-01,3.784790039062500000e-01,6.239624023437500000e-01,5.642089843750000000e-01
-2.000000000000000000e+00,-2.000000000000000000e+00,-8.000000000000000000e+00,-1.400000000000000000e+01,1.000000000000000000e+00,1.000000000000000000e+00,1.000000000000000000e+00,0.000000000000000000e+00,-3.860473632812500000e-01,3.784790039062500000e-01,6.239624023437500000e-01,5.642089843750000000e-01
-1.000000000000000000e+00,4.000000000000000000e+00,-1.000000000000000000e+00,8.000000000000000000e+00,-2.000000000000000000e+00,-3.000000000000000000e+00,-3.000000000000000000e+00,0.000000000000000000e+00,-3.864746093750000000e-01,3.765869140625000000e-01,6.234741210937500000e-01,5.656738281250000000e-01
1.000000000000000000e+00,1.500000000000000000e+01,1.900000000000000000e+01,4.000000000000000000e+00,0.000000000000000000e+00,-1.000000000000000000e+00,0.000000000000000000e+00,0.000000000000000000e+00,-3.864746093750000000e-01,3.765869140625000000e-01,6.234741210937500000e-01,5.656738281250000000e-01
-3.000000000000000000e+00,-8.000000000000000000e+00,-9.000000000000000000e+00,1.000000000000000000e+00,-2.000000000000000000e+00,-3.000000000000000000e+00,-2.000000000000000000e+00,-1.000000000000000000e+00,-3.864746093750000000e-01,3.765869140625000000e-01,6.234741210937500000e-01,5.656738281250000000e-01
1.000000000000000000e+00,-1.200000000000000000e+01,-1.000000000000000000e+01,-2.000000000000000000e+00,2.000000000000000000e+00,0.000000000000000000e+00,-4.000000000000000000e+00,-2.000000000000000000e+00,-3.864746093750000000e-01,3.765869140625000000e-01,6.234741210937500000e-01,5.656738281250000000e-01
-4.000000000000000000e+00,0.000000000000000000e+00,6.000000000000000000e+00,-7.000000000000000000e+00,-2.000000000000000000e+00,0.000000000000000000e+00,-1.000000000000000000e+00,-2.000000000000000000e+00,-3.871459960937500000e-01,3.745117187500000000e-01,6.235351562500000000e-01,5.665283203125000000e-01
1.000000000000000000e+00,1.000000000000000000e+00,0.000000000000000000e+00,-5.000000000000000000e+00,-3.000000000000000000e+00,-2.000000000000000000e+00,2.000000000000000000e+00,1.000000000000000000e+00,-3.871459960937500000e-01,3.745117187500000000e-01,6.235351562500000000e-01,5.665283203125000000e-01
1.000000000000000000e+00,-1.200000000000000000e+01,-1.000000000000000000e+01,4.000000000000000000e+00,-2.000000000000000000e+00,-2.000000000000000000e+00,-3.000000000000000000e+00,-1.000000000000000000e+00,-3.871459960937500000e-01,3.745117187500000000e-01,6.235351562500000000e-01,5.665283203125000000e-01
0.000000000000000000e+00,7.000000000000000000e+00,5.000000000000000000e+00,0.000000000000000000e+00,3.000000000000000000e+00,0.000000000000000000e+00,-1.000000000000000000e+00,-2.000000000000000000e+00,-3.871459960937500000e-01,3.745117187500000000e-01,6.235351562500000000e-01,5.665283203125000000e-01
-3.000000000000000000e+00,-1.700000000000000000e+01,-7.000000000000000000e+00,-6.000000000000000000e+00,-5.000000000000000000e+00,-2.000000000000000000e+00,-1.000000000000000000e+00,0.000000000000000000e+00,-3.880004882812500000e-01,3.729248046875000000e-01,6.234130859375000000e-01,5.671386718750000000e-01
2.000000000000000000e+00,8.000000000000000000e+00,-6.000000000000000000e+00,-8.000000000000000000e+00,-2.000000000000000000e+00,-1.000000000000000000e+00,-2.000000000000000000e+00,-2.000000000000000000e+00,-3.880004882812500000e-01,3.729248046875000000e-01,6.234130859375000000e-01,5.671386718750000000e-01
-3.000000000000000000e+00,-8.000000000000000000e+00,-2.000000000000000000e+00,5.000000000000000000e+00,-1.000000000000000000e+00,3.000000000000000000e+00,1.000000000000000000e+00,-1.000000000000000000e+00,-3.880004882812500000e-01,3.729248046875000000e-01,6.234130859375000000e-01,5.671386718750000000e-01
1.000000000000000000e+00,0.000000000000000000e+00,-4.000000000000000000e+00,-2.000000000000000000e+00,0.000000000000000000e+00,-1.000000000000000000e+00,-1.000000000000000000e+00,0.000000000000000000e+00,-3.880004882812500000e-01,3.729248046875000000e-01,6.234130859375000000e-01,5.671386718750000000e-01
2.000000000000000000e+00,6.000000000000000000e+00,6.000000000000000000e+00,4.000000000000000000e+00,-1.000000000000000000e+00,-4.000000000000000000e+00,-5.000000000000000000e+00,0.000000000000000000e+00,-3.889160156250000000e-01,3.717041015625000000e-01,6.234130859375000000e-01,5.673828125000000000e-01
0.000000000000000000e+00,-3.000000000000000000e+00,-3.000000000000000000e+00,-6.000000000000000000e+00,-3.000000000000000000e+00,-4.000000000000000000e+00,0.000000000000000000e+00,-1.000000000000000000e+00,-3.889160156250000000e-01,3.717041015625000000e-01,6.234130859375000000e-01,5.673828125000000000e-01
1.000000000000000000e+00,0.000000000000000000e+00,-1.000000000000000000e+01,4.000000000000000000e+00,6.000000000000000000e+00,3.000000000000000000e+00,2.000000000000000000e+00,2.000000000000000000e+00,-3.889160156250000000e-01,3.717041015625000000e-01,6.234130859375000000e-01,5.673828125000000000e-01
-2.000000000000000000e+00,1.000000000000000000e+00,6.000000000000000000e+00,0.000000000000000000e+00,-1.000000000000000000e+00,-1.000000000000000000e+00,0.000000000000000000e+00,-1.000000000000000000e+00,-3.889160156250000000e-01,3.717041015625000000e-01,6.234130859375000000e-01,5.673828125000000000e-01
-2.000000000000000000e+00,-3.000000000000000000e+00,-8.000000000000000000e+00,-6.000000000000000000e+00,-4.000000000000000000e+00,0.000000000000000000e+00,1.000000000000000000e+00,-1.000000000000000000e+00,-3.894653320312500000e-01,3.713989257812500000e-01,6.230468750000000000e-01,5.675659179687500000e-01
-3.000000000000000000e+00,-8.000000000000000000e+00,3.000000000000000000e+00,4.000000000000000000e+00,0.000000000000000000e+00,-2.000000000000000000e+00,-1.000000000000000000e+00,-2.000000000000000000e+00,-3.894653320312500000e-01,3.713989257812500000e-01,6.230468750000000000e-01,5.675659179687500000e-01
1.000000000000000000e+00,-4.000000000000000000e+00,-1.000000000000000000e+01,-1.200000000000000000e+01,-4.000000000000000000e+00,-3.000000000000000000e+00,0.000000000000000000e+00,2.000000000000000000e+00,-3.894653320312500000e-01,3.713989257812500000e-01,6.230468750000000000e-01,5.675659179687500000e-01
-1.000000000000000000e+00,2.200000000000000000e+01,1.800000000000000000e+01,-4.000000000000000000e+00,2.000000000000000000e+00,1.000000000000000000e+00,1.000000000000000000e+00,1.000000000000000000e+00,-3.894653320312500000e-01,3.713989257812500000e-01,6.230468750000000000e-01,5.675659179687500000e-01
-3.000000000000000000e+00,-6.000000000000000000e+00,-2.000000000000000000e+00,4.000000000000000000e+00,0.000000000000000000e+00,3.000000000000000000e+00,2.000000000000000000e+00,-3.000000000000000000e+00,-3.900146484375000000e-01,3.709716796875000000e-01,6.230468750000000000e-01,5.674438476562500000e-01
-5.000000000000000000e+00,-7.000000000000000000e+00,-5.000000000000000000e+00,2.000000000000000000e+00,0.000000000000000000e+00,-1.000000000000000000e+00,-3.000000000000000000e+00,-3.000000000000000000e+00,-3.900146484375000000e-01,3.709716796875000000e-01,6.230468750000000000e-01,5.674438476562500000e-01
1.000000000000000000e+00,1.100000000000000000e+01,1.000000000000000000e+00,-3.000000000000000000e+00,-2.000000000000000000e+00,-1.000000000000000000e+00,-3.000000000000000000e+00,-1.000000000000000000e+00,-3.900146484375000000e-01,3.709716796875000000e-01,6.230468750000000000e-01,5.674438476562500000e-01
1.000000000000000000e+00,-2.000000000000000000e+00,-5.000000000000000000e+00,0.000000000000000000e+00,-1.000000000000000000e+00,-1.000000000000000000e+00,0.000000000000000000e+00,2.000000000000000000e+00,-3.900146484375000000e-01,3.709716796875000000e-01,6.230468750000000000e-01,5.674438476562500000e-01
-3.000000000000000000e+00,-2.200000000000000000e+01,-1.700000000000000000e+01,-1.300000000000000000e+01,-5.000000000000000000e+00,-3.000000000000000000e+00,-3.000000000000000000e+00,-2.000000000000000000e+00,-3.906860351562500000e-01,3.701171875000000000e-01,6.235961914062500000e-01,5.669555664062500000e-01
-4.000000000000000000e+00,4.000000000000000000e+00,1.000000000000000000e+01,8.000000000000000000e+00,-2.000000000000000000e+00,0.000000000000000000e+00,0.000000000000000000e+00,-3.000000000000000000e+00,-3.906860351562500000e-01,3.701171875000000000e-01,6.235961914062500000e-01,5.669555664062500000e-01
6.000000000000000000e+00,4.000000000000000000e+00,-2.000000000000000000e+00,2.000000000000000000e+00,0.000000000000000000e+00,2.000000000000000000e+00,1.000000000000000000e+00,-2.000000000000000000e+00,-3.906860351562500000e-01,3.701171875000000000e-01,6.235961914062500000e-01,5.669555664062500000e-01
0.000000000000000000e+00,3.000000000000000000e+00,-5.000000000000000000e+00,0.000000000000000000e+00,0.000000000000000000e+00,-2.000000000000000000e+00,-2.000000000000000000e+00,-1.000000000000000000e+00,-3.906860351562500000e-01,3.701171875000000000e-01,6.235961914062500000e-01,5.669555664062500000e-01
2.000000000000000000e+00,1.000000000000000000e+00,-4.000000000000000000e+00,-7.000000000000000000e+00,0.000000000000000000e+00,-1.000000000000000000e+00,-1.000000000000000000e+00,0.000000000000000000e+00,-3.917846679687500000e-01,3.688354492187500000e-01,6.241455078125000000e-01,5.664062500000000000e-01
-2.000000000000000000e+00,-8.000000000000000000e+00,2.000000000000000000e+00,4.000000000000000000e+00,0.000000000000000000e+00,1.000000000000000000e+00,1.000000000000000000e+00,0.000000000000000000e+00,-3.917846679687500000e-01,3.688354492187500000e-01,6.241455078125000000e-01,5.664062500000000000e-01
-1.000000000000000000e+00,1.000000000000000000e+00,6.000000000000000000e+00,2.000000000000000000e+00,0.000000000000000000e+00,-2.000000000000000000e+00,-1.000000000000000000e+00,-2.000000000000000000e+00,-3.917846679687500000e-01,3.688354492187500000e-01,6.241455078125000000e-01,5.664062500000000000e-01
3.000000000000000000e+00,4.000000000000000000e+00,-2.000000000000000000e+00,2.000000000000000000e+00,1.000000000000000000e+00,-1.000000000000000000e+00,0.000000000000000000e+00,2.000000000000000000e+00,-3.917846679687500000e-01,3.688354492187500000e-01,6.241455078125000000e-01,5.664062500000000000e-01
-1.000000000000000000e+00,-8.000000000000000000e+00,-7.000000000000000000e+00,-7.000000000000000000e+00,-3.000000000000000000e+00,-3.000000000000000000e+00,-1.000000000000000000e+00,0.000000000000000000e+00,-3.922729492187500000e-01,3.681640625000000000e-01,6.244506835937500000e-01,5.662231445312500000e-01
1.000000000000000000e+00,-3.000000000000000000e+00,-4.000000000000000000e+00,-1.000000000000000000e+01,1.000000000000000000e+00,1.000000000000000000e+00,-2.000000000000000000e+00,1.000000000000000000e+00,-3.922729492187500000e-01,3.681640625000000000e-01,6.244506835937500000e-01,5.662231445312500000e-01
-5.000000000000000000e+00,-5.000000000000000000e+00,1.000000000000000000e+01,1.100000000000000000e+01,-3.000000000000000000e+00,-4.000000000000000000e+00,-3.000000000000000000e+00,-3.000000000000000000e+00,-3.922729492187500000e-01,3.681640625000000000e-01,6.244506835937500000e-01,5.662231445312500000e-01
0.000000000000000000e+00,6.000000000000000000e+00,8.000000000000000000e+00,-4.000000000000000000e+00,-5.000000000000000000e+00,-3.000000000000000000e+00,-2.000000000000000000e+00,-3.000000000000000000e+00,-3.922729492187500000e-01,3.681640625000000000e-01,6.244506835937500000e-01,5.662231445312500000e-01
-1.000000000000000000e+00,-2.000000000000000000e+00,-1.000000000000000000e+00,5.000000000000000000e+00,1.000000000000000000e+00,0.000000000000000000e+00,1.000000000000000000e+00,-2.000000000000000000e+00,-3.923950195312500000e-01,3.683471679687500000e-01,6.243286132812500000e-01,5.661621093750000000e-01
2.000000000000000000e+00,1.000000000000000000e+00,-8.000000000000000000e+00,-2.000000000000000000e+00,6.000000000000000000e+00,4.000000000000000000e+00,2.000000000000000000e+00,1.000000000000000000e+00,-3.923950195312500000e-01,3.683471679687500000e-01,6.243286132812500000e-01,5.661621093750000000e-01
-2.000000000000000000e+00,-2.200000000000000000e+01,-1.400000000000000000e+01,-5.000000000000000000e+00,0.000000000000000000e+00,-1.000000000000000000e+00,1.000000000000000000e+00,1.000000000000000000e+00,-3.923950195312500000e-01,3.683471679687500000e-01,6.243286132812500000e-01,5.661621093750000000e-01
-6.000000000000000000e+00,1.100000000000000000e+01,8.000000000000000000e+00,2.000000000000000000e+00,-1.000000000000000000e+00,0.000000000000000000e+00,-1.000000000000000000e+00,-2.000000000000000000e+00,-3.923950195312500000e-01,3.683471679687500000e-01,6.243286132812500000e-01,5.661621093750000000e-01
3.000000000000000000e+00,6.000000000000000000e+00,3.000000000000000000e+00,-4.000000000000000000e+00,-6.000000000000000000e+00,-4.000000000000000000e+00,-4.000000000000000000e+00,1.000000000000000000e+00,-3.922729492187500000e-01,3.685913085937500000e-01,6.242065429687500000e-01,5.662231445312500000e-01
-4.000000000000000000e+00,-9.000000000000000000e+00,2.000000000000000000e+00,-1.000000000000000000e+00,-6.000000000000000000e+00,-4.000000000000000000e+00,-1.000000000000000000e+00,-2.000000000000000000e+00,-3.922729492187500000e-01,3.685913085937500000e-01,6.242065429687500000e-01,5.662231445312500000e-01
1.000000000000000000e+00,6.000000000000000000e+00,-4.000000000000000000e+00,-3.000000000000000000e+00,0.000000000000000000e+00,0.000000000000000000e+00,-2.000000000000000000e+00,-1.000000000000000000e+00,-3.922729492187500000e-01,3.685913085937500000e-01,6.242065429687500000e-01,5.662231445312500000e-01
-1.000000000000000000e+00,-7.000000000000000000e+00,-7.000000000000000000e+00,2.000000000000000000e+00,1.000000000000000000e+00,1.000000000000000000e+00,-1.000000000000000000e+00,0.000000000000000000e+00,-3.922729492187500000e-01,3.685913085937500000e-01,6.242065429687500000e-01,5.662231445312500000e-01
-1.000000000000000000e+00,-6.000000000000000000e+00,-2.000000000000000000e+00,-3.000000000000000000e+00,-2.000000000000000000e+00,-2.000000000000000000e+00,-1.000000000000000000e+00,-2.000000000000000000e+00,-3.925781250000000000e-01,3.682250976562500000e-01,6.245117187500000000e-01,5.658569335937500000e-01
-1.000000000000000000e+00,2.000000000000000000e+00,7.000000000000000000e+00,5.000000000000000000e+00,0.000000000000000000e+00,0.000000000000000000e+00,-1.000000000000000000e+00,-1.000000000000000000e+00,-3.925781250000000000e-01,3.682250976562500000e-01,6.245117187500000000e-01,5.658569335937500000e-01
-4.000000000000000000e+00,-1.000000000000000000e+00,-1.000000000000000000e+00,0.000000000000000000e+00,1.000000000000000000e+00,-2.000000000000000000e+00,0.000000000000000000e+00,-2.000000000000000000e+00,-3.925781250000000000e-01,3.682250976562500000e-01,6.245117187500000000e-01,5.658569335937500000e-01
-1.000000000000000000e+00,3.000000000000000000e+00,1.000000000000000000e+00,-1.000000000000000000e+00,-2.000000000000000000e+00,-3.000000000000000000e+00,-2.000000000000000000e+00,-3.000000000000000000e+00,-3.925781250000000000e-01,3.682250976562500000e-01,6.245117187500000000e-01,5.658569335937500000e-01
0.000000000000000000e+00,2.000000000000000000e+00,1.000000000000000000e+00,1.000000000000000000e+00,-1.000000000000000000e+00,2.000000000000000000e+00,-1.000000000000000000e+00,-1.000000000000000000e+00,-3.930664062500000000e-01,3.675537109375000000e-01,6.250610351562500000e-01,5.653686523437500000e-01
1.000000000000000000e+00,-2.000000000000000000e+00,-7.000000000000000000e+00,-7.000000000000000000e+00,-3.000000000000000000e+00,-2.000000000000000000e+00,-4.000000000000000000e+00,-1.000000000000000000e+00,-3.930664062500000000e-01,3.675537109375000000e-01,6.250610351562500000e-01,5.653686523437500000e-01
0.000000000000000000e+00,-4.000000000000000000e+00,3.000000000000000000e+00,5.000000000000000000e+00,1.000000000000000000e+00,1.000000000000000000e+00,0.000000000000000000e+00,1.000000000000000000e+00,-3.934936523437500000e-01,3.671875000000000000e-01,6.253051757812500000e-01,5.650634765625000000e-01
2.000000000000000000e+00,-6.000000000000000000e+00,-1.000000000000000000e+00,-2.000000000000000000e+00,-3.000000000000000000e+00,0.000000000000000000e+00,-1.000000000000000000e+00,-1.000000000000000000e+00,-3.934936523437500000e-01,3.671875000000000000e-01,6.253051757812500000e-01,5.650634765625000000e-01
-5.000000000000000000e+00,1.000000000000000000e+00,2.000000000000000000e+00,6.000000000000000000e+00,0.000000000000000000e+00,-2.000000000000000000e+00,0.000000000000000000e+00,-3.000000000000000000e+00,-3.934936523437500000e-01,3.671875000000000000e-01,6.253051757812500000e-01,5.650634765625000000e-01
3.000000000000000000e+00,9.000000000000000000e+00,-1.000000000000000000e+00,0.000000000000000000e+00,2.000000000000000000e+00,1.000000000000000000e+00,1.000000000000000000e+00,2.000000000000000000e+00,-3.934936523437500000e-01,3.671875000000000000e-01,6.253051757812500000e-01,5.650634765625000000e-01
-3.000000000000000000e+00,1.100000000000000000e+01,4.000000000000000000e+00,-4.000000000000000000e+00,-1.000000000000000000e+00,0.000000000000000000e+00,-4.000000000000000000e+00,-2.000000000000000000e+00,-3.936157226562500000e-01,3.670043945312500000e-01,6.253662109375000000e-01,5.650024414062500000e-01
-2.000000000000000000e+00,-2.200000000000000000e+01,-9.000000000000000000e+00,-4.000000000000000000e+00,-4.000000000000000000e+00,-1.000000000000000000e+00,0.000000000000000000e+00,-1.000000000000000000e+00,-3.936157226562500000e-01,3.670043945312500000e-01,6.253662109375000000e-01,5.650024414062500000e-01
-1.000000000000000000e+00,1.400000000000000000e+01,2.000000000000000000e+00,-1.000000000000000000e+00,7.000000000000000000e+00,0.000000000000000000e+00,-2.000000000000000000e+00,-1.000000000000000000e+00,-3.936157226562500000e-01,3.670043945312500000e-01,6.253662109375000000e-01,5.650024414062500000e-01
-2.000000000000000000e+00,-9.000000000000000000e+00,-6.000000000000000000e+00,-1.000000000000000000e+00,-6.000000000000000000e+00,-4.000000000000000000e+00,-2.000000000000000000e+00,-2.000000000000000000e+00,-3.936157226562500000e-01,3.670043945312500000e-01,6.253662109375000000e-01,5.650024414062500000e-01
-1.000000000000000000e+00,2.200000000000000000e+01,9.000000000000000000e+00,-1.000000000000000000e+00,-1.000000000000000000e+00,-1.000000000000000000e+00,0.000000000000000000e+00,-1.000000000000000000e+00,-3.935546875000000000e-01,3.670043945312500000e-01,6.254272460937500000e-01,5.650024414062500000e-01
-3.000000000000000000e+00,-2.000000000000000000e+00,1.000000000000000000e+00,-7.000000000000000000e+00,1.400000000000000000e+01,3.000000000000000000e+00,-2.000000000000000000e+00,-1.000000000000000000e+00,-3.935546875000000000e-01,3.670043945312500000e-01,6.254272460937500000e-01,5.650024414062500000e-01
-3.000000000000000000e+00,-1.300000000000000000e+01,1.400000000000000000e+01,1.600000000000000000e+01,-1.000000000000000000e+00,-3.000000000000000000e+00,0.000000000000000000e+00,0.000000000000000000e+00,-3.935546875000000000e-01,3.670043945312500000e-01,6.254272460937500000e-01,5.650024414062500000e-01
0.000000000000000000e+00,3.000000000000000000e+00,-4.000000000000000000e+00,-6.000000000000000000e+00,-3.000000000000000000e+00,-2.000000000000000000e+00,-1.000000000000000000e+00,-2.000000000000000000e+00,-3.935546875000000000e-01,3.670043945312500000e-01,6.254272460937500000e-01,5.650024414062500000e-01
1.000000000000000000e+00,-9.000000000000000000e+00,-8.000000000000000000e+00,-4.000000000000000000e+00,-6.000000000000000000e+00,-1.000000000000000000e+00,0.000000000000000000e+00,0.000000000000000000e+00,-3.933105468750000000e-01,3.666992187500000000e-01,6.256713867187500000e-01,5.650634765625000000e-01
2.000000000000000000e+00,9.000000000000000000e+00,-1.100000000000000000e+01,-4.000000000000000000e+00,-5.000000000000000000e+00,-1.000000000000000000e+00,-1.000000000000000000e+00,-1.000000000000000000e+00,-3.933105468750000000e-01,3.666992187500000000e-01,6.256713867187500000e-01,5.650634765625000000e-01
1.000000000000000000e+00,-2.000000000000000000e+00,-5.000000000000000000e+00,-9.000000000000000000e+00,-4.000000000000000000e+00,0.000000000000000000e+00,0.000000000000000000e+00,-1.000000000000000000e+00,-3.933105468750000000e-01,3.666992187500000000e-01,6.256713867187500000e-01,5.650634765625000000e-01
-2.000000000000000000e+00,-2.000000000000000000e+00,0.000000000000000000e+00,4.000000000000000000e+00,1.000000000000000000e+00,2.000000000000000000e+00,-2.000000000000000000e+00,-3.000000000000000000e+00,-3.933105468750000000e-01,3.666992187500000000e-01,6.256713867187500000e-01,5.650634765625000000e-01
0.000000000000000000e+00,-5.000000000000000000e+00,-1.000000000000000000e+00,-4.000000000000000000e+00,-3.000000000000000000e+00,-3.000000000000000000e+00,-3.000000000000000000e+00,-1.000000000000000000e+00,-3.931274414062500000e-01,3.660888671875000000e-01,6.262207031250000000e-01,5.650024414062500000e-01
3.000000000000000000e+00,1.000000000000000000e+01,1.300000000000000000e+01,-1.000000000000000000e+00,-2.000000000000000000e+00,-1.000000000000000000e+00,2.000000000000000000e+00,0.000000000000000000e+00,-3.931274414062500000e-01,3.660888671875000000e-01,6.262207031250000000e-01,5.650024414062500000e-01
2.000000000000000000e+00,-5.000000000000000000e+00,-3.000000000000000000e+00,1.000000000000000000e+00,1.000000000000000000e+00,-1.000000000000000000e+00,-1.000000000000000000e+00,0.000000000000000000e+00,-3.931274414062500000e-01,3.660888671875000000e-01,6.262207031250000000e-01,5.650024414062500000e-01
-3.000000000000000000e+00,-1.000000000000000000e+01,1.000000000000000000e+00,0.000000000000000000e+00,-3.000000000000000000e+00,-1.000000000000000000e+00,0.000000000000000000e+00,1.000000000000000000e+00,-3.931274414062500000e-01,3.660888671875000000e-01,6.262207031250000000e-01,5.650024414062500000e-01
-2.000000000000000000e+00,0.000000000000000000e+00,-1.000000000000000000e+00,-2.000000000000000000e+00,2.000000000000000000e+00,1.000000000000000000e+00,0.000000000000000000e+00,-1.000000000000000000e+00,-3.930664062500000000e-01,3.655395507812500000e-01,6.267089843750000000e-01,5.648803710937500000e-01
-1.000000000000000000e+00,-8.000000000000000000e+00,-3.000000000000000000e+00,4.000000000000000000e+00,0.000000000000000000e+00,-2.000000000000000000e+00,0.000000000000000000e+00,0.000000000000000000e+00,-3.930664062500000000e-01,3.655395507812500000e-01,6.267089843750000000e-01,5.648803710937500000e-01
2.000000000000000000e+00,2.200000000000000000e+01,-7.000000000000000000e+00,-1.100000000000000000e+01,-7.000000000000000000e+00,-2.000000000000000000e+00,-2.000000000000000000e+00,1.000000000000000000e+00,-3.930664062500000000e-01,3.655395507812500000e-01,6.267089843750000000e-01,5.648803710937500000e-01
-1.000000000000000000e+00,1.000000000000000000e+01,1.800000000000000000e+01,1.300000000000000000e+01,6.000000000000000000e+00,4.000000000000000000e+00,1.000000000000000000e+00,0.000000000000000000e+00,-3.930664062500000000e-01,3.655395507812500000e-01,6.267089843750000000e-01,5.648803710937500000e-01
-4.000000000000000000e+00,-8.000000000000000000e+00,-1.100000000000000000e+01,-3.000000000000000000e+00,-2.000000000000000000e+00,-1.000000000000000000e+00,-1.000000000000000000e+00,0.000000000000000000e+00,-3.931274414062500000e-01,3.651123046875000000e-01,6.270751953125000000e-01,5.646362304687500000e-01
-1.000000000000000000e+00,-1.000000000000000000e+01,-6.000000000000000000e+00,1.000000000000000000e+00,-1.000000000000000000e+00,-1.000000000000000000e+00,0.000000000000000000e+00,-1.000000000000000000e+00,-3.931274414062500000e-01,3.651123046875000000e-01,6.270751953125000000e-01,5.646362304687500000e-01
2.000000000000000000e+00,-6.000000000000000000e+00,-1.500000000000000000e+01,-7.000000000000000000e+00,-4.000000000000000000e+00,-1.000000000000000000e+00,-1.000000000000000000e+00,-1.000000000000000000e+00,-3.931274414062500000e-01,3.651123046875000000e-01,6.270751953125000000e-01,5.646362304687500000e-01
-1.000000000000000000e+00,-1.100000000000000000e+01,-1.600000000000000000e+01,-7.000000000000000000e+00,-3.000000000000000000e+00,-1.000000000000000000e+00,-3.000000000000000000e+00,-2.000000000000000000e+00,-3.931274414062500000e-01,3.651123046875000000e-01,6.270751953125000000e-01,5.646362304687500000e-01
2.000000000000000000e+00,1.100000000000000000e+01,1.900000000000000000e+01,5.000000000000000000e+00,3.000000000000000000e+00,-1.000000000000000000e+00,-3.000000000000000000e+00,-2.000000000000000000e+00,-3.930053710937500000e-01,3.649291992187500000e-01,6.273803710937500000e-01,5.645751953125000000e-01
-2.000000000000000000e+00,-8.000000000000000000e+00,-8.000000000000000000e+00,5.000000000000000000e+00,-1.000000000000000000e+00,1.000000000000000000e+00,0.000000000000000000e+00,-2.000000000000000000e+00,-3.930053710937500000e-01,3.649291992187500000e-01,6.273803710937500000e-01,5.645751953125000000e-01
0.000000000000000000e+00,3.000000000000000000e+00,2.000000000000000000e+00,-3.000000000000000000e+00,0.000000000000000000e+00,-1.000000000000000000e+00,0.000000000000000000e+00,-1.000000000000000000e+00,-3.930053710937500000e-01,3.649291992187500000e-01,6.273803710937500000e-01,5.645751953125000000e-01
-1.000000000000000000e+00,-2.000000000000000000e+00,-5.000000000000000000e+00,-7.000000000000000000e+00,-4.000000000000000000e+00,-3.000000000000000000e+00,-2.000000000000000000e+00,-2.000000000000000000e+00,-3.930053710937500000e-01,3.649291992187500000e-01,6.273803710937500000e-01,5.645751953125000000e-01
-1.000000000000000000e+00,-1.400000000000000000e+01,-9.000000000000000000e+00,-2.000000000000000000e+00,0.000000000000000000e+00,0.000000000000000000e+00,-1.000000000000000000e+00,-1.000000000000000000e+00,-3.931884765625000000e-01,3.645629882812500000e-01,6.276245117187500000e-01,5.643310546875000000e-01
-1.000000000000000000e+00,0.000000000000000000e+00,-6.000000000000000000e+00,-4.000000000000000000e+00,-5.000000000000000000e+00,-7.000000000000000000e+00,-2.000000000000000000e+00,-2.000000000000000000e+00,-3.931884765625000000e-01,3.645629882812500000e-01,6.276245117187500000e-01,5.643310546875000000e-01
0.000000000000000000e+00,4.000000000000000000e+00,7.000000000000000000e+00,2.000000000000000000e+00,0.000000000000000000e+00,-1.000000000000000000e+00,-1.000000000000000000e+00,2.000000000000000000e+00,-3.931884765625000000e-01,3.645629882812500000e-01,6.276245117187500000e-01,5.643310546875000000e-01
-2.000000000000000000e+00,1.000000000000000000e+00,2.000000000000000000e+00,2.000000000000000000e+00,2.000000000000000000e+00,0.000000000000000000e+00,-1.000000000000000000e+00,0.000000000000000000e+00,-3.931884765625000000e-01,3.645629882812500000e-01,6.276245117187500000e-01,5.643310546875000000e-01
-2.000000000000000000e+00,-5.000000000000000000e+00,-3.000000000000000000e+00,-3.000000000000000000e+00,-5.000000000000000000e+00,-3.000000000000000000e+00,0.000000000000000000e+00,-2.000000000000000000e+00,-3.934936523437500000e-01,3.642578125000000000e-01,6.278686523437500000e-01,5.640869140625000000e-01
-2.000000000000000000e+00,5.000000000000000000e+00,1.000000000000000000e+00,2.000000000000000000e+00,2.000000000000000000e+00,1.000000000000000000e+00,0.000000000000000000e+00,-1.000000000000000000e+00,-3.934936523437500000e-01,3.642578125000000000e-01,6.278686523437500000e-01,5.640869140625000000e-01
1.000000000000000000e+00,-2.000000000000000000e+00,-3.000000000000000000e+00,-1.000000000000000000e+00,-1.000000000000000000e+00,0.000000000000000000e+00,-1.000000000000000000e+00,0.000000000000000000e+00,-3.934936523437500000e-01,3.642578125000000000e-01,6.278686523437500000e-01,5.640869140625000000e-01
0.000000000000000000e+00,2.000000000000000000e+00,3.000000000000000000e+00,0.000000000000000000e+00,-4.000000000000000000e+00,-4.000000000000000000e+00,-1.000000000000000000e+00,-1.000000000000000000e+00,-3.934936523437500000e-01,3.642578125000000000e-01,6.278686523437500000e-01,5.640869140625000000e-01
-2.000000000000000000e+00,-2.000000000000000000e+00,-4.000000000000000000e+00,-5.000000000000000000e+00,-1.000000000000000000e+00,-1.000000000000000000e+00,-2.000000000000000000e+00,-3.000000000000000000e+00,-3.937377929687500000e-01,3.640747070312500000e-01,6.282348632812500000e-01,5.636596679687500000e-01
1.000000000000000000e+00,-1.000000000000000000e+00,0.000000000000000000e+00,-1.000000000000000000e+00,-2.000000000000000000e+00,0.000000000000000000e+00,1.000000000000000000e+00,0.000000000000000000e+00,-3.937377929687500000e-01,3.640747070312500000e-01,6.282348632812500000e-01,5.636596679687500000e-01
-2.000000000000000000e+00,-2.000000000000000000e+00,2.000000000000000000e+00,2.000000000000000000e+00,-1.000000000000000000e+00,1.000000000000000000e+00,-1.000000000000000000e+00,0.000000000000000000e+00,-3.937377929687500000e-01,3.640747070312500000e-01,6.282348632812500000e-01,5.636596679687500000e-01
-1.000000000000000000e+00,-1.000000000000000000e+00,-2.000000000000000000e+00,-2.000000000000000000e+00,-1.000000000000000000e+00,1.000000000000000000e+00,-1.000000000000000000e+00,-1.000000000000000000e+00,-3.937377929687500000e-01,3.640747070312500000e-01,6.282348632812500000e-01,5.636596679687500000e-01
0.000000000000000000e+00,-1.000000000000000000e+00,-1.100000000000000000e+01,0.000000000000000000e+00,0.000000000000000000e+00,1.000000000000000000e+00,1.000000000000000000e+00,1.000000000000000000e+00,-3.941040039062500000e-01,3.638916015625000000e-01,6.287231445312500000e-01,5.629272460937500000e-01
-2.000000000000000000e+00,1.000000000000000000e+00,1.400000000000000000e+01,-3.000000000000000000e+00,-2.000000000000000000e+00,0.000000000000000000e+00,-2.000000000000000000e+00,0.000000000000000000e+00,-3.941040039062500000e-01,3.638916015625000000e-01,6.287231445312500000e-01,5.629272460937500000e-01
-1.000000000000000000e+00,-7.000000000000000000e+00,-3.000000000000000000e+00,-3.000000000000000000e+00,-2.000000000000000000e+00,-3.000000000000000000e+00,-1.000000000000000000e+00,-1.000000000000000000e+00,-3.941040039062500000e-01,3.638916015625000000e-01,6.287231445312500000e-01,5.629272460937500000e-01
-2.000000000000000000e+00,0.000000000000000000e+00,3.000000000000000000e+00,1.000000000000000000e+00,-1.000000000000000000e+00,-5.000000000000000000e+00,-3.000000000000000000e+00,-2.000000000000000000e+00,-3.941040039062500000e-01,3.638916015625000000e-01,6.287231445312500000e-01,5.629272460937500000e-01
3.000000000000000000e+00,8.000000000000000000e+00,9.000000000000000000e+00,0.000000000000000000e+00,1.000000000000000000e+00,0.000000000000000000e+00,-1.000000000000000000e+00,1.000000000000000000e+00,-3.944702148437500000e-01,3.638305664062500000e-01,6.297607421875000000e-01,5.615844726562500000e-01
-2.000000000000000000e+00,-2.000000000000000000e+00,-7.000000000000000000e+00,0.000000000000000000e+00,-2.000000000000000000e+00,-2.000000000000000000e+00,-1.000000000000000000e+00,-2.000000000000000000e+00,-3.944702148437500000e-01,3.638305664062500000e-01,6.297607421875000000e-01,5.615844726562500000e-01
-2.000000000000000000e+00,-9.000000000000000000e+00,-7.000000000000000000e+00,-1.000000000000000000e+00,1.000000000000000000e+00,1.000000000000000000e+00,0.000000000000000000e+00,0.000000000000000000e+00,-3.944702148437500000e-01,3.638305664062500000e-01,6.297607421875000000e-01,5.615844726562500000e-01
-2.000000000000000000e+00,1.500000000000000000e+01,5.000000000000000000e+00,-3.000000000000000000e+00,-2.000000000000000000e+00,-1.000000000000000000e+00,1.000000000000000000e+00,-1.000000000000000000e+00,-3.944702148437500000e-01,3.638305664062500000e-01,6.297607421875000000e-01,5.615844726562500000e-01
-2.000000000000000000e+00,2.000000000000000000e+00,-4.000000000000000000e+00,-1.000000000000000000e+00,-1.000000000000000000e+00,-1.000000000000000000e+00,-2.000000000000000000e+00,-2.000000000000000000e+00,-3.953247070312500000e-01,3.633422851562500000e-01,6.308593750000000000e-01,5.599975585937500000e-01
-3.000000000000000000e+00,0.000000000000000000e+00,-1.000000000000000000e+00,-2.000000000000000000e+00,-2.000000000000000000e+00,0.000000000000000000e+00,-3.000000000000000000e+00,-1.000000000000000000e+00,-3.953247070312500000e-01,3.633422851562500000e-01,6.308593750000000000e-01,5.599975585937500000e-01
-2.000000000000000000e+00,1.000000000000000000e+01,1.800000000000000000e+01,2.000000000000000000e+00,-1.000000000000000000e+00,0.000000000000000000e+00,-2.000000000000000000e+00,-4.000000000000000000e+00,-3.953247070312500000e-01,3.633422851562500000e-01,6.308593750000000000e-01,5.599975585937500000e-01
-3.000000000000000000e+00,-2.700000000000000000e+01,-1.100000000000000000e+01,-1.000000000000000000e+00,1.000000000000000000e+00,0.000000000000000000e+00,-1.000000000000000000e+00,0.000000000000000000e+00,-3.953247070312500000e-01,3.633422851562500000e-01,6.308593750000000000e-01,5.599975585937500000e-01
4.000000000000000000e+00,-6.000000000000000000e+00,-1.100000000000000000e+01,-1.100000000000000000e+01,-3.000000000000000000e+00,-1.000000000000000000e+00,1.000000000000000000e+00,2.000000000000000000e+00,-3.959960937500000000e-01,3.633422851562500000e-01,6.317749023437500000e-01,5.585327148437500000e-01
1.000000000000000000e+00,1.100000000000000000e+01,9.000000000000000000e+00,1.100000000000000000e+01,0.000000000000000000e+00,-2.000000000000000000e+00,-1.000000000000000000e+00,-2.000000000000000000e+00,-3.959960937500000000e-01,3.633422851562500000e-01,6.317749023437500000e-01,5.585327148437500000e-01
-1.000000000000000000e+00,-1.000000000000000000e+00,-5.000000000000000000e+00,2.000000000000000000e+00,0.000000000000000000e+00,-1.000000000000000000e+00,-2.000000000000000000e+00,-2.000000000000000000e+00,-3.959960937500000000e-01,3.633422851562500000e-01,6.317749023437500000e-01,5.585327148437500000e-01
-1.000000000000000000e+00,2.000000000000000000e+00,2.000000000000000000e+00,0.000000000000000000e+00,2.000000000000000000e+00,1.000000000000000000e+00,0.000000000000000000e+00,-2.000000000000000000e+00,-3.959960937500000000e-01,3.633422851562500000e-01,6.317749023437500000e-01,5.585327148437500000e-01
-2.000000000000000000e+00,-1.800000000000000000e+01,-4.000000000000000000e+00,-4.000000000000000000e+00,-4.000000000000000000e+00,-3.000000000000000000e+00,-3.000000000000000000e+00,-2.000000000000000000e+00,-3.963623046875000000e-01,3.640136718750000000e-01,6.322631835937500000e-01,5.572509765625000000e-01
-2.000000000000000000e+00,-1.000000000000000000e+00,-1.000000000000000000e+01,-2.000000000000000000e+00,-2.000000000000000000e+00,-2.000000000000000000e+00,0.000000000000000000e+00,0.000000000000000000e+00,-3.963623046875000000e-01,3.640136718750000000e-01,6.322631835937500000e-01,5.572509765625000000e-01
0.000000000000000000e+00,5.000000000000000000e+00,-1.000000000000000000e+00,1.000000000000000000e+00,-1.000000000000000000e+00,1.000000000000000000e+00,-2.000000000000000000e+00,-1.000000000000000000e+00,-3.963623046875000000e-01,3.640136718750000000e-01,6.322631835937500000e-01,5.572509765625000000e-01
2.000000000000000000e+00,5.000000000000000000e+00,0.000000000000000000e+00,0.000000000000000000e+00,-1.000000000000000000e+00,-3.000000000000000000e+00,-3.000000000000000000e+00,-2.000000000000000000e+00,-3.963623046875000000e-01,3.640136718750000000e-01,6.322631835937500000e-01,5.572509765625000000e-01
-2.000000000000000000e+00,-5.000000000000000000e+00,-2.000000000000000000e+00,-3.000000000000000000e+00,-1.000000000000000000e+00,0.000000000000000000e+00,1.000000000000000000e+00,0.000000000000000000e+00,-3.962402343750000000e-01,3.649902343750000000e-01,6.323852539062500000e-01,5.565185546875000000e-01
-1.000000000000000000e+00,1.000000000000000000e+00,-1.000000000000000000e+00,-2.000000000000000000e+00,2.000000000000000000e+00,2.000000000000000000e+00,-1.000000000000000000e+00,-1.000000000000000000e+00,-3.962402343750000000e-01,3.649902343750000000e-01,6.323852539062500000e-01,5.565185546875000000e-01
-1.000000000000000000e+00,-4.000000000000000000e+00,3.000000000000000000e+00,-1.000000000000000000e+00,0.000000000000000000e+00,1.000000000000000000e+00,1.000000000000000000e+00,-1.000000000000000000e+00,-3.962402343750000000e-01,3.649902343750000000e-01,6.323852539062500000e-01,5.565185546875000000e-01
2.000000000000000000e+00,4.000000000000000000e+00,-1.000000000000000000e+00,-2.000000000000000000e+00,-1.000000000000000000e+00,1.000000000000000000e+00,0.000000000000000000e+00,1.000000000000000000e+00,-3.962402343750000000e-01,3.649902343750000000e-01,6.323852539062500000e-01,5.565185546875000000e-01
-1.000000000000000000e+00,3.000000000000000000e+00,-4.000000000000000000e+00,0.000000000000000000e+00,-2.000000000000000000e+00,-3.000000000000000000e+00,1.000000000000000000e+00,-2.000000000000000000e+00,-3.958740234375000000e-01,3.658447265625000000e-01,6.326904296875000000e-01,5.559692382812500000e-01
-1.000000000000000000e+00,-1.000000000000000000e+01,1.000000000000000000e+00,-2.000000000000000000e+00,-5.000000000000000000e+00,-2.000000000000000000e+00,-2.000000000000000000e+00,-1.000000000000000000e+00,-3.958740234375000000e-01,3.658447265625000000e-01,6.326904296875000000e-01,5.559692382812500000e-01
-3.000000000000000000e+00,-7.000000000000000000e+00,-1.400000000000000000e+01,-1.400000000000000000e+01,1.000000000000000000e+00,-1.000000000000000000e+00,-1.000000000000000000e+00,-2.000000000000000000e+00,-3.958740234375000000e-01,3.658447265625000000e-01,6.326904296875000000e-01,5.559692382812500000e-01
1.000000000000000000e+00,-3.000000000000000000e+00,1.100000000000000000e+01,9.000000000000000000e+00,-4.000000000000000000e+00,-2.000000000000000000e+00,-2.000000000000000000e+00,1.000000000000000000e+00,-3.958740234375000000e-01,3.658447265625000000e-01,6.326904296875000000e-01,5.559692382812500000e-01
1.000000000000000000e+00,-2.000000000000000000e+00,1.000000000000000000e+01,5.000000000000000000e+00,2.000000000000000000e+00,2.000000000000000000e+00,1.000000000000000000e+00,-2.000000000000000000e+00,-3.959960937500000000e-01,3.659057617187500000e-01,6.330566406250000000e-01,5.554199218750000000e-01
0.000000000000000000e+00,3.400000000000000000e+01,1.000000000000000000e+01,-1.000000000000000000e+00,0.000000000000000000e+00,-3.000000000000000000e+00,-1.000000000000000000e+00,-1.000000000000000000e+00,-3.959960937500000000e-01,3.659057617187500000e-01,6.330566406250000000e-01,5.554199218750000000e-01
-2.000000000000000000e+00,1.000000000000000000e+00,-1.200000000000000000e+01,-1.000000000000000000e+00,1.000000000000000000e+00,2.000000000000000000e+00,1.000000000000000000e+00,-1.000000000000000000e+00,-3.959960937500000000e-01,3.659057617187500000e-01,6.330566406250000000e-01,5.554199218750000000e-01
-3.000000000000000000e+00,-1.200000000000000000e+01,0.000000000000000000e+00,-8.000000000000000000e+00,-7.000000000000000000e+00,-4.000000000000000000e+00,-1.000000000000000000e+00,0.000000000000000000e+00,-3.959960937500000000e-01,3.659057617187500000e-01,6.330566406250000000e-01,5.554199218750000000e-01
-2.000000000000000000e+00,1.000000000000000000e+00,3.000000000000000000e+00,2.000000000000000000e+00,1.000000000000000000e+00,0.000000000000000000e+00,-1.000000000000000000e+00,-2.000000000000000000e+00,-3.961181640625000000e-01,3.655395507812500000e-01,6.335449218750000000e-01,5.549926757812500000e-01
0.000000000000000000e+00,-1.000000000000000000e+01,-7.000000000000000000e+00,-6.000000000000000000e+00,-5.000000000000000000e+00,-1.000000000000000000e+00,1.000000000000000000e+00,-1.000000000000000000e+00,-3.961181640625000000e-01,3.655395507812500000e-01,6.335449218750000000e-01,5.549926757812500000e-01
1.000000000000000000e+00,-6.000000000000000000e+00,6.000000000000000000e+00,1.000000000000000000e+00,1.000000000000000000e+00,-1.000000000000000000e+00,0.000000000000000000e+00,0.000000000000000000e+00,-3.961181640625000000e-01,3.655395507812500000e-01,6.335449218750000000e-01,5.549926757812500000e-01
-1.000000000000000000e+00,1.000000000000000000e+00,-9.000000000000000000e+00,-9.000000000000000000e+00,0.000000000000000000e+00,-2.000000000000000000e+00,1.000000000000000000e+00,0.000000000000000000e+00,-3.961181640625000000e-01,3.655395507812500000e-01,6.335449218750000000e-01,5.549926757812500000e-01
-3.000000000000000000e+00,5.000000000000000000e+00,6.000000000000000000e+00,6.000000000000000000e+00,-4.000000000000000000e+00,-4.000000000000000000e+00,-3.000000000000000000e+00,-1.000000000000000000e+00,-3.961181640625000000e-01,3.655395507812500000e-01,6.335449218750000000e-01,5.549926757812500000e-01
2.000000000000000000e+00,-8.000000000000000000e+00,0.000000000000000000e+00,2.000000000000000000e+00,0.000000000000000000e+00,0.000000000000000000e+00,0.000000000000000000e+00,-2.000000000000000000e+00,-3.961181640625000000e-01,3.655395507812500000e-01,6.335449218750000000e-01,5.549926757812500000e-01
-2.000000000000000000e+00,-1.000000000000000000e+00,-5.000000000000000000e+00,-4.000000000000000000e+00,-5.000000000000000000e+00,-3.000000000000000000e+00,-1.000000000000000000e+00,0.000000000000000000e+00,-3.961181640625000000e-01,3.655395507812500000e-01,6.335449218750000000e-01,5.549926757812500000e-01
3.000000000000000000e+00,-3.000000000000000000e+00,3.000000000000000000e+00,3.000000000000000000e+00,1.000000000000000000e+00,2.000000000000000000e+00,0.000000000000000000e+00,0.000000000000000000e+00,-3.961181640625000000e-01,3.655395507812500000e-01,6.335449218750000000e-01,5.549926757812500000e-01
0.000000000000000000e+00,1.000000000000000000e+00,-3.000000000000000000e+00,-3.000000000000000000e+00,-1.000000000000000000e+00,2.000000000000000000e+00,0.000000000000000000e+00,2.000000000000000000e+00,-3.958740234375000000e-01,3.656616210937500000e-01,6.335449218750000000e-01,5.550537109375000000e-01
-1.000000000000000000e+00,-2.000000000000000000e+00,-7.000000000000000000e+00,-6.000000000000000000e+00,0.000000000000000000e+00,1.000000000000000000e+00,1.000000000000000000e+00,2.000000000000000000e+00,-3.958740234375000000e-01,3.656616210937500000e-01,6.335449218750000000e-01,5.550537109375000000e-01
-1.000000000000000000e+00,0.000000000000000000e+00,5.000000000000000000e+00,2.000000000000000000e+00,-2.000000000000000000e+00,-2.000000000000000000e+00,-4.000000000000000000e+00,0.000000000000000000e+00,-3.958740234375000000e-01,3.656616210937500000e-01,6.335449218750000000e-01,5.550537109375000000e-01
-2.000000000000000000e+00,-3.000000000000000000e+00,-3.000000000000000000e+00,-1.000000000000000000e+00,0.000000000000000000e+00,-2.000000000000000000e+00,1.000000000000000000e+00,-1.000000000000000000e+00,-3.958740234375000000e-01,3.656616210937500000e-01,6.335449218750000000e-01,5.550537109375000000e-01
0.000000000000000000e+00,2.000000000000000000e+01,3.000000000000000000e+00,-3.000000000000000000e+00,4.000000000000000000e+00,0.000000000000000000e+00,1.000000000000000000e+00,1.000000000000000000e+00,-3.958740234375000000e-01,3.651123046875000000e-01,6.338500976562500000e-01,5.551147460937500000e-01
0.000000000000000000e+00,-5.000000000000000000e+00,2.000000000000000000e+00,4.000000000000000000e+00,2.000000000000000000e+00,-1.000000000000000000e+00,-2.000000000000000000e+00,0.000000000000000000e+00,-3.958740234375000000e-01,3.651123046875000000e-01,6.338500976562500000e-01,5.551147460937500000e-01
-1.000000000000000000e+00,1.000000000000000000e+00,5.000000000000000000e+00,0.000000000000000000e+00,0.000000000000000000e+00,-2.000000000000000000e+00,-1.000000000000000000e+00,-2.000000000000000000e+00,-3.958740234375000000e-01,3.651123046875000000e-01,6.338500976562500000e-01,5.551147460937500000e-01
-1.000000000000000000e+00,-1.000000000000000000e+00,-1.200000000000000000e+01,-3.000000000000000000e+00,1.000000000000000000e+00,-1.000000000000000000e+00,-1.000000000000000000e+00,0.000000000000000000e+00,-3.958740234375000000e-01,3.651123046875000000e-01,6.338500976562500000e-01,5.551147460937500000e-01
-4.000000000000000000e+00,-1.300000000000000000e+01,1.100000000000000000e+01,-3.000000000000000000e+00,-3.000000000000000000e+00,-2.000000000000000000e+00,-3.000000000000000000e+00,-2.000000000000000000e+00,-3.959960937500000000e-01,3.643188476562500000e-01,6.340332031250000000e-01,5.552978515625000000e-01
-2.000000000000000000e+00,1.000000000000000000e+01,-4.000000000000000000e+00,-3.000000000000000000e+00,-1.000000000000000000e+00,-3.000000000000000000e+00,-2.000000000000000000e+00,1.000000000000000000e+00,-3.959960937500000000e-01,3.643188476562500000e-01,6.340332031250000000e-01,5.552978515625000000e-01
-2.000000000000000000e+00,-1.700000000000000000e+01,-3.000000000000000000e+00,3.000000000000000000e+00,0.000000000000000000e+00,0.000000000000000000e+00,1.000000000000000000e+00,0.000000000000000000e+00,-3.959960937500000000e-01,3.643188476562500000e-01,6.340332031250000000e-01,5.552978515625000000e-01
0.000000000000000000e+00,2.500000000000000000e+01,5.000000000000000000e+00,-1.000000000000000000e+00,-2.000000000000000000e+00,-2.000000000000000000e+00,-3.000000000000000000e+00,0.000000000000000000e+00,-3.959960937500000000e-01,3.643188476562500000e-01,6.340332031250000000e-01,5.552978515625000000e-01
-1.000000000000000000e+00,-7.000000000000000000e+00,-1.100000000000000000e+01,-1.000000000000000000e+00,-3.000000000000000000e+00,0.000000000000000000e+00,0.000000000000000000e+00,-1.000000000000000000e+00,-3.959960937500000000e-01,3.636474609375000000e-01,6.340942382812500000e-01,5.556640625000000000e-01
0.000000000000000000e+00,-7.000000000000000000e+00,-7.000000000000000000e+00,-6.000000000000000000e+00,-2.000000000000000000e+00,-3.000000000000000000e+00,-3.000000000000000000e+00,-4.000000000000000000e+00,-3.959960937500000000e-01,3.636474609375000000e-01,6.340942382812500000e-01,5.556640625000000000e-01
1.000000000000000000e+00,-1.300000000000000000e+01,0.000000000000000000e+00,2.000000000000000000e+00,-3.000000000000000000e+00,0.000000000000000000e+00,0.000000000000000000e+00,0.000000000000000000e+00,-3.959960937500000000e-01,3.636474609375000000e-01,6.340942382812500000e-01,5.556640625000000000e-01
1.000000000000000000e+00,1.300000000000000000e+01,1.000000000000000000e+00,1.000000000000000000e+00,3.000000000000000000e+00,-1.000000000000000000e+00,-1.000000000000000000e+00,0.000000000000000000e+00,-3.959960937500000000e-01,3.636474609375000000e-01,6.340942382812500000e-01,5.556640625000000000e-01
-1.000000000000000000e+00,1.000000000000000000e+00,0.000000000000000000e+00,2.000000000000000000e+00,0.000000000000000000e+00,0.000000000000000000e+00,-1.000000000000000000e+00,-1.000000000000000000e+00,-3.956298828125000000e-01,3.637084960937500000e-01,6.340332031250000000e-01,5.560302734375000000e-01
-1.000000000000000000e+00,-1.000000000000000000e+01,2.000000000000000000e+00,-2.000000000000000000e+00,-3.000000000000000000e+00,-4.000000000000000000e+00,0.000000000000000000e+00,0.000000000000000000e+00,-3.956298828125000000e-01,3.637084960937500000e-01,6.340332031250000000e-01,5.560302734375000000e-01
0.000000000000000000e+00,-1.000000000000000000e+00,-1.400000000000000000e+01,-4.000000000000000000e+00,-3.000000000000000000e+00,-2.000000000000000000e+00,1.000000000000000000e+00,0.000000000000000000e+00,-3.956298828125000000e-01,3.637084960937500000e-01,6.340332031250000000e-01,5.560302734375000000e-01
-1.000000000000000000e+00,-2.000000000000000000e+00,1.300000000000000000e+01,-5.000000000000000000e+00,-5.000000000000000000e+00,0.000000000000000000e+00,-1.000000000000000000e+00,-2.000000000000000000e+00,-3.956298828125000000e-01,3.637084960937500000e-01,6.340332031250000000e-01,5.560302734375000000e-01
-1.000000000000000000e+00,-2.000000000000000000e+00,-5.000000000000000000e+00,3.000000000000000000e+00,0.000000000000000000e+00,-1.000000000000000000e+00,-1.000000000000000000e+00,-1.000000000000000000e+00,-3.954467773437500000e-01,3.634033203125000000e-01,6.340942382812500000e-01,5.562744140625000000e-01
-1.000000000000000000e+00,-4.000000000000000000e+00,-2.000000000000000000e+00,1.000000000000000000e+00,1.000000000000000000e+00,3.000000000000000000e+00,-1.000000000000000000e+00,1.000000000000000000e+00,-3.954467773437500000e-01,3.634033203125000000e-01,6.340942382812500000e-01,5.562744140625000000e-01
-1.000000000000000000e+00,7.000000000000000000e+00,4.000000000000000000e+00,-1.000000000000000000e+00,-2.000000000000000000e+00,-3.000000000000000000e+00,-2.000000000000000000e+00,0.000000000000000000e+00,-3.954467773437500000e-01,3.634033203125000000e-01,6.340942382812500000e-01,5.562744140625000000e-01
-1.000000000000000000e+00,-7.000000000000000000e+00,-4.000000000000000000e+00,-2.000000000000000000e+00,-2.000000000000000000e+00,-1.000000000000000000e+00,0.000000000000000000e+00,-2.000000000000000000e+00,-3.954467773437500000e-01,3.634033203125000000e-01,6.340942382812500000e-01,5.562744140625000000e-01
0.000000000000000000e+00,3.000000000000000000e+00,1.000000000000000000e+00,-2.000000000000000000e+00,2.000000000000000000e+00,-2.000000000000000000e+00,-2.000000000000000000e+00,-1.000000000000000000e+00,-3.954467773437500000e-01,3.627929687500000000e-01,6.341552734375000000e-01,5.565185546875000000e-01
-1.000000000000000000e+00,-1.000000000000000000e+01,-4.000000000000000000e+00,1.000000000000000000e+00,1.000000000000000000e+00,1.000000000000000000e+00,-1.000000000000000000e+00,-4.000000000000000000e+00,-3.954467773437500000e-01,3.627929687500000000e-01,6.341552734375000000e-01,5.565185546875000000e-01
0.000000000000000000e+00,1.900000000000000000e+01,7.000000000000000000e+00,-1.000000000000000000e+00,-1.000000000000000000e+00,-3.000000000000000000e+00,-1.000000000000000000e+00,-1.000000000000000000e+00,-3.954467773437500000e-01,3.627929687500000000e-01,6.341552734375000000e-01,5.565185546875000000e-01
-1.000000000000000000e+00,-2.800000000000000000e+01,-1.800000000000000000e+01,-2.000000000000000000e+00,-4.000000000000000000e+00,-2.000000000000000000e+00,1.000000000000000000e+00,-1.000000000000000000e+00,-3.954467773437500000e-01,3.627929687500000000e-01,6.341552734375000000e-01,5.565185546875000000e-01
-1.000000000000000000e+00,-1.600000000000000000e+01,-6.000000000000000000e+00,-3.000000000000000000e+00,-2.000000000000000000e+00,1.000000000000000000e+00,-1.000000000000000000e+00,-1.000000000000000000e+00,-3.955688476562500000e-01,3.620605468750000000e-01,6.342163085937500000e-01,5.568847656250000000e-01
1.000000000000000000e+00,1.200000000000000000e+01,0.000000000000000000e+00,2.000000000000000000e+00,2.000000000000000000e+00,2.000000000000000000e+00,0.000000000000000000e+00,0.000000000000000000e+00,-3.955688476562500000e-01,3.620605468750000000e-01,6.342163085937500000e-01,5.568847656250000000e-01
-3.000000000000000000e+00,4.000000000000000000e+00,7.000000000000000000e+00,1.000000000000000000e+00,1.000000000000000000e+00,1.000000000000000000e+00,-2.000000000000000000e+00,0.000000000000000000e+00,-3.955688476562500000e-01,3.620605468750000000e-01,6.342163085937500000e-01,5.568847656250000000e-01
-1.000000000000000000e+00,-3.000000000000000000e+00,-4.000000000000000000e+00,-3.000000000000000000e+00,-2.000000000000000000e+00,-4.000000000000000000e+00,-2.000000000000000000e+00,-5.000000000000000000e+00,-3.955688476562500000e-01,3.620605468750000000e-01,6.342163085937500000e-01,5.568847656250000000e-01
-1.000000000000000000e+00,-3.000000000000000000e+00,-4.000000000000000000e+00,-1.000000000000000000e+00,-1.000000000000000000e+00,1.000000000000000000e+00,2.000000000000000000e+00,0.000000000000000000e+00,-3.956909179687500000e-01,3.615722656250000000e-01,6.343383789062500000e-01,5.569458007812500000e-01
-1.000000000000000000e+00,-4.000000000000000000e+00,-1.100000000000000000e+01,-1.100000000000000000e+01,-4.000000000000000000e+00,-1.000000000000000000e+00,1.000000000000000000e+00,1.000000000000000000e+00,-3.956909179687500000e-01,3.615722656250000000e-01,6.343383789062500000e-01,5.569458007812500000e-01
1.000000000000000000e+00,-1.000000000000000000e+00,1.000000000000000000e+01,9.000000000000000000e+00,1.000000000000000000e+00,2.000000000000000000e+00,1.000000000000000000e+00,0.000000000000000000e+00,-3.956909179687500000e-01,3.615722656250000000e-01,6.343383789062500000e-01,5.569458007812500000e-01
-1.000000000000000000e+00,1.200000000000000000e+01,2.000000000000000000e+00,6.000000000000000000e+00,6.000000000000000000e+00,1.000000000000000000e+00,-2.000000000000000000e+00,-1.000000000000000000e+00,-3.956909179687500000e-01,3.615722656250000000e-01,6.343383789062500000e-01,5.569458007812500000e-01
0.000000000000000000e+00,2.000000000000000000e+00,0.000000000000000000e+00,4.000000000000000000e+00,2.000000000000000000e+00,-1.000000000000000000e+00,-2.000000000000000000e+00,0.000000000000000000e+00,-3.957519531250000000e-01,3.615722656250000000e-01,6.343383789062500000e-01,5.570068359375000000e-01
-4.000000000000000000e+00,-6.000000000000000000e+00,3.000000000000000000e+00,-6.000000000000000000e+00,-9.000000000000000000e+00,-3.000000000000000000e+00,-4.000000000000000000e+00,-1.000000000000000000e+00,-3.957519531250000000e-01,3.615722656250000000e-01,6.343383789062500000e-01,5.570068359375000000e-01
-6.000000000000000000e+00,7.000000000000000000e+00,2.000000000000000000e+00,-8.000000000000000000e+00,-4.000000000000000000e+00,-4.000000000000000000e+00,-2.000000000000000000e+00,-4.000000000000000000e+00,-3.957519531250000000e-01,3.615722656250000000e-01,6.343383789062500000e-01,5.570068359375000000e-01
0.000000000000000000e+00,-7.000000000000000000e+00,-2.000000000000000000e+00,-1.000000000000000000e+00,-7.000000000000000000e+00,0.000000000000000000e+00,1.000000000000000000e+00,0.000000000000000000e+00,-3.957519531250000000e-01,3.615722656250000000e-01,6.343383789062500000e-01,5.570068359375000000e-01
1.000000000000000000e+00,1.100000000000000000e+01,-5.000000000000000000e+00,6.000000000000000000e+00,1.400000000000000000e+01,6.000000000000000000e+00,2.000000000000000000e+00,-1.000000000000000000e+00,-3.957519531250000000e-01,3.615722656250000000e-01,6.343383789062500000e-01,5.570068359375000000e-01
0.000000000000000000e+00,-1.300000000000000000e+01,-6.000000000000000000e+00,-5.000000000000000000e+00,0.000000000000000000e+00,-4.000000000000000000e+00,-4.000000000000000000e+00,-1.000000000000000000e+00,-3.957519531250000000e-01,3.615722656250000000e-01,6.343383789062500000e-01,5.570068359375000000e-01
-2.000000000000000000e+00,-1.100000000000000000e+01,-7.000000000000000000e+00,1.000000000000000000e+00,-4.000000000000000000e+00,-3.000000000000000000e+00,0.000000000000000000e+00,-1.000000000000000000e+00,-3.957519531250000000e-01,3.615722656250000000e-01,6.343383789062500000e-01,5.570068359375000000e-01
0.000000000000000000e+00,1.000000000000000000e+00,1.900000000000000000e+01,7.000000000000000000e+00,1.000000000000000000e+00,-1.000000000000000000e+00,-2.000000000000000000e+00,0.000000000000000000e+00,-3.957519531250000000e-01,3.615722656250000000e-01,6.343383789062500000e-01,5.570068359375000000e-01
-3.000000000000000000e+00,8.000000000000000000e+00,2.000000000000000000e+00,-9.000000000000000000e+00,-1.000000000000000000e+01,-4.000000000000000000e+00,-2.000000000000000000e+00,-5.000000000000000000e+00,-3.956909179687500000e-01,3.616333007812500000e-01,6.343383789062500000e-01,5.569458007812500000e-01
0.000000000000000000e+00,-1.000000000000000000e+00,0.000000000000000000e+00,0.000000000000000000e+00,-2.000000000000000000e+00,-2.000000000000000000e+00,-2.000000000000000000e+00,0.000000000000000000e+00,-3.956909179687500000e-01,3.616333007812500000e-01,6.343383789062500000e-01,5.569458007812500000e-01
4.000000000000000000e+00,-3.000000000000000000e+00,-8.000000000000000000e+00,-2.000000000000000000e+00,1.000000000000000000e+00,0.000000000000000000e+00,2.000000000000000000e+00,1.000000000000000000e+00,-3.956909179687500000e-01,3.616333007812500000e-01,6.343383789062500000e-01,5.569458007812500000e-01
0.000000000000000000e+00,-2.000000000000000000e+00,0.000000000000000000e+00,-2.000000000000000000e+00,-1.000000000000000000e+00,1.000000000000000000e+00,0.000000000000000000e+00,3.000000000000000000e+00,-3.956909179687500000e-01,3.616333007812500000e-01,6.343383789062500000e-01,5.569458007812500000e-01
-1.000000000000000000e+00,-4.000000000000000000e+00,-2.000000000000000000e+00,-3.000000000000000000e+00,-4.000000000000000000e+00,-4.000000000000000000e+00,-2.000000000000000000e+00,-1.000000000000000000e+00,-3.959350585937500000e-01,3.610839843750000000e-01,6.345825195312500000e-01,5.568847656250000000e-01
0.000000000000000000e+00,1.000000000000000000e+01,-3.000000000000000000e+00,5.000000000000000000e+00,1.000000000000000000e+00,-2.000000000000000000e+00,-3.000000000000000000e+00,-2.000000000000000000e+00,-3.959350585937500000e-01,3.610839843750000000e-01,6.345825195312500000e-01,5.568847656250000000e-01
-2.000000000000000000e+00,-1.900000000000000000e+01,1.000000000000000000e+00,-2.000000000000000000e+00,-1.000000000000000000e+00,0.000000000000000000e+00,0.000000000000000000e+00,-1.000000000000000000e+00,-3.959350585937500000e-01,3.610839843750000000e-01,6.345825195312500000e-01,5.568847656250000000e-01
-2.000000000000000000e+00,-1.000000000000000000e+01,-9.000000000000000000e+00,-2.000000000000000000e+00,2.000000000000000000e+00,2.000000000000000000e+00,0.000000000000000000e+00,-1.000000000000000000e+00,-3.959350585937500000e-01,3.610839843750000000e-01,6.345825195312500000e-01,5.568847656250000000e-01
-1.000000000000000000e+00,1.200000000000000000e+01,2.000000000000000000e+00,-1.000000000000000000e+01,-3.000000000000000000e+00,-2.000000000000000000e+00,0.000000000000000000e+00,2.000000000000000000e+00,-3.959960937500000000e-01,3.607177734375000000e-01,6.348876953125000000e-01,5.567016601562500000e-01
-4.000000000000000000e+00,-1.500000000000000000e+01,1.100000000000000000e+01,2.000000000000000000e+01,-2.000000000000000000e+00,-4.000000000000000000e+00,0.000000000000000000e+00,-5.000000000000000000e+00,-3.959960937500000000e-01,3.607177734375000000e-01,6.348876953125000000e-01,5.567016601562500000e-01
-1.000000000000000000e+00,4.000000000000000000e+00,-8.000000000000000000e+00,-2.000000000000000000e+00,2.000000000000000000e+00,0.000000000000000000e+00,0.000000000000000000e+00,0.000000000000000000e+00,-3.959960937500000000e-01,3.607177734375000000e-01,6.348876953125000000e-01,5.567016601562500000e-01
-2.000000000000000000e+00,-1.200000000000000000e+01,-1.200000000000000000e+01,-6.000000000000000000e+00,-3.000000000000000000e+00,-1.000000000000000000e+00,0.000000000000000000e+00,0.000000000000000000e+00,-3.959960937500000000e-01,3.607177734375000000e-01,6.348876953125000000e-01,5.567016601562500000e-01
3.000000000000000000e+00,7.000000000000000000e+00,5.000000000000000000e+00,-4.000000000000000000e+00,-4.000000000000000000e+00,-3.000000000000000000e+00,-1.000000000000000000e+00,-1.000000000000000000e+00,-3.956909179687500000e-01,3.606567382812500000e-01,6.350708007812500000e-01,5.567626953125000000e-01
-1.000000000000000000e+00,-1.500000000000000000e+01,-1.000000000000000000e+00,-6.000000000000000000e+00,2.000000000000000000e+00,1.000000000000000000e+00,0.000000000000000000e+00,0.000000000000000000e+00,-3.956909179687500000e-01,3.606567382812500000e-01,6.350708007812500000e-01,5.567626953125000000e-01
2.000000000000000000e+00,1.000000000000000000e+01,-4.000000000000000000e+00,-4.000000000000000000e+00,-3.000000000000000000e+00,-3.000000000000000000e+00,-2.000000000000000000e+00,-1.000000000000000000e+00,-3.956909179687500000e-01,3.606567382812500000e-01,6.350708007812500000e-01,5.567626953125000000e-01
-3.000000000000000000e+00,-4.000000000000000000e+00,-4.000000000000000000e+00,0.000000000000000000e+00,0.000000000000000000e+00,-2.000000000000000000e+00,-1.000000000000000000e+00,-2.000000000000000000e+00,-3.956909179687500000e-01,3.606567382812500000e-01,6.350708007812500000e-01,5.567626953125000000e-01
-3.000000000000000000e+00,-9.000000000000000000e+00,-7.000000000000000000e+00,-7.000000000000000000e+00,-6.000000000000000000e+00,-1.000000000000000000e+00,-2.000000000000000000e+00,-2.000000000000000000e+00,-3.950805664062500000e-01,3.608398437500000000e-01,6.353759765625000000e-01,5.567016601562500000e-01
1.000000000000000000e+00,1.700000000000000000e+01,2.000000000000000000e+00,2.000000000000000000e+00,2.000000000000000000e+00,1.000000000000000000e+00,-1.000000000000000000e+00,1.000000000000000000e+00,-3.950805664062500000e-01,3.608398437500000000e-01,6.353759765625000000e-01,5.567016601562500000e-01
-2.000000000000000000e+00,-1.200000000000000000e+01,-9.000000000000000000e+00,0.000000000000000000e+00,2.000000000000000000e+00,3.000000000000000000e+00,-1.000000000000000000e+00,-1.000000000000000000e+00,-3.950805664062500000e-01,3.608398437500000000e-01,6.353759765625000000e-01,5.567016601562500000e-01
2.000000000000000000e+00,1.200000000000000000e+01,8.000000000000000000e+00,-4.000000000000000000e+00,-1.000000000000000000e+00,-1.000000000000000000e+00,-1.000000000000000000e+00,0.000000000000000000e+00,-3.950805664062500000e-01,3.608398437500000000e-01,6.353759765625000000e-01,5.567016601562500000e-01
0.000000000000000000e+00,-7.000000000000000000e+00,-3.000000000000000000e+00,-4.000000000000000000e+00,0.000000000000000000e+00,-1.000000000000000000e+00,-2.000000000000000000e+00,-1.000000000000000000e+00,-3.945312500000000000e-01,3.609619140625000000e-01,6.357421875000000000e-01,5.566406250000000000e-01
-1.000000000000000000e+00,1.000000000000000000e+01,1.400000000000000000e+01,8.000000000000000000e+00,-2.000000000000000000e+00,0.000000000000000000e+00,0.000000000000000000e+00,-1.000000000000000000e+00,-3.945312500000000000e-01,3.609619140625000000e-01,6.357421875000000000e-01,5.566406250000000000e-01
-2.000000000000000000e+00,3.000000000000000000e+00,-2.000000000000000000e+00,1.000000000000000000e+00,6.000000000000000000e+00,0.000000000000000000e+00,-2.000000000000000000e+00,-2.000000000000000000e+00,-3.945312500000000000e-01,3.609619140625000000e-01,6.357421875000000000e-01,5.566406250000000000e-01
0.000000000000000000e+00,2.000000000000000000e+00,-4.000000000000000000e+00,-3.000000000000000000e+00,-2.000000000000000000e+00,0.000000000000000000e+00,-1.000000000000000000e+00,-3.000000000000000000e+00,-3.945312500000000000e-01,3.609619140625000000e-01,6.357421875000000000e-01,5.566406250000000000e-01
-3.000000000000000000e+00,-8.000000000000000000e+00,-1.000000000000000000e+00,1.000000000000000000e+00,-2.000000000000000000e+00,-2.000000000000000000e+00,-2.000000000000000000e+00,-1.000000000000000000e+00,-3.941040039062500000e-01,3.608398437500000000e-01,6.361083984375000000e-01,5.565795898437500000e-01
-1.000000000000000000e+00,0.000000000000000000e+00,-5.000000000000000000e+00,-4.000000000000000000e+00,2.000000000000000000e+00,3.000000000000000000e+00,1.000000000000000000e+00,0.000000000000000000e+00,-3.941040039062500000e-01,3.608398437500000000e-01,6.361083984375000000e-01,5.565795898437500000e-01
0.000000000000000000e+00,-1.200000000000000000e+01,-1.200000000000000000e+01,-8.000000000000000000e+00,-4.000000000000000000e+00,-2.000000000000000000e+00,0.000000000000000000e+00,2.000000000000000000e+00,-3.941040039062500000e-01,3.608398437500000000e-01,6.361083984375000000e-01,5.565795898437500000e-01
-1.000000000000000000e+00,5.000000000000000000e+00,1.900000000000000000e+01,7.000000000000000000e+00,-3.000000000000000000e+00,-1.000000000000000000e+00,-2.000000000000000000e+00,-2.000000000000000000e+00,-3.941040039062500000e-01,3.608398437500000000e-01,6.361083984375000000e-01,5.565795898437500000e-01
1.000000000000000000e+00,0.000000000000000000e+00,1.000000000000000000e+00,1.000000000000000000e+01,1.100000000000000000e+01,2.000000000000000000e+00,0.000000000000000000e+00,-1.000000000000000000e+00,-3.936767578125000000e-01,3.606567382812500000e-01,6.365356445312500000e-01,5.564575195312500000e-01
-1.000000000000000000e+00,0.000000000000000000e+00,-7.000000000000000000e+00,-6.000000000000000000e+00,-2.000000000000000000e+00,-1.000000000000000000e+00,1.000000000000000000e+00,0.000000000000000000e+00,-3.936767578125000000e-01,3.606567382812500000e-01,6.365356445312500000e-01,5.564575195312500000e-01
-1.000000000000000000e+00,1.000000000000000000e+01,7.000000000000000000e+00,1.000000000000000000e+00,-1.000000000000000000e+00,-2.000000000000000000e+00,-3.000000000000000000e+00,-2.000000000000000000e+00,-3.936767578125000000e-01,3.606567382812500000e-01,6.365356445312500000e-01,5.564575195312500000e-01
-2.000000000000000000e+00,-1.500000000000000000e+01,-1.600000000000000000e+01,-6.000000000000000000e+00,-1.000000000000000000e+00,-1.000000000000000000e+00,-1.000000000000000000e+00,1.000000000000000000e+00,-3.936767578125000000e-01,3.606567382812500000e-01,6.365356445312500000e-01,5.564575195312500000e-01
-2.000000000000000000e+00,1.500000000000000000e+01,2.000000000000000000e+00,-3.000000000000000000e+00,-6.000000000000000000e+00,-4.000000000000000000e+00,-2.000000000000000000e+00,-3.000000000000000000e+00,-3.936767578125000000e-01,3.602905273437500000e-01,6.368408203125000000e-01,5.563964843750000000e-01
2.000000000000000000e+00,0.000000000000000000e+00,1.000000000000000000e+00,1.000000000000000000e+00,2.000000000000000000e+00,0.000000000000000000e+00,-1.000000000000000000e+00,-1.000000000000000000e+00,-3.936767578125000000e-01,3.602905273437500000e-01,6.368408203125000000e-01,5.563964843750000000e-01
-1.000000000000000000e+00,1.000000000000000000e+00,1.500000000000000000e+01,2.000000000000000000e+00,0.000000000000000000e+00,-3.000000000000000000e+00,-1.000000000000000000e+00,-2.000000000000000000e+00,-3.936767578125000000e-01,3.602905273437500000e-01,6.368408203125000000e-01,5.563964843750000000e-01
0.000000000000000000e+00,4.000000000000000000e+00,-5.000000000000000000e+00,0.000000000000000000e+00,2.000000000000000000e+00,1.000000000000000000e+00,0.000000000000000000e+00,-1.000000000000000000e+00,-3.936767578125000000e-01,3.602905273437500000e-01,6.368408203125000000e-01,5.563964843750000000e-01
