3.000000000000000000e+00,-4.000000000000000000e+00,-2.000000000000000000e+00,1.000000000000000000e+00,-3.000000000000000000e+00,-1.700000000000000000e+01,-1.900000000000000000e+01,-1.200000000000000000e+01,-2.761230468750000000e-01,1.860961914062500000e-01,7.103881835937500000e-01,6.199340820312500000e-01
-2.900000000000000000e+01,-2.200000000000000000e+01,-2.200000000000000000e+01,-1.200000000000000000e+01,-6.000000000000000000e+00,-4.000000000000000000e+00,5.000000000000000000e+00,-1.500000000000000000e+01,-2.761230468750000000e-01,1.860961914062500000e-01,7.103881835937500000e-01,6.199340820312500000e-01
1.000000000000000000e+00,-1.000000000000000000e+00,-1.900000000000000000e+01,-2.000000000000000000e+00,0.000000000000000000e+00,-5.000000000000000000e+00,-1.200000000000000000e+01,-7.000000000000000000e+00,-2.767944335937500000e-01,1.853027343750000000e-01,7.103881835937500000e-01,6.199340820312500000e-01
1.000000000000000000e+00,-3.000000000000000000e+00,1.200000000000000000e+01,-6.000000000000000000e+00,-2.000000000000000000e+00,-8.000000000000000000e+00,-8.000000000000000000e+00,2.000000000000000000e+00,-2.767944335937500000e-01,1.853027343750000000e-01,7.103881835937500000e-01,6.199340820312500000e-01
-1.000000000000000000e+01,9.000000000000000000e+00,3.000000000000000000e+00,-1.000000000000000000e+00,5.000000000000000000e+00,5.000000000000000000e+00,-9.000000000000000000e+00,3.000000000000000000e+00,-2.767944335937500000e-01,1.853027343750000000e-01,7.103881835937500000e-01,6.199340820312500000e-01
4.600000000000000000e+01,6.000000000000000000e+00,6.000000000000000000e+00,1.000000000000000000e+00,-2.000000000000000000e+00,9.000000000000000000e+00,1.100000000000000000e+01,9.000000000000000000e+00,-2.767944335937500000e-01,1.853027343750000000e-01,7.103881835937500000e-01,6.199340820312500000e-01
-2.100000000000000000e+01,-1.500000000000000000e+01,-3.000000000000000000e+00,-1.000000000000000000e+01,-9.000000000000000000e+00,-2.000000000000000000e+01,7.000000000000000000e+00,-5.000000000000000000e+00,-2.784423828125000000e-01,1.822509765625000000e-01,7.105102539062500000e-01,6.199340820312500000e-01
-7.000000000000000000e+00,4.000000000000000000e+00,5.000000000000000000e+00,1.400000000000000000e+01,7.000000000000000000e+00,7.000000000000000000e+00,-7.000000000000000000e+00,-4.000000000000000000e+00,-2.784423828125000000e-01,1.822509765625000000e-01,7.105102539062500000e-01,6.199340820312500000e-01
-5.000000000000000000e+00,-7.000000000000000000e+00,-7.000000000000000000e+00,8.000000000000000000e+00,-1.000000000000000000e+00,7.000000000000000000e+00,1.000000000000000000e+00,-2.000000000000000000e+00,-2.784423828125000000e-01,1.822509765625000000e-01,7.105102539062500000e-01,6.199340820312500000e-01
-1.000000000000000000e+01,-6.000000000000000000e+00,1.000000000000000000e+00,1.300000000000000000e+01,0.000000000000000000e+00,-6.000000000000000000e+00,1.100000000000000000e+01,-2.000000000000000000e+00,-2.784423828125000000e-01,1.822509765625000000e-01,7.105102539062500000e-01,6.199340820312500000e-01
6.000000000000000000e+00,5.000000000000000000e+00,7.000000000000000000e+00,0.000000000000000000e+00,2.000000000000000000e+00,5.000000000000000000e+00,0.000000000000000000e+00,3.000000000000000000e+00,-2.786254882812500000e-01,1.820678710937500000e-01,7.108764648437500000e-01,6.195068359375000000e-01
5.000000000000000000e+00,8.000000000000000000e+00,2.000000000000000000e+01,2.000000000000000000e+00,5.000000000000000000e+00,1.400000000000000000e+01,6.000000000000000000e+00,1.000000000000000000e+00,-2.786254882812500000e-01,1.820678710937500000e-01,7.108764648437500000e-01,6.195068359375000000e-01
-5.000000000000000000e+00,-7.000000000000000000e+00,-4.400000000000000000e+01,-1.000000000000000000e+01,0.000000000000000000e+00,0.000000000000000000e+00,2.000000000000000000e+00,2.000000000000000000e+00,-2.786254882812500000e-01,1.820678710937500000e-01,7.108764648437500000e-01,6.195068359375000000e-01
3.000000000000000000e+00,8.000000000000000000e+00,5.200000000000000000e+01,1.400000000000000000e+01,0.000000000000000000e+00,2.000000000000000000e+00,3.000000000000000000e+00,2.000000000000000000e+00,-2.786254882812500000e-01,1.820678710937500000e-01,7.108764648437500000e-01,6.195068359375000000e-01
-4.000000000000000000e+00,-2.700000000000000000e+01,-4.900000000000000000e+01,-1.500000000000000000e+01,-8.000000000000000000e+00,-7.000000000000000000e+00,-1.100000000000000000e+01,-5.000000000000000000e+00,-2.788085937500000000e-01,1.831054687500000000e-01,7.109985351562500000e-01,6.190185546875000000e-01
-6.000000000000000000e+00,-1.000000000000000000e+00,-7.000000000000000000e+00,4.000000000000000000e+00,1.000000000000000000e+00,-4.000000000000000000e+00,3.000000000000000000e+01,0.000000000000000000e+00,-2.788085937500000000e-01,1.831054687500000000e-01,7.109985351562500000e-01,6.190185546875000000e-01
5.000000000000000000e+00,-2.000000000000000000e+00,1.700000000000000000e+01,-1.700000000000000000e+01,-3.000000000000000000e+00,-1.200000000000000000e+01,-2.700000000000000000e+01,-5.000000000000000000e+00,-2.788085937500000000e-01,1.831054687500000000e-01,7.109985351562500000e-01,6.190185546875000000e-01
0.000000000000000000e+00,5.000000000000000000e+00,5.000000000000000000e+00,6.000000000000000000e+00,6.000000000000000000e+00,3.400000000000000000e+01,3.400000000000000000e+01,6.000000000000000000e+00,-2.788085937500000000e-01,1.831054687500000000e-01,7.109985351562500000e-01,6.190185546875000000e-01
8.000000000000000000e+00,2.000000000000000000e+00,1.200000000000000000e+01,6.000000000000000000e+00,6.000000000000000000e+00,1.600000000000000000e+01,2.000000000000000000e+00,2.000000000000000000e+00,-2.800292968750000000e-01,1.818847656250000000e-01,7.103271484375000000e-01,6.195068359375000000e-01
1.000000000000000000e+00,-3.000000000000000000e+00,-1.500000000000000000e+01,-1.100000000000000000e+01,-1.000000000000000000e+01,-3.400000000000000000e+01,-3.500000000000000000e+01,-1.100000000000000000e+01,-2.800292968750000000e-01,1.818847656250000000e-01,7.103271484375000000e-01,6.195068359375000000e-01
1.000000000000000000e+00,0.000000000000000000e+00,-4.000000000000000000e+00,4.000000000000000000e+00,2.000000000000000000e+00,3.300000000000000000e+01,4.600000000000000000e+01,2.200000000000000000e+01,-2.800292968750000000e-01,1.818847656250000000e-01,7.103271484375000000e-01,6.195068359375000000e-01
2.000000000000000000e+00,2.700000000000000000e+01,3.000000000000000000e+00,-6.000000000000000000e+00,-1.000000000000000000e+01,-3.200000000000000000e+01,-6.000000000000000000e+00,-1.600000000000000000e+01,-2.800292968750000000e-01,1.818847656250000000e-01,7.103271484375000000e-01,6.195068359375000000e-01
-5.000000000000000000e+00,-2.200000000000000000e+01,2.000000000000000000e+01,8.000000000000000000e+00,4.000000000000000000e+00,7.000000000000000000e+00,-3.800000000000000000e+01,6.000000000000000000e+00,-2.822875976562500000e-01,1.782226562500000000e-01,7.098388671875000000e-01,6.201782226562500000e-01
3.000000000000000000e+00,-1.000000000000000000e+01,-2.100000000000000000e+01,-4.000000000000000000e+00,7.000000000000000000e+00,3.900000000000000000e+01,5.100000000000000000e+01,1.000000000000000000e+00,-2.822875976562500000e-01,1.782226562500000000e-01,7.098388671875000000e-01,6.201782226562500000e-01
2.000000000000000000e+00,3.300000000000000000e+01,2.200000000000000000e+01,4.000000000000000000e+00,-6.000000000000000000e+00,-2.800000000000000000e+01,-3.800000000000000000e+01,-1.500000000000000000e+01,-2.822875976562500000e-01,1.782226562500000000e-01,7.098388671875000000e-01,6.201782226562500000e-01
-4.000000000000000000e+00,-1.200000000000000000e+01,-1.600000000000000000e+01,-8.000000000000000000e+00,0.000000000000000000e+00,9.000000000000000000e+00,1.500000000000000000e+01,1.400000000000000000e+01,-2.822875976562500000e-01,1.782226562500000000e-01,7.098388671875000000e-01,6.201782226562500000e-01
7.000000000000000000e+00,6.000000000000000000e+00,-1.100000000000000000e+01,3.000000000000000000e+00,1.000000000000000000e+00,-1.000000000000000000e+00,2.200000000000000000e+01,4.000000000000000000e+00,-2.843017578125000000e-01,1.743774414062500000e-01,7.098388671875000000e-01,6.203002929687500000e-01
5.000000000000000000e+00,3.000000000000000000e+00,0.000000000000000000e+00,-4.000000000000000000e+00,-4.000000000000000000e+00,-1.300000000000000000e+01,-2.900000000000000000e+01,-1.100000000000000000e+01,-2.843017578125000000e-01,1.743774414062500000e-01,7.098388671875000000e-01,6.203002929687500000e-01
-2.000000000000000000e+00,-1.500000000000000000e+01,9.000000000000000000e+00,1.800000000000000000e+01,1.300000000000000000e+01,1.400000000000000000e+01,3.100000000000000000e+01,9.000000000000000000e+00,-2.843017578125000000e-01,1.743774414062500000e-01,7.098388671875000000e-01,6.203002929687500000e-01
-3.000000000000000000e+00,-9.000000000000000000e+00,0.000000000000000000e+00,-6.000000000000000000e+00,-1.400000000000000000e+01,-3.600000000000000000e+01,-1.600000000000000000e+01,2.000000000000000000e+00,-2.843017578125000000e-01,1.743774414062500000e-01,7.098388671875000000e-01,6.203002929687500000e-01
1.000000000000000000e+00,1.600000000000000000e+01,-8.000000000000000000e+00,-5.000000000000000000e+00,1.000000000000000000e+00,9.000000000000000000e+00,3.000000000000000000e+00,-6.000000000000000000e+00,-2.867431640625000000e-01,1.722412109375000000e-01,7.103881835937500000e-01,6.192016601562500000e-01
-8.000000000000000000e+00,-1.800000000000000000e+01,-2.300000000000000000e+01,-1.700000000000000000e+01,-8.000000000000000000e+00,-2.000000000000000000e+00,-6.000000000000000000e+00,4.000000000000000000e+00,-2.867431640625000000e-01,1.722412109375000000e-01,7.103881835937500000e-01,6.192016601562500000e-01
0.000000000000000000e+00,2.000000000000000000e+00,1.600000000000000000e+01,8.000000000000000000e+00,-3.000000000000000000e+00,8.000000000000000000e+00,6.000000000000000000e+00,-6.000000000000000000e+00,-2.867431640625000000e-01,1.722412109375000000e-01,7.103881835937500000e-01,6.192016601562500000e-01
6.000000000000000000e+00,3.000000000000000000e+00,0.000000000000000000e+00,-2.000000000000000000e+00,2.000000000000000000e+00,3.000000000000000000e+00,-1.600000000000000000e+01,-2.000000000000000000e+00,-2.867431640625000000e-01,1.722412109375000000e-01,7.103881835937500000e-01,6.192016601562500000e-01
-4.000000000000000000e+00,-4.000000000000000000e+00,1.900000000000000000e+01,1.200000000000000000e+01,1.000000000000000000e+00,-2.000000000000000000e+00,7.000000000000000000e+00,0.000000000000000000e+00,-2.880859375000000000e-01,1.720581054687500000e-01,7.111206054687500000e-01,6.177368164062500000e-01
-4.000000000000000000e+00,1.000000000000000000e+01,5.000000000000000000e+00,9.000000000000000000e+00,-1.000000000000000000e+00,2.000000000000000000e+00,1.100000000000000000e+01,0.000000000000000000e+00,-2.880859375000000000e-01,1.720581054687500000e-01,7.111206054687500000e-01,6.177368164062500000e-01
5.000000000000000000e+00,1.500000000000000000e+01,-1.500000000000000000e+01,-9.000000000000000000e+00,-8.000000000000000000e+00,-2.400000000000000000e+01,-2.700000000000000000e+01,-5.000000000000000000e+00,-2.880859375000000000e-01,1.720581054687500000e-01,7.111206054687500000e-01,6.177368164062500000e-01
-5.000000000000000000e+00,1.000000000000000000e+00,1.000000000000000000e+00,-4.000000000000000000e+00,3.000000000000000000e+00,7.000000000000000000e+00,-4.000000000000000000e+00,-1.000000000000000000e+00,-2.880859375000000000e-01,1.720581054687500000e-01,7.111206054687500000e-01,6.177368164062500000e-01
-3.000000000000000000e+00,4.000000000000000000e+00,-1.000000000000000000e+01,-5.000000000000000000e+00,-2.000000000000000000e+00,9.000000000000000000e+00,2.100000000000000000e+01,0.000000000000000000e+00,-2.893066406250000000e-01,1.718139648437500000e-01,7.118530273437500000e-01,6.163940429687500000e-01
-2.000000000000000000e+00,5.000000000000000000e+00,-1.200000000000000000e+01,4.000000000000000000e+00,-1.000000000000000000e+00,-2.000000000000000000e+01,-1.900000000000000000e+01,-2.000000000000000000e+00,-2.893066406250000000e-01,1.718139648437500000e-01,7.118530273437500000e-01,6.163940429687500000e-01
1.000000000000000000e+00,-6.000000000000000000e+00,4.000000000000000000e+00,-1.000000000000000000e+01,-3.000000000000000000e+00,-2.000000000000000000e+00,1.700000000000000000e+01,1.000000000000000000e+00,-2.893066406250000000e-01,1.718139648437500000e-01,7.118530273437500000e-01,6.163940429687500000e-01
3.000000000000000000e+00,-6.000000000000000000e+00,-4.000000000000000000e+00,-9.000000000000000000e+00,-4.000000000000000000e+00,-2.400000000000000000e+01,3.000000000000000000e+00,3.000000000000000000e+00,-2.893066406250000000e-01,1.718139648437500000e-01,7.118530273437500000e-01,6.163940429687500000e-01
5.000000000000000000e+00,4.000000000000000000e+00,8.000000000000000000e+00,1.100000000000000000e+01,1.600000000000000000e+01,5.500000000000000000e+01,1.400000000000000000e+01,-1.000000000000000000e+00,-2.908325195312500000e-01,1.693725585937500000e-01,7.122802734375000000e-01,6.159057617187500000e-01
-1.000000000000000000e+00,-5.000000000000000000e+00,1.000000000000000000e+01,-4.000000000000000000e+00,-8.000000000000000000e+00,-1.800000000000000000e+01,-1.000000000000000000e+01,1.000000000000000000e+00,-2.908325195312500000e-01,1.693725585937500000e-01,7.122802734375000000e-01,6.159057617187500000e-01
1.000000000000000000e+00,-1.200000000000000000e+01,3.000000000000000000e+00,-7.000000000000000000e+00,-1.000000000000000000e+00,1.200000000000000000e+01,-1.600000000000000000e+01,-1.000000000000000000e+00,-2.908325195312500000e-01,1.693725585937500000e-01,7.122802734375000000e-01,6.159057617187500000e-01
-4.000000000000000000e+00,-4.000000000000000000e+00,-2.600000000000000000e+01,-3.000000000000000000e+00,-4.000000000000000000e+00,-2.600000000000000000e+01,-2.800000000000000000e+01,-7.000000000000000000e+00,-2.908325195312500000e-01,1.693725585937500000e-01,7.122802734375000000e-01,6.159057617187500000e-01
7.000000000000000000e+00,-2.200000000000000000e+01,8.000000000000000000e+00,-3.000000000000000000e+00,-2.000000000000000000e+00,-6.000000000000000000e+00,4.200000000000000000e+01,1.100000000000000000e+01,-2.918701171875000000e-01,1.674804687500000000e-01,7.121582031250000000e-01,6.160278320312500000e-01
-1.300000000000000000e+01,1.300000000000000000e+01,0.000000000000000000e+00,-3.000000000000000000e+00,0.000000000000000000e+00,4.000000000000000000e+00,-1.300000000000000000e+01,-2.000000000000000000e+00,-2.918701171875000000e-01,1.674804687500000000e-01,7.121582031250000000e-01,6.160278320312500000e-01
2.000000000000000000e+00,-1.200000000000000000e+01,8.000000000000000000e+00,-8.000000000000000000e+00,-2.000000000000000000e+00,5.000000000000000000e+00,6.000000000000000000e+00,1.000000000000000000e+00,-2.918701171875000000e-01,1.674804687500000000e-01,7.121582031250000000e-01,6.160278320312500000e-01
-6.000000000000000000e+00,1.000000000000000000e+01,-1.600000000000000000e+01,2.100000000000000000e+01,2.000000000000000000e+00,-1.000000000000000000e+00,-9.000000000000000000e+00,-6.000000000000000000e+00,-2.918701171875000000e-01,1.674804687500000000e-01,7.121582031250000000e-01,6.160278320312500000e-01
-1.000000000000000000e+00,8.000000000000000000e+00,2.100000000000000000e+01,-1.000000000000000000e+00,-4.000000000000000000e+00,-1.300000000000000000e+01,-9.000000000000000000e+00,-4.000000000000000000e+00,-2.919921875000000000e-01,1.669921875000000000e-01,7.120971679687500000e-01,6.162109375000000000e-01
6.000000000000000000e+00,-2.000000000000000000e+00,3.000000000000000000e+00,-6.000000000000000000e+00,0.000000000000000000e+00,1.500000000000000000e+01,4.000000000000000000e+00,1.100000000000000000e+01,-2.919921875000000000e-01,1.669921875000000000e-01,7.120971679687500000e-01,6.162109375000000000e-01
-6.000000000000000000e+00,-1.000000000000000000e+00,3.000000000000000000e+00,-1.300000000000000000e+01,-6.000000000000000000e+00,-1.300000000000000000e+01,-9.000000000000000000e+00,-8.000000000000000000e+00,-2.919921875000000000e-01,1.669921875000000000e-01,7.120971679687500000e-01,6.162109375000000000e-01
3.000000000000000000e+00,4.000000000000000000e+00,-3.000000000000000000e+00,4.000000000000000000e+00,2.000000000000000000e+00,1.800000000000000000e+01,9.000000000000000000e+00,3.000000000000000000e+00,-2.919921875000000000e-01,1.669921875000000000e-01,7.120971679687500000e-01,6.162109375000000000e-01
-1.200000000000000000e+01,-3.000000000000000000e+01,-1.100000000000000000e+01,6.000000000000000000e+00,-6.000000000000000000e+00,-1.400000000000000000e+01,-1.500000000000000000e+01,-1.200000000000000000e+01,-2.913818359375000000e-01,1.694335937500000000e-01,7.121582031250000000e-01,6.157836914062500000e-01
-1.000000000000000000e+00,0.000000000000000000e+00,-6.000000000000000000e+00,-4.000000000000000000e+00,1.000000000000000000e+00,4.000000000000000000e+00,8.000000000000000000e+00,2.000000000000000000e+00,-2.913818359375000000e-01,1.694335937500000000e-01,7.121582031250000000e-01,6.157836914062500000e-01
2.000000000000000000e+00,2.000000000000000000e+00,3.200000000000000000e+01,7.000000000000000000e+00,2.000000000000000000e+00,-3.000000000000000000e+00,-5.000000000000000000e+00,-1.000000000000000000e+00,-2.913818359375000000e-01,1.694335937500000000e-01,7.121582031250000000e-01,6.157836914062500000e-01
-3.000000000000000000e+00,-1.200000000000000000e+01,-2.800000000000000000e+01,-1.700000000000000000e+01,-6.000000000000000000e+00,-2.000000000000000000e+00,-7.000000000000000000e+00,-2.000000000000000000e+00,-2.913818359375000000e-01,1.694335937500000000e-01,7.121582031250000000e-01,6.157836914062500000e-01
-3.000000000000000000e+00,9.000000000000000000e+00,-1.600000000000000000e+01,-1.000000000000000000e+01,1.000000000000000000e+00,1.400000000000000000e+01,0.000000000000000000e+00,-1.000000000000000000e+00,-2.919311523437500000e-01,1.702880859375000000e-01,7.128295898437500000e-01,6.144409179687500000e-01
1.000000000000000000e+00,7.000000000000000000e+00,2.500000000000000000e+01,1.700000000000000000e+01,-3.000000000000000000e+00,-9.000000000000000000e+00,-2.200000000000000000e+01,-4.000000000000000000e+00,-2.919311523437500000e-01,1.702880859375000000e-01,7.128295898437500000e-01,6.144409179687500000e-01
-1.000000000000000000e+00,-1.100000000000000000e+01,-9.000000000000000000e+00,-1.300000000000000000e+01,-4.000000000000000000e+00,3.000000000000000000e+00,3.000000000000000000e+00,-1.000000000000000000e+00,-2.919311523437500000e-01,1.702880859375000000e-01,7.128295898437500000e-01,6.144409179687500000e-01
1.000000000000000000e+00,9.000000000000000000e+00,2.400000000000000000e+01,1.600000000000000000e+01,1.000000000000000000e+01,1.700000000000000000e+01,1.600000000000000000e+01,0.000000000000000000e+00,-2.919311523437500000e-01,1.702880859375000000e-01,7.128295898437500000e-01,6.144409179687500000e-01
-6.000000000000000000e+00,-1.500000000000000000e+01,-2.100000000000000000e+01,-1.400000000000000000e+01,-1.900000000000000000e+01,-6.200000000000000000e+01,-2.800000000000000000e+01,-5.000000000000000000e+00,-2.922973632812500000e-01,1.692504882812500000e-01,7.138061523437500000e-01,6.134033203125000000e-01
3.000000000000000000e+00,0.000000000000000000e+00,-8.000000000000000000e+00,1.000000000000000000e+00,1.300000000000000000e+01,5.900000000000000000e+01,2.400000000000000000e+01,3.000000000000000000e+00,-2.922973632812500000e-01,1.692504882812500000e-01,7.138061523437500000e-01,6.134033203125000000e-01
0.000000000000000000e+00,1.400000000000000000e+01,-8.000000000000000000e+00,2.000000000000000000e+00,-9.000000000000000000e+00,-3.100000000000000000e+01,-1.200000000000000000e+01,-7.000000000000000000e+00,-2.922973632812500000e-01,1.692504882812500000e-01,7.138061523437500000e-01,6.134033203125000000e-01
4.000000000000000000e+00,-1.900000000000000000e+01,2.000000000000000000e+00,-5.000000000000000000e+00,1.000000000000000000e+00,2.300000000000000000e+01,1.800000000000000000e+01,8.000000000000000000e+00,-2.922973632812500000e-01,1.692504882812500000e-01,7.138061523437500000e-01,6.134033203125000000e-01
2.000000000000000000e+00,2.000000000000000000e+00,1.100000000000000000e+01,-1.000000000000000000e+00,2.000000000000000000e+00,-2.000000000000000000e+00,-2.500000000000000000e+01,-3.000000000000000000e+00,-2.926025390625000000e-01,1.666259765625000000e-01,7.144165039062500000e-01,6.133422851562500000e-01
-5.000000000000000000e+00,1.700000000000000000e+01,-1.000000000000000000e+00,-1.000000000000000000e+00,-7.000000000000000000e+00,-2.100000000000000000e+01,-3.000000000000000000e+00,4.000000000000000000e+00,-2.926025390625000000e-01,1.666259765625000000e-01,7.144165039062500000e-01,6.133422851562500000e-01
-2.000000000000000000e+00,1.000000000000000000e+01,0.000000000000000000e+00,1.000000000000000000e+00,1.000000000000000000e+00,1.100000000000000000e+01,-1.000000000000000000e+00,-1.600000000000000000e+01,-2.926025390625000000e-01,1.666259765625000000e-01,7.144165039062500000e-01,6.133422851562500000e-01
3.000000000000000000e+00,-1.000000000000000000e+01,5.000000000000000000e+00,1.000000000000000000e+00,-4.000000000000000000e+00,-8.000000000000000000e+00,-1.300000000000000000e+01,5.000000000000000000e+00,-2.926025390625000000e-01,1.666259765625000000e-01,7.144165039062500000e-01,6.133422851562500000e-01
0.000000000000000000e+00,-7.000000000000000000e+00,2.000000000000000000e+00,-1.000000000000000000e+00,-1.000000000000000000e+00,7.000000000000000000e+00,1.200000000000000000e+01,2.000000000000000000e+00,-2.932128906250000000e-01,1.651611328125000000e-01,7.144775390625000000e-01,6.133422851562500000e-01
-4.000000000000000000e+00,-1.100000000000000000e+01,-1.700000000000000000e+01,-1.000000000000000000e+01,-4.000000000000000000e+00,-1.000000000000000000e+00,-7.000000000000000000e+00,-3.000000000000000000e+00,-2.932128906250000000e-01,1.651611328125000000e-01,7.144775390625000000e-01,6.133422851562500000e-01
-3.000000000000000000e+00,-9.000000000000000000e+00,-1.600000000000000000e+01,7.000000000000000000e+00,3.000000000000000000e+00,-1.000000000000000000e+00,0.000000000000000000e+00,5.000000000000000000e+00,-2.932128906250000000e-01,1.651611328125000000e-01,7.144775390625000000e-01,6.133422851562500000e-01
-4.000000000000000000e+00,-1.000000000000000000e+00,1.700000000000000000e+01,-3.000000000000000000e+00,-2.000000000000000000e+00,0.000000000000000000e+00,-4.000000000000000000e+00,-6.000000000000000000e+00,-2.932128906250000000e-01,1.651611328125000000e-01,7.144775390625000000e-01,6.133422851562500000e-01
1.000000000000000000e+00,1.600000000000000000e+01,-2.000000000000000000e+00,-1.200000000000000000e+01,2.000000000000000000e+00,5.000000000000000000e+00,8.000000000000000000e+00,3.000000000000000000e+00,-2.927246093750000000e-01,1.671752929687500000e-01,7.145385742187500000e-01,6.129760742187500000e-01
-4.000000000000000000e+00,-3.000000000000000000e+00,1.000000000000000000e+01,1.000000000000000000e+01,1.000000000000000000e+00,-5.000000000000000000e+00,1.000000000000000000e+00,-4.000000000000000000e+00,-2.927246093750000000e-01,1.671752929687500000e-01,7.145385742187500000e-01,6.129760742187500000e-01
-2.000000000000000000e+00,-2.500000000000000000e+01,-1.600000000000000000e+01,-7.000000000000000000e+00,-4.000000000000000000e+00,-8.000000000000000000e+00,6.000000000000000000e+00,2.000000000000000000e+00,-2.927246093750000000e-01,1.671752929687500000e-01,7.145385742187500000e-01,6.129760742187500000e-01
-1.000000000000000000e+00,2.100000000000000000e+01,-1.300000000000000000e+01,-4.000000000000000000e+00,0.000000000000000000e+00,6.000000000000000000e+00,2.000000000000000000e+00,-5.000000000000000000e+00,-2.927246093750000000e-01,1.671752929687500000e-01,7.145385742187500000e-01,6.129760742187500000e-01
1.000000000000000000e+00,2.000000000000000000e+00,6.000000000000000000e+00,-2.000000000000000000e+00,-5.000000000000000000e+00,-1.000000000000000000e+00,-2.000000000000000000e+00,1.000000000000000000e+00,-2.919311523437500000e-01,1.702270507812500000e-01,7.149658203125000000e-01,6.119995117187500000e-01
3.000000000000000000e+00,-6.000000000000000000e+00,1.400000000000000000e+01,5.000000000000000000e+00,2.000000000000000000e+00,0.000000000000000000e+00,2.600000000000000000e+01,0.000000000000000000e+00,-2.919311523437500000e-01,1.702270507812500000e-01,7.149658203125000000e-01,6.119995117187500000e-01
-2.000000000000000000e+00,-8.000000000000000000e+00,-8.000000000000000000e+00,-2.000000000000000000e+00,2.000000000000000000e+00,1.000000000000000000e+00,-2.000000000000000000e+01,1.000000000000000000e+00,-2.919311523437500000e-01,1.702270507812500000e-01,7.149658203125000000e-01,6.119995117187500000e-01
-2.000000000000000000e+00,4.000000000000000000e+00,-2.000000000000000000e+00,-1.500000000000000000e+01,-1.100000000000000000e+01,-3.000000000000000000e+00,3.000000000000000000e+00,2.000000000000000000e+00,-2.919311523437500000e-01,1.702270507812500000e-01,7.149658203125000000e-01,6.119995117187500000e-01
5.000000000000000000e+00,7.000000000000000000e+00,1.600000000000000000e+01,1.200000000000000000e+01,0.000000000000000000e+00,-1.600000000000000000e+01,-9.000000000000000000e+00,-1.000000000000000000e+00,-2.919311523437500000e-01,1.705932617187500000e-01,7.157592773437500000e-01,6.109619140625000000e-01
-2.000000000000000000e+00,-4.000000000000000000e+00,0.000000000000000000e+00,-6.000000000000000000e+00,-3.000000000000000000e+00,-6.000000000000000000e+00,1.500000000000000000e+01,-4.000000000000000000e+00,-2.919311523437500000e-01,1.705932617187500000e-01,7.157592773437500000e-01,6.109619140625000000e-01
-6.000000000000000000e+00,-3.000000000000000000e+00,9.000000000000000000e+00,6.000000000000000000e+00,1.000000000000000000e+01,5.600000000000000000e+01,1.800000000000000000e+01,6.000000000000000000e+00,-2.919311523437500000e-01,1.705932617187500000e-01,7.157592773437500000e-01,6.109619140625000000e-01
-3.000000000000000000e+00,-5.000000000000000000e+00,1.300000000000000000e+01,1.000000000000000000e+01,-6.000000000000000000e+00,-1.700000000000000000e+01,2.400000000000000000e+01,0.000000000000000000e+00,-2.919311523437500000e-01,1.705932617187500000e-01,7.157592773437500000e-01,6.109619140625000000e-01
1.000000000000000000e+00,2.000000000000000000e+00,-9.000000000000000000e+00,-1.000000000000000000e+00,3.000000000000000000e+00,8.000000000000000000e+00,-2.500000000000000000e+01,0.000000000000000000e+00,-2.921752929687500000e-01,1.691284179687500000e-01,7.166137695312500000e-01,6.102294921875000000e-01
2.000000000000000000e+00,-2.000000000000000000e+00,-8.000000000000000000e+00,-5.000000000000000000e+00,-3.000000000000000000e+00,-2.700000000000000000e+01,-5.000000000000000000e+00,1.000000000000000000e+00,-2.921752929687500000e-01,1.691284179687500000e-01,7.166137695312500000e-01,6.102294921875000000e-01
-3.000000000000000000e+00,1.000000000000000000e+00,-5.000000000000000000e+00,-3.000000000000000000e+00,-4.000000000000000000e+00,-3.000000000000000000e+00,0.000000000000000000e+00,-4.000000000000000000e+00,-2.921752929687500000e-01,1.691284179687500000e-01,7.166137695312500000e-01,6.102294921875000000e-01
7.000000000000000000e+00,3.000000000000000000e+00,5.000000000000000000e+00,-3.000000000000000000e+00,0.000000000000000000e+00,-1.000000000000000000e+00,-8.000000000000000000e+00,-3.000000000000000000e+00,-2.921752929687500000e-01,1.691284179687500000e-01,7.166137695312500000e-01,6.102294921875000000e-01
-2.900000000000000000e+01,1.000000000000000000e+00,-8.000000000000000000e+00,-4.000000000000000000e+00,-9.000000000000000000e+00,-1.400000000000000000e+01,5.000000000000000000e+00,-9.000000000000000000e+00,-2.931518554687500000e-01,1.670532226562500000e-01,7.167358398437500000e-01,6.102294921875000000e-01
-4.000000000000000000e+00,2.200000000000000000e+01,-1.300000000000000000e+01,-3.000000000000000000e+00,1.000000000000000000e+00,8.000000000000000000e+00,4.000000000000000000e+00,-2.000000000000000000e+00,-2.931518554687500000e-01,1.670532226562500000e-01,7.167358398437500000e-01,6.102294921875000000e-01
0.000000000000000000e+00,-8.000000000000000000e+00,1.000000000000000000e+00,4.000000000000000000e+00,0.000000000000000000e+00,-1.300000000000000000e+01,-2.100000000000000000e+01,1.000000000000000000e+00,-2.931518554687500000e-01,1.670532226562500000e-01,7.167358398437500000e-01,6.102294921875000000e-01
0.000000000000000000e+00,-1.000000000000000000e+00,5.000000000000000000e+00,1.000000000000000000e+00,5.000000000000000000e+00,6.000000000000000000e+00,-7.000000000000000000e+00,1.000000000000000000e+00,-2.931518554687500000e-01,1.670532226562500000e-01,7.167358398437500000e-01,6.102294921875000000e-01
8.000000000000000000e+00,-1.100000000000000000e+01,-1.100000000000000000e+01,-2.000000000000000000e+00,0.000000000000000000e+00,3.000000000000000000e+00,1.600000000000000000e+01,2.000000000000000000e+00,-2.920532226562500000e-01,1.675415039062500000e-01,7.167968750000000000e-01,6.105346679687500000e-01
-1.000000000000000000e+00,-7.000000000000000000e+00,1.700000000000000000e+01,0.000000000000000000e+00,0.000000000000000000e+00,4.000000000000000000e+00,-1.100000000000000000e+01,-3.000000000000000000e+00,-2.920532226562500000e-01,1.675415039062500000e-01,7.167968750000000000e-01,6.105346679687500000e-01
-4.000000000000000000e+00,0.000000000000000000e+00,-9.000000000000000000e+00,-6.000000000000000000e+00,-3.000000000000000000e+00,-7.000000000000000000e+00,1.000000000000000000e+01,-1.000000000000000000e+00,-2.920532226562500000e-01,1.675415039062500000e-01,7.167968750000000000e-01,6.105346679687500000e-01
3.000000000000000000e+00,1.000000000000000000e+00,1.000000000000000000e+01,-2.000000000000000000e+00,-1.000000000000000000e+00,-2.000000000000000000e+00,-6.000000000000000000e+00,0.000000000000000000e+00,-2.920532226562500000e-01,1.675415039062500000e-01,7.167968750000000000e-01,6.105346679687500000e-01
0.000000000000000000e+00,-3.000000000000000000e+00,1.700000000000000000e+01,1.000000000000000000e+00,1.000000000000000000e+00,3.000000000000000000e+00,0.000000000000000000e+00,-5.000000000000000000e+00,-2.899169921875000000e-01,1.692504882812500000e-01,7.173461914062500000e-01,6.104736328125000000e-01
-3.000000000000000000e+00,-1.000000000000000000e+01,-3.000000000000000000e+01,-1.200000000000000000e+01,0.000000000000000000e+00,9.000000000000000000e+00,-1.000000000000000000e+00,0.000000000000000000e+00,-2.899169921875000000e-01,1.692504882812500000e-01,7.173461914062500000e-01,6.104736328125000000e-01
6.000000000000000000e+00,1.500000000000000000e+01,2.000000000000000000e+01,-1.000000000000000000e+00,-4.000000000000000000e+00,-1.000000000000000000e+01,-2.000000000000000000e+00,1.000000000000000000e+00,-2.899169921875000000e-01,1.692504882812500000e-01,7.173461914062500000e-01,6.104736328125000000e-01
-7.000000000000000000e+00,-4.000000000000000000e+00,-1.000000000000000000e+01,9.000000000000000000e+00,4.000000000000000000e+00,-4.000000000000000000e+00,-8.000000000000000000e+00,-2.000000000000000000e+00,-2.899169921875000000e-01,1.692504882812500000e-01,7.173461914062500000e-01,6.104736328125000000e-01
0.000000000000000000e+00,-1.000000000000000000e+00,-3.000000000000000000e+00,-1.000000000000000000e+01,-4.000000000000000000e+00,4.000000000000000000e+00,1.000000000000000000e+01,3.000000000000000000e+00,-2.884521484375000000e-01,1.695556640625000000e-01,7.186889648437500000e-01,6.094360351562500000e-01
2.000000000000000000e+00,1.000000000000000000e+00,-1.000000000000000000e+00,-1.000000000000000000e+01,-4.000000000000000000e+00,-1.200000000000000000e+01,-1.700000000000000000e+01,-2.000000000000000000e+00,-2.884521484375000000e-01,1.695556640625000000e-01,7.186889648437500000e-01,6.094360351562500000e-01
-6.000000000000000000e+00,-4.000000000000000000e+00,4.000000000000000000e+00,3.000000000000000000e+00,1.000000000000000000e+00,1.300000000000000000e+01,-4.000000000000000000e+00,-3.000000000000000000e+00,-2.884521484375000000e-01,1.695556640625000000e-01,7.186889648437500000e-01,6.094360351562500000e-01
-3.000000000000000000e+00,-5.000000000000000000e+00,0.000000000000000000e+00,-1.300000000000000000e+01,-7.000000000000000000e+00,-3.500000000000000000e+01,-1.700000000000000000e+01,-5.000000000000000000e+00,-2.884521484375000000e-01,1.695556640625000000e-01,7.186889648437500000e-01,6.094360351562500000e-01
4.000000000000000000e+00,-6.000000000000000000e+00,-3.400000000000000000e+01,8.000000000000000000e+00,4.000000000000000000e+00,6.000000000000000000e+00,1.000000000000000000e+01,2.000000000000000000e+00,-2.879028320312500000e-01,1.675415039062500000e-01,7.201538085937500000e-01,6.085815429687500000e-01
0.000000000000000000e+00,3.000000000000000000e+00,-1.000000000000000000e+00,1.000000000000000000e+00,-1.000000000000000000e+00,1.200000000000000000e+01,1.100000000000000000e+01,0.000000000000000000e+00,-2.879028320312500000e-01,1.675415039062500000e-01,7.201538085937500000e-01,6.085815429687500000e-01
1.000000000000000000e+00,-2.000000000000000000e+00,-1.100000000000000000e+01,-2.000000000000000000e+00,-7.000000000000000000e+00,-9.000000000000000000e+00,1.500000000000000000e+01,3.000000000000000000e+00,-2.879028320312500000e-01,1.675415039062500000e-01,7.201538085937500000e-01,6.085815429687500000e-01
-5.000000000000000000e+00,-1.200000000000000000e+01,-1.000000000000000000e+00,-5.000000000000000000e+00,-1.000000000000000000e+00,4.000000000000000000e+00,-8.000000000000000000e+00,-2.000000000000000000e+00,-2.879028320312500000e-01,1.675415039062500000e-01,7.201538085937500000e-01,6.085815429687500000e-01
4.000000000000000000e+00,4.000000000000000000e+00,9.000000000000000000e+00,-1.000000000000000000e+00,-1.000000000000000000e+00,-9.000000000000000000e+00,3.000000000000000000e+00,-2.000000000000000000e+00,-2.880249023437500000e-01,1.643676757812500000e-01,7.212524414062500000e-01,6.080932617187500000e-01
-2.000000000000000000e+00,-2.200000000000000000e+01,7.000000000000000000e+00,-2.000000000000000000e+00,-4.000000000000000000e+00,-1.500000000000000000e+01,-1.400000000000000000e+01,-7.000000000000000000e+00,-2.880249023437500000e-01,1.643676757812500000e-01,7.212524414062500000e-01,6.080932617187500000e-01
1.000000000000000000e+01,-3.000000000000000000e+00,-5.000000000000000000e+00,-3.000000000000000000e+00,0.000000000000000000e+00,3.000000000000000000e+00,1.700000000000000000e+01,2.300000000000000000e+01,-2.880249023437500000e-01,1.643676757812500000e-01,7.212524414062500000e-01,6.080932617187500000e-01
-2.100000000000000000e+01,5.000000000000000000e+00,-4.000000000000000000e+00,5.000000000000000000e+00,2.000000000000000000e+00,1.400000000000000000e+01,-3.000000000000000000e+00,-2.000000000000000000e+01,-2.880249023437500000e-01,1.643676757812500000e-01,7.212524414062500000e-01,6.080932617187500000e-01
2.000000000000000000e+00,-1.000000000000000000e+00,9.000000000000000000e+00,-1.000000000000000000e+00,2.000000000000000000e+00,5.000000000000000000e+00,6.000000000000000000e+00,1.000000000000000000e+00,-2.877197265625000000e-01,1.628417968750000000e-01,7.216796875000000000e-01,6.080932617187500000e-01
-2.000000000000000000e+00,-7.000000000000000000e+00,-3.100000000000000000e+01,-4.000000000000000000e+00,-4.000000000000000000e+00,4.000000000000000000e+00,-2.000000000000000000e+00,-1.000000000000000000e+00,-2.877197265625000000e-01,1.628417968750000000e-01,7.216796875000000000e-01,6.080932617187500000e-01
0.000000000000000000e+00,1.000000000000000000e+01,1.800000000000000000e+01,1.000000000000000000e+00,0.000000000000000000e+00,-4.000000000000000000e+00,-3.000000000000000000e+00,-1.000000000000000000e+00,-2.877197265625000000e-01,1.628417968750000000e-01,7.216796875000000000e-01,6.080932617187500000e-01
1.000000000000000000e+00,-1.100000000000000000e+01,-8.000000000000000000e+00,9.000000000000000000e+00,2.000000000000000000e+00,8.000000000000000000e+00,7.000000000000000000e+00,3.000000000000000000e+00,-2.877197265625000000e-01,1.628417968750000000e-01,7.216796875000000000e-01,6.080932617187500000e-01
3.000000000000000000e+00,4.000000000000000000e+00,0.000000000000000000e+00,-2.000000000000000000e+00,-2.000000000000000000e+00,-2.000000000000000000e+00,-9.000000000000000000e+00,-1.000000000000000000e+00,-2.863769531250000000e-01,1.643066406250000000e-01,7.217407226562500000e-01,6.082763671875000000e-01
0.000000000000000000e+00,3.000000000000000000e+00,2.200000000000000000e+01,3.000000000000000000e+00,-4.000000000000000000e+00,-9.000000000000000000e+00,-9.000000000000000000e+00,-2.000000000000000000e+00,-2.863769531250000000e-01,1.643066406250000000e-01,7.217407226562500000e-01,6.082763671875000000e-01
-1.000000000000000000e+00,-7.000000000000000000e+00,-2.200000000000000000e+01,-1.600000000000000000e+01,-3.000000000000000000e+00,-8.000000000000000000e+00,-1.200000000000000000e+01,-5.000000000000000000e+00,-2.863769531250000000e-01,1.643066406250000000e-01,7.217407226562500000e-01,6.082763671875000000e-01
0.000000000000000000e+00,-6.000000000000000000e+00,-6.000000000000000000e+00,-6.000000000000000000e+00,0.000000000000000000e+00,2.200000000000000000e+01,1.800000000000000000e+01,1.000000000000000000e+00,-2.863769531250000000e-01,1.643066406250000000e-01,7.217407226562500000e-01,6.082763671875000000e-01
0.000000000000000000e+00,1.500000000000000000e+01,2.100000000000000000e+01,2.100000000000000000e+01,3.000000000000000000e+00,-1.100000000000000000e+01,-5.000000000000000000e+00,-2.000000000000000000e+00,-2.854003906250000000e-01,1.663818359375000000e-01,7.221069335937500000e-01,6.077270507812500000e-01
-3.000000000000000000e+00,-3.000000000000000000e+00,-2.700000000000000000e+01,3.000000000000000000e+00,3.000000000000000000e+00,0.000000000000000000e+00,-2.100000000000000000e+01,1.000000000000000000e+00,-2.854003906250000000e-01,1.663818359375000000e-01,7.221069335937500000e-01,6.077270507812500000e-01
-1.000000000000000000e+00,-3.000000000000000000e+00,1.100000000000000000e+01,-1.600000000000000000e+01,-7.000000000000000000e+00,-1.700000000000000000e+01,5.000000000000000000e+00,-4.000000000000000000e+00,-2.854003906250000000e-01,1.663818359375000000e-01,7.221069335937500000e-01,6.077270507812500000e-01
7.000000000000000000e+00,3.000000000000000000e+00,8.000000000000000000e+00,9.000000000000000000e+00,6.000000000000000000e+00,2.500000000000000000e+01,4.000000000000000000e+00,5.000000000000000000e+00,-2.854003906250000000e-01,1.663818359375000000e-01,7.221069335937500000e-01,6.077270507812500000e-01
2.000000000000000000e+00,2.000000000000000000e+00,-8.000000000000000000e+00,-1.000000000000000000e+01,-4.000000000000000000e+00,-6.000000000000000000e+00,5.000000000000000000e+00,1.000000000000000000e+00,-2.854614257812500000e-01,1.665039062500000000e-01,7.225952148437500000e-01,6.070556640625000000e-01
-5.000000000000000000e+00,3.000000000000000000e+00,1.400000000000000000e+01,2.000000000000000000e+00,0.000000000000000000e+00,-1.300000000000000000e+01,-9.000000000000000000e+00,-2.000000000000000000e+00,-2.854614257812500000e-01,1.665039062500000000e-01,7.225952148437500000e-01,6.070556640625000000e-01
-2.000000000000000000e+00,-5.000000000000000000e+00,-4.000000000000000000e+00,1.000000000000000000e+01,2.000000000000000000e+00,4.000000000000000000e+00,-9.000000000000000000e+00,-3.000000000000000000e+00,-2.854614257812500000e-01,1.665039062500000000e-01,7.225952148437500000e-01,6.070556640625000000e-01
7.000000000000000000e+00,7.000000000000000000e+00,-1.300000000000000000e+01,-2.000000000000000000e+01,-5.000000000000000000e+00,-9.000000000000000000e+00,-6.000000000000000000e+00,3.000000000000000000e+00,-2.854614257812500000e-01,1.665039062500000000e-01,7.225952148437500000e-01,6.070556640625000000e-01
-7.000000000000000000e+00,-5.400000000000000000e+01,3.600000000000000000e+01,1.400000000000000000e+01,-2.000000000000000000e+00,-1.000000000000000000e+01,-7.000000000000000000e+00,-3.000000000000000000e+00,-2.860717773437500000e-01,1.652832031250000000e-01,7.231445312500000000e-01,6.065063476562500000e-01
-1.000000000000000000e+01,3.800000000000000000e+01,-3.900000000000000000e+01,-7.000000000000000000e+00,-6.000000000000000000e+00,-1.000000000000000000e+00,3.000000000000000000e+00,-9.000000000000000000e+00,-2.860717773437500000e-01,1.652832031250000000e-01,7.231445312500000000e-01,6.065063476562500000e-01
8.000000000000000000e+00,4.000000000000000000e+00,7.000000000000000000e+00,-2.000000000000000000e+00,5.000000000000000000e+00,3.000000000000000000e+01,5.000000000000000000e+00,-5.000000000000000000e+00,-2.860717773437500000e-01,1.652832031250000000e-01,7.231445312500000000e-01,6.065063476562500000e-01
-1.000000000000000000e+01,0.000000000000000000e+00,0.000000000000000000e+00,2.000000000000000000e+00,2.000000000000000000e+00,1.100000000000000000e+01,2.100000000000000000e+01,6.000000000000000000e+00,-2.860717773437500000e-01,1.652832031250000000e-01,7.231445312500000000e-01,6.065063476562500000e-01
1.000000000000000000e+01,-3.000000000000000000e+00,-5.000000000000000000e+00,-1.000000000000000000e+00,4.000000000000000000e+00,5.000000000000000000e+00,2.000000000000000000e+00,1.000000000000000000e+00,-2.868652343750000000e-01,1.645507812500000000e-01,7.234497070312500000e-01,6.059570312500000000e-01
2.000000000000000000e+00,-1.300000000000000000e+01,5.000000000000000000e+00,-3.000000000000000000e+00,-3.000000000000000000e+00,-7.000000000000000000e+00,-6.000000000000000000e+00,1.000000000000000000e+00,-2.868652343750000000e-01,1.645507812500000000e-01,7.234497070312500000e-01,6.059570312500000000e-01
-5.000000000000000000e+00,1.000000000000000000e+00,-5.000000000000000000e+00,5.000000000000000000e+00,-3.000000000000000000e+00,-1.800000000000000000e+01,-7.000000000000000000e+00,8.000000000000000000e+00,-2.868652343750000000e-01,1.645507812500000000e-01,7.234497070312500000e-01,6.059570312500000000e-01
-2.000000000000000000e+00,0.000000000000000000e+00,-4.000000000000000000e+00,0.000000000000000000e+00,-3.000000000000000000e+00,-1.000000000000000000e+00,-1.300000000000000000e+01,-1.900000000000000000e+01,-2.868652343750000000e-01,1.645507812500000000e-01,7.234497070312500000e-01,6.059570312500000000e-01
1.000000000000000000e+00,1.100000000000000000e+01,-1.000000000000000000e+00,-1.000000000000000000e+01,-4.000000000000000000e+00,-8.000000000000000000e+00,-1.100000000000000000e+01,9.000000000000000000e+00,-2.870483398437500000e-01,1.655273437500000000e-01,7.233276367187500000e-01,6.057739257812500000e-01
1.000000000000000000e+00,-2.700000000000000000e+01,-6.000000000000000000e+00,1.100000000000000000e+01,1.000000000000000000e+00,7.000000000000000000e+00,3.000000000000000000e+00,-3.000000000000000000e+00,-2.870483398437500000e-01,1.655273437500000000e-01,7.233276367187500000e-01,6.057739257812500000e-01
7.000000000000000000e+00,3.000000000000000000e+01,-2.000000000000000000e+00,0.000000000000000000e+00,-2.000000000000000000e+00,1.000000000000000000e+00,1.000000000000000000e+00,0.000000000000000000e+00,-2.870483398437500000e-01,1.655273437500000000e-01,7.233276367187500000e-01,6.057739257812500000e-01
-7.000000000000000000e+00,-1.800000000000000000e+01,5.000000000000000000e+00,-2.000000000000000000e+00,-3.000000000000000000e+00,-1.600000000000000000e+01,-1.400000000000000000e+01,0.000000000000000000e+00,-2.870483398437500000e-01,1.655273437500000000e-01,7.233276367187500000e-01,6.057739257812500000e-01
-4.000000000000000000e+00,-1.000000000000000000e+00,-5.000000000000000000e+00,-7.000000000000000000e+00,-2.000000000000000000e+00,3.000000000000000000e+00,7.000000000000000000e+00,-2.000000000000000000e+00,-2.864990234375000000e-01,1.681518554687500000e-01,7.230834960937500000e-01,6.055908203125000000e-01
7.000000000000000000e+00,-3.000000000000000000e+00,0.000000000000000000e+00,-1.500000000000000000e+01,1.000000000000000000e+00,5.000000000000000000e+00,1.000000000000000000e+00,3.000000000000000000e+00,-2.864990234375000000e-01,1.681518554687500000e-01,7.230834960937500000e-01,6.055908203125000000e-01
-1.200000000000000000e+01,-1.900000000000000000e+01,-1.500000000000000000e+01,-8.000000000000000000e+00,-4.000000000000000000e+00,-2.000000000000000000e+00,-1.000000000000000000e+00,-6.000000000000000000e+00,-2.864990234375000000e-01,1.681518554687500000e-01,7.230834960937500000e-01,6.055908203125000000e-01
1.000000000000000000e+00,-9.000000000000000000e+00,1.000000000000000000e+00,4.000000000000000000e+00,-1.000000000000000000e+00,-9.000000000000000000e+00,-2.000000000000000000e+00,2.000000000000000000e+00,-2.864990234375000000e-01,1.681518554687500000e-01,7.230834960937500000e-01,6.055908203125000000e-01
0.000000000000000000e+00,1.700000000000000000e+01,-9.000000000000000000e+00,1.000000000000000000e+00,-3.000000000000000000e+00,5.000000000000000000e+00,2.000000000000000000e+00,-5.000000000000000000e+00,-2.869262695312500000e-01,1.699829101562500000e-01,7.231445312500000000e-01,6.047363281250000000e-01
6.000000000000000000e+00,0.000000000000000000e+00,1.600000000000000000e+01,-1.000000000000000000e+00,0.000000000000000000e+00,-2.000000000000000000e+00,9.000000000000000000e+00,4.000000000000000000e+00,-2.869262695312500000e-01,1.699829101562500000e-01,7.231445312500000000e-01,6.047363281250000000e-01
-3.000000000000000000e+00,4.000000000000000000e+00,-9.000000000000000000e+00,-5.000000000000000000e+00,-1.000000000000000000e+00,0.000000000000000000e+00,-9.000000000000000000e+00,-7.000000000000000000e+00,-2.869262695312500000e-01,1.699829101562500000e-01,7.231445312500000000e-01,6.047363281250000000e-01
4.000000000000000000e+00,1.300000000000000000e+01,1.300000000000000000e+01,1.600000000000000000e+01,-3.000000000000000000e+00,-2.300000000000000000e+01,-1.500000000000000000e+01,2.000000000000000000e+00,-2.869262695312500000e-01,1.699829101562500000e-01,7.231445312500000000e-01,6.047363281250000000e-01
-4.000000000000000000e+00,-8.000000000000000000e+00,-3.400000000000000000e+01,-1.400000000000000000e+01,3.000000000000000000e+00,4.000000000000000000e+01,2.800000000000000000e+01,3.000000000000000000e+00,-2.885742187500000000e-01,1.702270507812500000e-01,7.235107421875000000e-01,6.035156250000000000e-01
-3.000000000000000000e+00,-5.000000000000000000e+00,1.100000000000000000e+01,0.000000000000000000e+00,0.000000000000000000e+00,-1.000000000000000000e+01,-2.000000000000000000e+00,-1.000000000000000000e+00,-2.885742187500000000e-01,1.702270507812500000e-01,7.235107421875000000e-01,6.035156250000000000e-01
-4.000000000000000000e+00,-3.000000000000000000e+00,-4.000000000000000000e+00,-2.000000000000000000e+00,-7.000000000000000000e+00,-4.400000000000000000e+01,-3.500000000000000000e+01,-1.300000000000000000e+01,-2.885742187500000000e-01,1.702270507812500000e-01,7.235107421875000000e-01,6.035156250000000000e-01
6.000000000000000000e+00,-4.000000000000000000e+00,3.000000000000000000e+00,-1.000000000000000000e+01,-1.000000000000000000e+00,3.800000000000000000e+01,5.000000000000000000e+00,6.000000000000000000e+00,-2.885742187500000000e-01,1.702270507812500000e-01,7.235107421875000000e-01,6.035156250000000000e-01
-1.000000000000000000e+00,1.000000000000000000e+01,0.000000000000000000e+00,6.000000000000000000e+00,-4.000000000000000000e+00,-1.900000000000000000e+01,-1.000000000000000000e+00,-2.000000000000000000e+00,-2.903442382812500000e-01,1.694946289062500000e-01,7.233886718750000000e-01,6.029663085937500000e-01
-2.000000000000000000e+00,2.000000000000000000e+00,9.000000000000000000e+00,6.000000000000000000e+00,6.000000000000000000e+00,1.100000000000000000e+01,-4.000000000000000000e+00,-6.000000000000000000e+00,-2.903442382812500000e-01,1.694946289062500000e-01,7.233886718750000000e-01,6.029663085937500000e-01
3.000000000000000000e+00,-8.000000000000000000e+00,8.000000000000000000e+00,3.000000000000000000e+00,-5.000000000000000000e+00,-1.300000000000000000e+01,4.000000000000000000e+00,8.000000000000000000e+00,-2.903442382812500000e-01,1.694946289062500000e-01,7.233886718750000000e-01,6.029663085937500000e-01
-4.000000000000000000e+00,-2.000000000000000000e+00,-2.000000000000000000e+01,-9.000000000000000000e+00,-9.000000000000000000e+00,-2.500000000000000000e+01,-7.000000000000000000e+00,-1.000000000000000000e+01,-2.903442382812500000e-01,1.694946289062500000e-01,7.233886718750000000e-01,6.029663085937500000e-01
-2.000000000000000000e+00,6.000000000000000000e+00,2.600000000000000000e+01,1.200000000000000000e+01,5.000000000000000000e+00,9.000000000000000000e+00,-1.000000000000000000e+00,1.000000000000000000e+00,-2.913208007812500000e-01,1.694335937500000000e-01,7.227783203125000000e-01,6.032714843750000000e-01
4.000000000000000000e+00,9.000000000000000000e+00,-1.100000000000000000e+01,-1.300000000000000000e+01,-9.000000000000000000e+00,-1.000000000000000000e+01,-6.000000000000000000e+00,-2.000000000000000000e+00,-2.913208007812500000e-01,1.694335937500000000e-01,7.227783203125000000e-01,6.032714843750000000e-01
3.000000000000000000e+00,-4.000000000000000000e+00,3.000000000000000000e+00,1.000000000000000000e+00,1.000000000000000000e+00,4.000000000000000000e+00,6.000000000000000000e+00,1.000000000000000000e+00,-2.913208007812500000e-01,1.694335937500000000e-01,7.227783203125000000e-01,6.032714843750000000e-01
0.000000000000000000e+00,-2.400000000000000000e+01,2.000000000000000000e+00,1.100000000000000000e+01,-1.000000000000000000e+00,-1.200000000000000000e+01,-4.000000000000000000e+00,1.000000000000000000e+00,-2.913208007812500000e-01,1.694335937500000000e-01,7.227783203125000000e-01,6.032714843750000000e-01
-2.000000000000000000e+00,1.500000000000000000e+01,-1.500000000000000000e+01,-1.200000000000000000e+01,-3.000000000000000000e+00,2.000000000000000000e+00,-8.000000000000000000e+00,-8.000000000000000000e+00,-2.913818359375000000e-01,1.708374023437500000e-01,7.219238281250000000e-01,6.038818359375000000e-01
-6.000000000000000000e+00,-1.000000000000000000e+01,2.000000000000000000e+00,-7.000000000000000000e+00,-5.000000000000000000e+00,-7.000000000000000000e+00,5.000000000000000000e+00,2.000000000000000000e+00,-2.913818359375000000e-01,1.708374023437500000e-01,7.219238281250000000e-01,6.038818359375000000e-01
-3.000000000000000000e+00,4.000000000000000000e+00,6.000000000000000000e+00,1.600000000000000000e+01,6.000000000000000000e+00,7.000000000000000000e+00,-2.000000000000000000e+00,-1.000000000000000000e+00,-2.913818359375000000e-01,1.708374023437500000e-01,7.219238281250000000e-01,6.038818359375000000e-01
-1.000000000000000000e+00,7.000000000000000000e+00,-2.600000000000000000e+01,-1.400000000000000000e+01,-1.000000000000000000e+00,7.000000000000000000e+00,7.000000000000000000e+00,3.000000000000000000e+00,-2.913818359375000000e-01,1.708374023437500000e-01,7.219238281250000000e-01,6.038818359375000000e-01
-5.000000000000000000e+00,-1.700000000000000000e+01,1.400000000000000000e+01,-6.000000000000000000e+00,-7.000000000000000000e+00,-8.000000000000000000e+00,-4.000000000000000000e+00,-5.000000000000000000e+00,-2.920532226562500000e-01,1.732788085937500000e-01,7.214965820312500000e-01,6.033325195312500000e-01
2.000000000000000000e+00,0.000000000000000000e+00,-4.000000000000000000e+00,-1.000000000000000000e+00,5.000000000000000000e+00,1.000000000000000000e+01,4.000000000000000000e+00,3.000000000000000000e+00,-2.920532226562500000e-01,1.732788085937500000e-01,7.214965820312500000e-01,6.033325195312500000e-01
-5.000000000000000000e+00,4.000000000000000000e+00,5.000000000000000000e+00,1.200000000000000000e+01,0.000000000000000000e+00,1.000000000000000000e+00,3.000000000000000000e+00,-5.000000000000000000e+00,-2.920532226562500000e-01,1.732788085937500000e-01,7.214965820312500000e-01,6.033325195312500000e-01
1.000000000000000000e+00,1.000000000000000000e+00,1.800000000000000000e+01,-2.000000000000000000e+00,2.000000000000000000e+00,2.000000000000000000e+00,2.000000000000000000e+00,2.000000000000000000e+00,-2.920532226562500000e-01,1.732788085937500000e-01,7.214965820312500000e-01,6.033325195312500000e-01
-4.000000000000000000e+00,-2.000000000000000000e+00,-4.200000000000000000e+01,-2.000000000000000000e+01,-1.000000000000000000e+00,-2.000000000000000000e+00,-1.700000000000000000e+01,-1.000000000000000000e+00,-2.935791015625000000e-01,1.741943359375000000e-01,7.214355468750000000e-01,6.024169921875000000e-01
-1.000000000000000000e+00,9.000000000000000000e+00,2.400000000000000000e+01,4.500000000000000000e+01,5.000000000000000000e+00,-7.000000000000000000e+00,1.600000000000000000e+01,1.000000000000000000e+00,-2.935791015625000000e-01,1.741943359375000000e-01,7.214355468750000000e-01,6.024169921875000000e-01
-2.000000000000000000e+00,-1.200000000000000000e+01,-9.000000000000000000e+00,-8.000000000000000000e+00,1.000000000000000000e+00,1.300000000000000000e+01,1.000000000000000000e+01,0.000000000000000000e+00,-2.935791015625000000e-01,1.741943359375000000e-01,7.214355468750000000e-01,6.024169921875000000e-01
-1.000000000000000000e+00,1.100000000000000000e+01,5.000000000000000000e+00,-1.200000000000000000e+01,-1.000000000000000000e+00,-1.100000000000000000e+01,-5.000000000000000000e+00,-2.000000000000000000e+00,-2.935791015625000000e-01,1.741943359375000000e-01,7.214355468750000000e-01,6.024169921875000000e-01
2.000000000000000000e+00,6.000000000000000000e+00,5.000000000000000000e+00,-1.000000000000000000e+00,-4.000000000000000000e+00,-7.000000000000000000e+00,-3.000000000000000000e+00,-2.000000000000000000e+00,-2.949218750000000000e-01,1.729736328125000000e-01,7.212524414062500000e-01,6.023559570312500000e-01
-3.000000000000000000e+00,-1.000000000000000000e+01,-8.000000000000000000e+00,-2.000000000000000000e+00,-7.000000000000000000e+00,-2.900000000000000000e+01,-3.500000000000000000e+01,-8.000000000000000000e+00,-2.949218750000000000e-01,1.729736328125000000e-01,7.212524414062500000e-01,6.023559570312500000e-01
3.000000000000000000e+00,-5.000000000000000000e+00,8.000000000000000000e+00,7.000000000000000000e+00,1.400000000000000000e+01,7.100000000000000000e+01,5.400000000000000000e+01,9.000000000000000000e+00,-2.949218750000000000e-01,1.729736328125000000e-01,7.212524414062500000e-01,6.023559570312500000e-01
1.000000000000000000e+00,1.200000000000000000e+01,-6.000000000000000000e+00,-5.000000000000000000e+00,-4.000000000000000000e+00,-7.000000000000000000e+00,-8.000000000000000000e+00,-2.000000000000000000e+00,-2.949218750000000000e-01,1.729736328125000000e-01,7.212524414062500000e-01,6.023559570312500000e-01
-1.400000000000000000e+01,-1.000000000000000000e+00,7.000000000000000000e+00,3.000000000000000000e+00,-2.000000000000000000e+00,-1.200000000000000000e+01,-7.000000000000000000e+00,-5.000000000000000000e+00,-2.949829101562500000e-01,1.716308593750000000e-01,7.210083007812500000e-01,6.029663085937500000e-01
1.400000000000000000e+01,-6.000000000000000000e+00,4.000000000000000000e+00,-1.000000000000000000e+01,-3.000000000000000000e+00,-8.000000000000000000e+00,-3.000000000000000000e+00,2.000000000000000000e+00,-2.949829101562500000e-01,1.716308593750000000e-01,7.210083007812500000e-01,6.029663085937500000e-01
-1.000000000000000000e+00,3.000000000000000000e+00,2.000000000000000000e+00,9.000000000000000000e+00,-3.000000000000000000e+00,-1.300000000000000000e+01,-6.000000000000000000e+00,-1.000000000000000000e+00,-2.949829101562500000e-01,1.716308593750000000e-01,7.210083007812500000e-01,6.029663085937500000e-01
-7.000000000000000000e+00,-2.000000000000000000e+00,-7.000000000000000000e+00,-9.000000000000000000e+00,0.000000000000000000e+00,7.000000000000000000e+00,-3.000000000000000000e+00,1.000000000000000000e+00,-2.949829101562500000e-01,1.716308593750000000e-01,7.210083007812500000e-01,6.029663085937500000e-01
1.000000000000000000e+01,0.000000000000000000e+00,9.000000000000000000e+00,8.000000000000000000e+00,6.000000000000000000e+00,1.100000000000000000e+01,1.200000000000000000e+01,-1.000000000000000000e+00,-2.944946289062500000e-01,1.710815429687500000e-01,7.208862304687500000e-01,6.035766601562500000e-01
-1.000000000000000000e+00,-8.000000000000000000e+00,-1.000000000000000000e+01,-8.000000000000000000e+00,0.000000000000000000e+00,1.000000000000000000e+01,8.000000000000000000e+00,1.000000000000000000e+00,-2.944946289062500000e-01,1.710815429687500000e-01,7.208862304687500000e-01,6.035766601562500000e-01
1.000000000000000000e+00,8.000000000000000000e+00,1.000000000000000000e+00,6.000000000000000000e+00,1.000000000000000000e+00,-9.000000000000000000e+00,-8.000000000000000000e+00,-4.000000000000000000e+00,-2.944946289062500000e-01,1.710815429687500000e-01,7.208862304687500000e-01,6.035766601562500000e-01
-8.000000000000000000e+00,-1.500000000000000000e+01,-7.000000000000000000e+00,-1.100000000000000000e+01,-2.000000000000000000e+00,5.000000000000000000e+00,1.000000000000000000e+00,1.000000000000000000e+00,-2.944946289062500000e-01,1.710815429687500000e-01,7.208862304687500000e-01,6.035766601562500000e-01
-5.000000000000000000e+00,-1.200000000000000000e+01,2.000000000000000000e+00,0.000000000000000000e+00,-3.000000000000000000e+00,-1.000000000000000000e+01,-1.100000000000000000e+01,-4.000000000000000000e+00,-2.932739257812500000e-01,1.715087890625000000e-01,7.210083007812500000e-01,6.038818359375000000e-01
-4.000000000000000000e+00,2.000000000000000000e+00,-1.100000000000000000e+01,-9.000000000000000000e+00,2.000000000000000000e+00,1.300000000000000000e+01,1.000000000000000000e+01,1.000000000000000000e+00,-2.932739257812500000e-01,1.715087890625000000e-01,7.210083007812500000e-01,6.038818359375000000e-01
-5.000000000000000000e+00,-6.000000000000000000e+00,1.300000000000000000e+01,6.000000000000000000e+00,-3.000000000000000000e+00,-9.000000000000000000e+00,-5.000000000000000000e+00,-2.000000000000000000e+00,-2.932739257812500000e-01,1.715087890625000000e-01,7.210083007812500000e-01,6.038818359375000000e-01
-1.000000000000000000e+00,-1.000000000000000000e+00,1.300000000000000000e+01,4.000000000000000000e+00,-2.000000000000000000e+00,-1.500000000000000000e+01,-1.200000000000000000e+01,-4.000000000000000000e+00,-2.932739257812500000e-01,1.715087890625000000e-01,7.210083007812500000e-01,6.038818359375000000e-01
0.000000000000000000e+00,7.000000000000000000e+00,-3.000000000000000000e+00,5.000000000000000000e+00,-2.000000000000000000e+00,-3.000000000000000000e+00,0.000000000000000000e+00,0.000000000000000000e+00,-2.932739257812500000e-01,1.707763671875000000e-01,7.214355468750000000e-01,6.035766601562500000e-01
-5.000000000000000000e+00,-8.000000000000000000e+00,-3.900000000000000000e+01,-2.300000000000000000e+01,2.000000000000000000e+00,1.100000000000000000e+01,3.000000000000000000e+00,-1.000000000000000000e+00,-2.932739257812500000e-01,1.707763671875000000e-01,7.214355468750000000e-01,6.035766601562500000e-01
3.000000000000000000e+00,-1.000000000000000000e+00,1.300000000000000000e+01,-8.000000000000000000e+00,-3.000000000000000000e+00,-1.300000000000000000e+01,-1.300000000000000000e+01,-2.000000000000000000e+00,-2.932739257812500000e-01,1.707763671875000000e-01,7.214355468750000000e-01,6.035766601562500000e-01
5.000000000000000000e+00,3.000000000000000000e+00,2.000000000000000000e+00,1.300000000000000000e+01,6.000000000000000000e+00,4.000000000000000000e+00,6.000000000000000000e+00,3.000000000000000000e+00,-2.932739257812500000e-01,1.707763671875000000e-01,7.214355468750000000e-01,6.035766601562500000e-01
-5.000000000000000000e+00,-8.000000000000000000e+00,-2.300000000000000000e+01,-2.000000000000000000e+00,0.000000000000000000e+00,0.000000000000000000e+00,4.000000000000000000e+00,1.000000000000000000e+00,-2.933959960937500000e-01,1.696166992187500000e-01,7.218627929687500000e-01,6.033325195312500000e-01
1.000000000000000000e+00,1.000000000000000000e+01,1.400000000000000000e+01,9.000000000000000000e+00,0.000000000000000000e+00,4.000000000000000000e+00,-1.000000000000000000e+00,-1.000000000000000000e+00,-2.933959960937500000e-01,1.696166992187500000e-01,7.218627929687500000e-01,6.033325195312500000e-01
-7.000000000000000000e+00,-6.000000000000000000e+00,-1.000000000000000000e+01,-5.000000000000000000e+00,-3.000000000000000000e+00,-1.500000000000000000e+01,-8.000000000000000000e+00,-4.000000000000000000e+00,-2.933959960937500000e-01,1.696166992187500000e-01,7.218627929687500000e-01,6.033325195312500000e-01
-2.000000000000000000e+00,0.000000000000000000e+00,-1.200000000000000000e+01,2.000000000000000000e+00,-2.000000000000000000e+00,-2.900000000000000000e+01,-9.000000000000000000e+00,-5.000000000000000000e+00,-2.933959960937500000e-01,1.696166992187500000e-01,7.218627929687500000e-01,6.033325195312500000e-01
-4.000000000000000000e+00,8.000000000000000000e+00,4.000000000000000000e+00,-3.000000000000000000e+00,5.000000000000000000e+00,5.200000000000000000e+01,1.500000000000000000e+01,1.000000000000000000e+00,-2.929687500000000000e-01,1.682739257812500000e-01,7.221679687500000000e-01,6.035766601562500000e-01
5.000000000000000000e+00,-4.000000000000000000e+00,0.000000000000000000e+00,1.000000000000000000e+00,-6.000000000000000000e+00,-1.200000000000000000e+01,-1.200000000000000000e+01,3.000000000000000000e+00,-2.929687500000000000e-01,1.682739257812500000e-01,7.221679687500000000e-01,6.035766601562500000e-01
-1.000000000000000000e+00,-6.000000000000000000e+00,-6.000000000000000000e+00,-7.000000000000000000e+00,-4.000000000000000000e+00,6.000000000000000000e+00,1.800000000000000000e+01,2.000000000000000000e+00,-2.929687500000000000e-01,1.682739257812500000e-01,7.221679687500000000e-01,6.035766601562500000e-01
-1.000000000000000000e+00,1.100000000000000000e+01,9.000000000000000000e+00,-1.000000000000000000e+00,1.000000000000000000e+00,3.000000000000000000e+00,-8.000000000000000000e+00,-3.000000000000000000e+00,-2.929687500000000000e-01,1.682739257812500000e-01,7.221679687500000000e-01,6.035766601562500000e-01
-7.000000000000000000e+00,-1.600000000000000000e+01,-8.000000000000000000e+00,2.000000000000000000e+00,-6.000000000000000000e+00,-2.600000000000000000e+01,-6.000000000000000000e+00,-4.000000000000000000e+00,-2.919311523437500000e-01,1.672363281250000000e-01,7.220458984375000000e-01,6.044311523437500000e-01
1.600000000000000000e+01,-1.000000000000000000e+00,-1.000000000000000000e+00,-1.000000000000000000e+00,2.000000000000000000e+00,1.600000000000000000e+01,-1.200000000000000000e+01,1.000000000000000000e+00,-2.919311523437500000e-01,1.672363281250000000e-01,7.220458984375000000e-01,6.044311523437500000e-01
-2.100000000000000000e+01,-1.000000000000000000e+00,4.000000000000000000e+00,7.000000000000000000e+00,-2.000000000000000000e+00,-1.200000000000000000e+01,-1.000000000000000000e+01,-3.000000000000000000e+00,-2.919311523437500000e-01,1.672363281250000000e-01,7.220458984375000000e-01,6.044311523437500000e-01
1.500000000000000000e+01,1.300000000000000000e+01,4.000000000000000000e+00,-1.000000000000000000e+00,-1.000000000000000000e+00,5.000000000000000000e+00,2.500000000000000000e+01,8.000000000000000000e+00,-2.919311523437500000e-01,1.672363281250000000e-01,7.220458984375000000e-01,6.044311523437500000e-01
-7.000000000000000000e+00,-1.000000000000000000e+01,2.000000000000000000e+00,-3.000000000000000000e+00,-2.000000000000000000e+00,-1.900000000000000000e+01,-2.400000000000000000e+01,-5.000000000000000000e+00,-2.913818359375000000e-01,1.664428710937500000e-01,7.221679687500000000e-01,6.047973632812500000e-01
-8.000000000000000000e+00,1.000000000000000000e+01,1.300000000000000000e+01,-3.000000000000000000e+00,1.000000000000000000e+00,6.000000000000000000e+00,7.000000000000000000e+00,-6.000000000000000000e+00,-2.913818359375000000e-01,1.664428710937500000e-01,7.221679687500000000e-01,6.047973632812500000e-01
1.000000000000000000e+00,-1.000000000000000000e+00,-1.500000000000000000e+01,-8.000000000000000000e+00,-7.000000000000000000e+00,-1.400000000000000000e+01,-4.000000000000000000e+00,0.000000000000000000e+00,-2.913818359375000000e-01,1.664428710937500000e-01,7.221679687500000000e-01,6.047973632812500000e-01
-4.000000000000000000e+00,-1.100000000000000000e+01,-6.000000000000000000e+00,-5.000000000000000000e+00,-7.000000000000000000e+00,-3.000000000000000000e+00,-1.500000000000000000e+01,-2.000000000000000000e+00,-2.913818359375000000e-01,1.664428710937500000e-01,7.221679687500000000e-01,6.047973632812500000e-01
-3.000000000000000000e+00,-1.600000000000000000e+01,7.000000000000000000e+00,2.000000000000000000e+01,4.000000000000000000e+00,-1.000000000000000000e+00,-3.000000000000000000e+00,4.000000000000000000e+00,-2.916259765625000000e-01,1.661987304687500000e-01,7.223510742187500000e-01,6.044921875000000000e-01
5.000000000000000000e+00,-1.900000000000000000e+01,-1.000000000000000000e+01,-1.400000000000000000e+01,-1.000000000000000000e+01,-1.400000000000000000e+01,1.000000000000000000e+00,-6.000000000000000000e+00,-2.916259765625000000e-01,1.661987304687500000e-01,7.223510742187500000e-01,6.044921875000000000e-01
1.000000000000000000e+01,1.600000000000000000e+01,2.000000000000000000e+01,3.000000000000000000e+00,-1.000000000000000000e+00,2.000000000000000000e+00,-8.000000000000000000e+00,-5.000000000000000000e+00,-2.916259765625000000e-01,1.661987304687500000e-01,7.223510742187500000e-01,6.044921875000000000e-01
-1.000000000000000000e+00,-1.400000000000000000e+01,-2.200000000000000000e+01,4.000000000000000000e+00,0.000000000000000000e+00,1.400000000000000000e+01,8.000000000000000000e+00,1.000000000000000000e+00,-2.916259765625000000e-01,1.661987304687500000e-01,7.223510742187500000e-01,6.044921875000000000e-01
6.000000000000000000e+00,1.300000000000000000e+01,1.200000000000000000e+01,-1.000000000000000000e+01,-5.000000000000000000e+00,-1.000000000000000000e+00,1.000000000000000000e+00,1.000000000000000000e+00,-2.924804687500000000e-01,1.661376953125000000e-01,7.222290039062500000e-01,6.043090820312500000e-01
-1.000000000000000000e+01,-1.000000000000000000e+00,0.000000000000000000e+00,8.000000000000000000e+00,0.000000000000000000e+00,-1.000000000000000000e+00,3.000000000000000000e+00,-2.000000000000000000e+00,-2.924804687500000000e-01,1.661376953125000000e-01,7.222290039062500000e-01,6.043090820312500000e-01
-6.000000000000000000e+00,-7.000000000000000000e+00,-8.000000000000000000e+00,-1.400000000000000000e+01,-1.000000000000000000e+00,-9.000000000000000000e+00,-1.400000000000000000e+01,-3.000000000000000000e+00,-2.924804687500000000e-01,1.661376953125000000e-01,7.222290039062500000e-01,6.043090820312500000e-01
-2.000000000000000000e+00,-6.000000000000000000e+00,3.000000000000000000e+00,1.000000000000000000e+01,6.000000000000000000e+00,9.000000000000000000e+00,-3.000000000000000000e+00,-4.000000000000000000e+00,-2.924804687500000000e-01,1.661376953125000000e-01,7.222290039062500000e-01,6.043090820312500000e-01
1.100000000000000000e+01,1.500000000000000000e+01,-2.000000000000000000e+00,-5.000000000000000000e+00,-3.000000000000000000e+00,-9.000000000000000000e+00,9.000000000000000000e+00,1.000000000000000000e+00,-2.929687500000000000e-01,1.662597656250000000e-01,7.219848632812500000e-01,6.043090820312500000e-01
-1.000000000000000000e+01,0.000000000000000000e+00,1.900000000000000000e+01,1.400000000000000000e+01,3.000000000000000000e+00,-2.000000000000000000e+00,-1.000000000000000000e+01,-3.000000000000000000e+00,-2.929687500000000000e-01,1.662597656250000000e-01,7.219848632812500000e-01,6.043090820312500000e-01
3.000000000000000000e+00,3.000000000000000000e+00,7.000000000000000000e+00,5.000000000000000000e+00,5.000000000000000000e+00,5.000000000000000000e+00,-4.000000000000000000e+00,0.000000000000000000e+00,-2.929687500000000000e-01,1.662597656250000000e-01,7.219848632812500000e-01,6.043090820312500000e-01
1.000000000000000000e+00,0.000000000000000000e+00,-5.000000000000000000e+00,-1.100000000000000000e+01,-3.000000000000000000e+00,-3.000000000000000000e+00,1.400000000000000000e+01,1.000000000000000000e+00,-2.929687500000000000e-01,1.662597656250000000e-01,7.219848632812500000e-01,6.043090820312500000e-01
1.000000000000000000e+00,0.000000000000000000e+00,-1.000000000000000000e+00,-8.000000000000000000e+00,-2.000000000000000000e+00,-1.100000000000000000e+01,-1.600000000000000000e+01,-4.000000000000000000e+00,-2.929077148437500000e-01,1.666870117187500000e-01,7.216796875000000000e-01,6.046142578125000000e-01
-6.000000000000000000e+00,4.000000000000000000e+00,1.300000000000000000e+01,2.000000000000000000e+00,1.000000000000000000e+00,-5.000000000000000000e+00,-3.000000000000000000e+00,1.000000000000000000e+00,-2.929077148437500000e-01,1.666870117187500000e-01,7.216796875000000000e-01,6.046142578125000000e-01
-3.000000000000000000e+00,-5.000000000000000000e+00,-1.200000000000000000e+01,-2.000000000000000000e+00,2.000000000000000000e+00,1.000000000000000000e+01,4.000000000000000000e+00,-2.000000000000000000e+00,-2.929077148437500000e-01,1.666870117187500000e-01,7.216796875000000000e-01,6.046142578125000000e-01
1.000000000000000000e+00,-8.000000000000000000e+00,1.200000000000000000e+01,-4.000000000000000000e+00,-1.000000000000000000e+00,-1.000000000000000000e+00,-2.000000000000000000e+00,0.000000000000000000e+00,-2.929077148437500000e-01,1.666870117187500000e-01,7.216796875000000000e-01,6.046142578125000000e-01
1.000000000000000000e+00,2.400000000000000000e+01,-2.000000000000000000e+00,4.000000000000000000e+00,-1.000000000000000000e+00,-1.000000000000000000e+00,-5.000000000000000000e+00,-4.000000000000000000e+00,-2.932739257812500000e-01,1.667480468750000000e-01,7.214355468750000000e-01,6.046752929687500000e-01
-3.000000000000000000e+00,-7.000000000000000000e+00,-1.100000000000000000e+01,-7.000000000000000000e+00,-3.000000000000000000e+00,1.000000000000000000e+00,7.000000000000000000e+00,-1.000000000000000000e+00,-2.932739257812500000e-01,1.667480468750000000e-01,7.214355468750000000e-01,6.046752929687500000e-01
3.000000000000000000e+00,-7.000000000000000000e+00,-2.000000000000000000e+00,7.000000000000000000e+00,1.000000000000000000e+00,6.000000000000000000e+00,-3.000000000000000000e+00,-1.000000000000000000e+00,-2.932739257812500000e-01,1.667480468750000000e-01,7.214355468750000000e-01,6.046752929687500000e-01
-2.000000000000000000e+00,2.000000000000000000e+00,5.000000000000000000e+00,0.000000000000000000e+00,-1.000000000000000000e+00,-2.000000000000000000e+00,7.000000000000000000e+00,0.000000000000000000e+00,-2.932739257812500000e-01,1.667480468750000000e-01,7.214355468750000000e-01,6.046752929687500000e-01
9.000000000000000000e+00,-1.000000000000000000e+00,-2.000000000000000000e+01,-3.000000000000000000e+00,2.000000000000000000e+00,3.000000000000000000e+00,3.000000000000000000e+00,0.000000000000000000e+00,-2.941894531250000000e-01,1.659545898437500000e-01,7.210083007812500000e-01,6.049804687500000000e-01
-1.700000000000000000e+01,-2.000000000000000000e+00,3.000000000000000000e+00,-5.000000000000000000e+00,-4.000000000000000000e+00,0.000000000000000000e+00,1.000000000000000000e+00,1.000000000000000000e+00,-2.941894531250000000e-01,1.659545898437500000e-01,7.210083007812500000e-01,6.049804687500000000e-01
6.000000000000000000e+00,2.000000000000000000e+00,-3.000000000000000000e+00,1.100000000000000000e+01,3.000000000000000000e+00,5.000000000000000000e+00,8.000000000000000000e+00,0.000000000000000000e+00,-2.941894531250000000e-01,1.659545898437500000e-01,7.210083007812500000e-01,6.049804687500000000e-01
-5.000000000000000000e+00,-1.000000000000000000e+00,3.000000000000000000e+00,-7.000000000000000000e+00,-1.000000000000000000e+00,-5.000000000000000000e+00,-4.000000000000000000e+00,-3.000000000000000000e+00,-2.941894531250000000e-01,1.659545898437500000e-01,7.210083007812500000e-01,6.049804687500000000e-01
2.000000000000000000e+00,-3.000000000000000000e+00,6.000000000000000000e+00,1.000000000000000000e+00,0.000000000000000000e+00,9.000000000000000000e+00,9.000000000000000000e+00,2.000000000000000000e+00,-2.954101562500000000e-01,1.652832031250000000e-01,7.203979492187500000e-01,6.052856445312500000e-01
3.000000000000000000e+00,3.000000000000000000e+00,-4.000000000000000000e+00,-6.000000000000000000e+00,-2.000000000000000000e+00,2.000000000000000000e+00,5.000000000000000000e+00,-2.000000000000000000e+00,-2.954101562500000000e-01,1.652832031250000000e-01,7.203979492187500000e-01,6.052856445312500000e-01
-7.000000000000000000e+00,-1.100000000000000000e+01,1.000000000000000000e+00,-6.000000000000000000e+00,-5.000000000000000000e+00,-1.500000000000000000e+01,3.000000000000000000e+00,-1.000000000000000000e+00,-2.954101562500000000e-01,1.652832031250000000e-01,7.203979492187500000e-01,6.052856445312500000e-01
-1.000000000000000000e+00,6.000000000000000000e+00,3.000000000000000000e+00,3.000000000000000000e+00,8.000000000000000000e+00,3.400000000000000000e+01,-7.000000000000000000e+00,-1.000000000000000000e+00,-2.954101562500000000e-01,1.652832031250000000e-01,7.203979492187500000e-01,6.052856445312500000e-01
0.000000000000000000e+00,1.400000000000000000e+01,-1.200000000000000000e+01,4.000000000000000000e+00,-2.000000000000000000e+00,-4.000000000000000000e+00,-9.000000000000000000e+00,0.000000000000000000e+00,-2.966308593750000000e-01,1.652832031250000000e-01,7.192382812500000000e-01,6.060791015625000000e-01
1.000000000000000000e+00,-1.100000000000000000e+01,1.400000000000000000e+01,-4.000000000000000000e+00,2.000000000000000000e+00,2.000000000000000000e+01,5.000000000000000000e+00,1.000000000000000000e+00,-2.966308593750000000e-01,1.652832031250000000e-01,7.192382812500000000e-01,6.060791015625000000e-01
-4.000000000000000000e+00,5.000000000000000000e+00,-6.000000000000000000e+00,-1.000000000000000000e+00,-8.000000000000000000e+00,-2.700000000000000000e+01,-2.900000000000000000e+01,-4.000000000000000000e+00,-2.966308593750000000e-01,1.652832031250000000e-01,7.192382812500000000e-01,6.060791015625000000e-01
-4.000000000000000000e+00,-1.400000000000000000e+01,-3.000000000000000000e+00,1.300000000000000000e+01,0.000000000000000000e+00,1.100000000000000000e+01,1.100000000000000000e+01,1.000000000000000000e+00,-2.966308593750000000e-01,1.652832031250000000e-01,7.192382812500000000e-01,6.060791015625000000e-01
3.000000000000000000e+00,-8.000000000000000000e+00,1.400000000000000000e+01,-7.000000000000000000e+00,0.000000000000000000e+00,-5.000000000000000000e+00,-8.000000000000000000e+00,2.000000000000000000e+00,-2.974243164062500000e-01,1.657714843750000000e-01,7.178344726562500000e-01,6.071777343750000000e-01
4.000000000000000000e+00,-3.000000000000000000e+00,-5.000000000000000000e+00,0.000000000000000000e+00,0.000000000000000000e+00,0.000000000000000000e+00,0.000000000000000000e+00,6.000000000000000000e+00,-2.974243164062500000e-01,1.657714843750000000e-01,7.178344726562500000e-01,6.071777343750000000e-01
1.000000000000000000e+00,4.000000000000000000e+00,0.000000000000000000e+00,-1.000000000000000000e+01,-3.000000000000000000e+00,-1.100000000000000000e+01,-8.000000000000000000e+00,-8.000000000000000000e+00,-2.974243164062500000e-01,1.657714843750000000e-01,7.178344726562500000e-01,6.071777343750000000e-01
0.000000000000000000e+00,1.000000000000000000e+00,-8.000000000000000000e+00,5.000000000000000000e+00,1.000000000000000000e+00,1.100000000000000000e+01,1.700000000000000000e+01,2.000000000000000000e+00,-2.974243164062500000e-01,1.657714843750000000e-01,7.178344726562500000e-01,6.071777343750000000e-01
-4.000000000000000000e+00,-2.000000000000000000e+00,4.000000000000000000e+00,6.000000000000000000e+00,-2.000000000000000000e+00,8.000000000000000000e+00,3.000000000000000000e+00,-3.000000000000000000e+00,-2.979125976562500000e-01,1.664428710937500000e-01,7.165527343750000000e-01,6.082763671875000000e-01
-1.700000000000000000e+01,-1.000000000000000000e+00,3.000000000000000000e+00,-4.000000000000000000e+00,-3.000000000000000000e+00,-1.100000000000000000e+01,3.000000000000000000e+00,0.000000000000000000e+00,-2.979125976562500000e-01,1.664428710937500000e-01,7.165527343750000000e-01,6.082763671875000000e-01
1.200000000000000000e+01,0.000000000000000000e+00,-8.000000000000000000e+00,-6.000000000000000000e+00,-9.000000000000000000e+00,-1.300000000000000000e+01,-2.000000000000000000e+00,1.000000000000000000e+00,-2.979125976562500000e-01,1.664428710937500000e-01,7.165527343750000000e-01,6.082763671875000000e-01
-2.000000000000000000e+00,6.000000000000000000e+00,1.700000000000000000e+01,1.000000000000000000e+00,2.000000000000000000e+00,-4.000000000000000000e+00,-4.000000000000000000e+00,-5.000000000000000000e+00,-2.979125976562500000e-01,1.664428710937500000e-01,7.165527343750000000e-01,6.082763671875000000e-01
