5.000000000000000000e+00,-2.000000000000000000e+00,-2.700000000000000000e+01,-1.800000000000000000e+01,0.000000000000000000e+00,4.000000000000000000e+00,1.000000000000000000e+00,2.000000000000000000e+00,-3.516235351562500000e-01,3.647460937500000000e-01,5.233764648437500000e-01,6.850585937500000000e-01
-3.000000000000000000e+00,3.000000000000000000e+00,2.500000000000000000e+01,4.000000000000000000e+00,-4.000000000000000000e+00,-3.000000000000000000e+00,-1.000000000000000000e+00,3.000000000000000000e+00,-3.516235351562500000e-01,3.647460937500000000e-01,5.233764648437500000e-01,6.850585937500000000e-01
-1.500000000000000000e+01,-8.000000000000000000e+00,-2.600000000000000000e+01,2.000000000000000000e+00,-3.000000000000000000e+00,2.000000000000000000e+00,0.000000000000000000e+00,-5.000000000000000000e+00,-3.499145507812500000e-01,3.656616210937500000e-01,5.239257812500000000e-01,6.850585937500000000e-01
-1.300000000000000000e+01,-3.000000000000000000e+00,-3.100000000000000000e+01,9.000000000000000000e+00,3.000000000000000000e+00,-2.000000000000000000e+00,-2.000000000000000000e+00,-3.000000000000000000e+00,-3.499145507812500000e-01,3.656616210937500000e-01,5.239257812500000000e-01,6.850585937500000000e-01
3.000000000000000000e+00,4.000000000000000000e+00,6.000000000000000000e+00,-2.600000000000000000e+01,-1.000000000000000000e+00,2.000000000000000000e+00,2.000000000000000000e+00,1.000000000000000000e+00,-3.499145507812500000e-01,3.656616210937500000e-01,5.239257812500000000e-01,6.850585937500000000e-01
-4.000000000000000000e+00,-1.000000000000000000e+00,-7.000000000000000000e+00,6.000000000000000000e+00,0.000000000000000000e+00,-2.000000000000000000e+00,-6.000000000000000000e+00,8.000000000000000000e+00,-3.499145507812500000e-01,3.656616210937500000e-01,5.239257812500000000e-01,6.850585937500000000e-01
9.000000000000000000e+00,5.000000000000000000e+00,8.000000000000000000e+00,3.000000000000000000e+00,1.000000000000000000e+00,2.000000000000000000e+00,2.000000000000000000e+00,-5.000000000000000000e+00,-3.477172851562500000e-01,3.677978515625000000e-01,5.237426757812500000e-01,6.851196289062500000e-01
4.000000000000000000e+00,-9.000000000000000000e+00,-3.100000000000000000e+01,1.100000000000000000e+01,1.000000000000000000e+00,4.000000000000000000e+00,8.000000000000000000e+00,1.700000000000000000e+01,-3.477172851562500000e-01,3.677978515625000000e-01,5.237426757812500000e-01,6.851196289062500000e-01
-2.000000000000000000e+01,-6.000000000000000000e+00,-1.300000000000000000e+01,-7.000000000000000000e+00,-3.000000000000000000e+00,-6.000000000000000000e+00,-9.000000000000000000e+00,-2.100000000000000000e+01,-3.477172851562500000e-01,3.677978515625000000e-01,5.237426757812500000e-01,6.851196289062500000e-01
1.500000000000000000e+01,3.000000000000000000e+00,1.300000000000000000e+01,-5.000000000000000000e+00,-2.000000000000000000e+00,7.000000000000000000e+00,9.000000000000000000e+00,2.000000000000000000e+00,-3.477172851562500000e-01,3.677978515625000000e-01,5.237426757812500000e-01,6.851196289062500000e-01
1.800000000000000000e+01,-1.000000000000000000e+00,-7.000000000000000000e+00,1.800000000000000000e+01,5.000000000000000000e+00,3.000000000000000000e+00,-1.000000000000000000e+00,-6.000000000000000000e+00,-3.457641601562500000e-01,3.704833984375000000e-01,5.234375000000000000e-01,6.849365234375000000e-01
-2.500000000000000000e+01,-1.000000000000000000e+00,1.300000000000000000e+01,2.100000000000000000e+01,4.000000000000000000e+00,2.000000000000000000e+00,-2.000000000000000000e+00,1.000000000000000000e+00,-3.457641601562500000e-01,3.704833984375000000e-01,5.234375000000000000e-01,6.849365234375000000e-01
2.100000000000000000e+01,1.000000000000000000e+00,-1.200000000000000000e+01,-4.600000000000000000e+01,-8.000000000000000000e+00,-8.000000000000000000e+00,-5.000000000000000000e+00,3.000000000000000000e+00,-3.457641601562500000e-01,3.704833984375000000e-01,5.234375000000000000e-01,6.849365234375000000e-01
-8.000000000000000000e+00,-3.000000000000000000e+00,-5.000000000000000000e+00,-1.600000000000000000e+01,-4.000000000000000000e+00,-3.000000000000000000e+00,1.000000000000000000e+00,-2.000000000000000000e+00,-3.457641601562500000e-01,3.704833984375000000e-01,5.234375000000000000e-01,6.849365234375000000e-01
0.000000000000000000e+00,-1.000000000000000000e+00,8.000000000000000000e+00,1.500000000000000000e+01,1.000000000000000000e+00,-1.000000000000000000e+00,-2.000000000000000000e+00,2.000000000000000000e+00,-3.446044921875000000e-01,3.724975585937500000e-01,5.235595703125000000e-01,6.843261718750000000e-01
1.000000000000000000e+00,2.000000000000000000e+00,-3.400000000000000000e+01,-7.000000000000000000e+00,-2.000000000000000000e+00,-3.000000000000000000e+00,-1.000000000000000000e+00,-3.000000000000000000e+00,-3.446044921875000000e-01,3.724975585937500000e-01,5.235595703125000000e-01,6.843261718750000000e-01
1.000000000000000000e+00,-3.000000000000000000e+00,-5.000000000000000000e+00,1.300000000000000000e+01,8.000000000000000000e+00,7.000000000000000000e+00,1.000000000000000000e+00,4.000000000000000000e+00,-3.446044921875000000e-01,3.724975585937500000e-01,5.235595703125000000e-01,6.843261718750000000e-01
-1.000000000000000000e+00,-3.000000000000000000e+00,0.000000000000000000e+00,0.000000000000000000e+00,-4.000000000000000000e+00,-5.000000000000000000e+00,-6.000000000000000000e+00,-8.000000000000000000e+00,-3.446044921875000000e-01,3.724975585937500000e-01,5.235595703125000000e-01,6.843261718750000000e-01
-5.000000000000000000e+00,-1.000000000000000000e+00,7.000000000000000000e+00,-1.000000000000000000e+01,-2.000000000000000000e+00,-1.000000000000000000e+00,2.000000000000000000e+00,2.000000000000000000e+00,-3.446655273437500000e-01,3.735961914062500000e-01,5.237426757812500000e-01,6.835327148437500000e-01
2.000000000000000000e+00,0.000000000000000000e+00,1.300000000000000000e+01,2.300000000000000000e+01,-1.000000000000000000e+00,-3.000000000000000000e+00,-8.000000000000000000e+00,-6.000000000000000000e+00,-3.446655273437500000e-01,3.735961914062500000e-01,5.237426757812500000e-01,6.835327148437500000e-01
-6.000000000000000000e+00,-3.000000000000000000e+00,-1.100000000000000000e+01,4.000000000000000000e+00,-1.000000000000000000e+00,0.000000000000000000e+00,3.000000000000000000e+00,3.000000000000000000e+00,-3.446655273437500000e-01,3.735961914062500000e-01,5.237426757812500000e-01,6.835327148437500000e-01
1.000000000000000000e+01,2.000000000000000000e+00,3.000000000000000000e+00,-1.400000000000000000e+01,-2.000000000000000000e+00,1.000000000000000000e+00,-1.000000000000000000e+00,-2.000000000000000000e+00,-3.446655273437500000e-01,3.735961914062500000e-01,5.237426757812500000e-01,6.835327148437500000e-01
-2.300000000000000000e+01,-1.300000000000000000e+01,-1.800000000000000000e+01,-1.900000000000000000e+01,-5.000000000000000000e+00,-1.000000000000000000e+00,0.000000000000000000e+00,-1.000000000000000000e+00,-3.452148437500000000e-01,3.746337890625000000e-01,5.231933593750000000e-01,6.831054687500000000e-01
1.200000000000000000e+01,1.000000000000000000e+00,-3.000000000000000000e+00,-2.500000000000000000e+01,-6.000000000000000000e+00,-4.000000000000000000e+00,-3.000000000000000000e+00,2.000000000000000000e+00,-3.452148437500000000e-01,3.746337890625000000e-01,5.231933593750000000e-01,6.831054687500000000e-01
-2.000000000000000000e+00,-2.000000000000000000e+00,-1.200000000000000000e+01,3.600000000000000000e+01,5.000000000000000000e+00,1.000000000000000000e+00,0.000000000000000000e+00,-4.000000000000000000e+00,-3.452148437500000000e-01,3.746337890625000000e-01,5.231933593750000000e-01,6.831054687500000000e-01
-9.000000000000000000e+00,-2.000000000000000000e+00,6.000000000000000000e+00,-1.000000000000000000e+01,-6.000000000000000000e+00,-5.000000000000000000e+00,-2.000000000000000000e+00,-4.000000000000000000e+00,-3.452148437500000000e-01,3.746337890625000000e-01,5.231933593750000000e-01,6.831054687500000000e-01
8.000000000000000000e+00,1.000000000000000000e+00,-7.000000000000000000e+00,-6.000000000000000000e+00,0.000000000000000000e+00,-2.000000000000000000e+00,5.000000000000000000e+00,7.000000000000000000e+00,-3.455200195312500000e-01,3.756713867187500000e-01,5.223999023437500000e-01,6.830444335937500000e-01
0.000000000000000000e+00,3.000000000000000000e+00,1.300000000000000000e+01,-2.200000000000000000e+01,-5.000000000000000000e+00,-4.000000000000000000e+00,-5.000000000000000000e+00,-1.200000000000000000e+01,-3.455200195312500000e-01,3.756713867187500000e-01,5.223999023437500000e-01,6.830444335937500000e-01
-6.000000000000000000e+00,-2.000000000000000000e+00,-2.900000000000000000e+01,5.000000000000000000e+00,1.000000000000000000e+00,-1.000000000000000000e+00,-1.000000000000000000e+00,7.000000000000000000e+00,-3.455200195312500000e-01,3.756713867187500000e-01,5.223999023437500000e-01,6.830444335937500000e-01
-2.000000000000000000e+01,-6.000000000000000000e+00,9.000000000000000000e+00,4.300000000000000000e+01,7.000000000000000000e+00,3.000000000000000000e+00,-1.000000000000000000e+00,-1.300000000000000000e+01,-3.455200195312500000e-01,3.756713867187500000e-01,5.223999023437500000e-01,6.830444335937500000e-01
-4.000000000000000000e+00,-3.000000000000000000e+00,-4.000000000000000000e+00,-4.200000000000000000e+01,-1.100000000000000000e+01,-2.000000000000000000e+00,0.000000000000000000e+00,-1.000000000000000000e+00,-3.453979492187500000e-01,3.767700195312500000e-01,5.215454101562500000e-01,6.831054687500000000e-01
-4.000000000000000000e+00,-3.000000000000000000e+00,-5.000000000000000000e+00,-1.300000000000000000e+01,-4.000000000000000000e+00,3.000000000000000000e+00,-1.000000000000000000e+00,2.000000000000000000e+00,-3.453979492187500000e-01,3.767700195312500000e-01,5.215454101562500000e-01,6.831054687500000000e-01
-1.000000000000000000e+00,0.000000000000000000e+00,-3.000000000000000000e+00,-3.000000000000000000e+00,-1.000000000000000000e+00,-2.000000000000000000e+00,0.000000000000000000e+00,1.000000000000000000e+00,-3.453979492187500000e-01,3.767700195312500000e-01,5.215454101562500000e-01,6.831054687500000000e-01
6.000000000000000000e+00,-4.000000000000000000e+00,-2.700000000000000000e+01,-5.000000000000000000e+00,3.000000000000000000e+00,1.000000000000000000e+00,-3.000000000000000000e+00,0.000000000000000000e+00,-3.453979492187500000e-01,3.767700195312500000e-01,5.215454101562500000e-01,6.831054687500000000e-01
-1.000000000000000000e+00,0.000000000000000000e+00,9.000000000000000000e+00,2.000000000000000000e+01,-3.000000000000000000e+00,-7.000000000000000000e+00,-7.000000000000000000e+00,-2.000000000000000000e+00,-3.457031250000000000e-01,3.773193359375000000e-01,5.205688476562500000e-01,6.834106445312500000e-01
-7.000000000000000000e+00,6.000000000000000000e+00,1.500000000000000000e+01,1.700000000000000000e+01,3.000000000000000000e+00,1.000000000000000000e+00,1.000000000000000000e+00,2.000000000000000000e+00,-3.457031250000000000e-01,3.773193359375000000e-01,5.205688476562500000e-01,6.834106445312500000e-01
1.700000000000000000e+01,0.000000000000000000e+00,8.000000000000000000e+00,2.700000000000000000e+01,5.000000000000000000e+00,3.000000000000000000e+00,7.000000000000000000e+00,1.600000000000000000e+01,-3.457031250000000000e-01,3.773193359375000000e-01,5.205688476562500000e-01,6.834106445312500000e-01
-1.600000000000000000e+01,-2.000000000000000000e+00,0.000000000000000000e+00,-5.800000000000000000e+01,-1.300000000000000000e+01,-2.000000000000000000e+00,-5.000000000000000000e+00,-3.100000000000000000e+01,-3.457031250000000000e-01,3.773193359375000000e-01,5.205688476562500000e-01,6.834106445312500000e-01
-1.900000000000000000e+01,1.000000000000000000e+00,5.000000000000000000e+00,1.600000000000000000e+01,4.000000000000000000e+00,2.000000000000000000e+00,2.000000000000000000e+00,-2.000000000000000000e+00,-3.459472656250000000e-01,3.772583007812500000e-01,5.197143554687500000e-01,6.839599609375000000e-01
3.000000000000000000e+00,-4.000000000000000000e+00,-1.200000000000000000e+01,-1.000000000000000000e+01,-5.000000000000000000e+00,-8.000000000000000000e+00,-9.000000000000000000e+00,-3.000000000000000000e+00,-3.459472656250000000e-01,3.772583007812500000e-01,5.197143554687500000e-01,6.839599609375000000e-01
-1.300000000000000000e+01,2.000000000000000000e+00,1.600000000000000000e+01,1.800000000000000000e+01,5.000000000000000000e+00,5.000000000000000000e+00,1.000000000000000000e+00,3.000000000000000000e+00,-3.459472656250000000e-01,3.772583007812500000e-01,5.197143554687500000e-01,6.839599609375000000e-01
-5.000000000000000000e+00,-7.000000000000000000e+00,-2.100000000000000000e+01,-3.000000000000000000e+00,-1.000000000000000000e+00,-4.000000000000000000e+00,-1.000000000000000000e+00,6.000000000000000000e+00,-3.459472656250000000e-01,3.772583007812500000e-01,5.197143554687500000e-01,6.839599609375000000e-01
2.000000000000000000e+00,1.000000000000000000e+00,6.000000000000000000e+00,-3.000000000000000000e+00,0.000000000000000000e+00,-1.000000000000000000e+00,-4.000000000000000000e+00,-2.000000000000000000e+00,-3.464965820312500000e-01,3.767700195312500000e-01,5.191040039062500000e-01,6.843872070312500000e-01
4.000000000000000000e+00,-4.000000000000000000e+00,4.000000000000000000e+00,4.000000000000000000e+00,0.000000000000000000e+00,4.000000000000000000e+00,1.000000000000000000e+00,-4.000000000000000000e+00,-3.464965820312500000e-01,3.767700195312500000e-01,5.191040039062500000e-01,6.843872070312500000e-01
-4.000000000000000000e+00,-1.000000000000000000e+00,-1.000000000000000000e+01,-1.900000000000000000e+01,2.000000000000000000e+00,-2.000000000000000000e+00,-4.000000000000000000e+00,-6.000000000000000000e+00,-3.464965820312500000e-01,3.767700195312500000e-01,5.191040039062500000e-01,6.843872070312500000e-01
1.000000000000000000e+01,-3.000000000000000000e+00,-1.000000000000000000e+00,-1.500000000000000000e+01,-7.000000000000000000e+00,-2.000000000000000000e+00,1.000000000000000000e+00,7.000000000000000000e+00,-3.464965820312500000e-01,3.767700195312500000e-01,5.191040039062500000e-01,6.843872070312500000e-01
3.000000000000000000e+00,5.000000000000000000e+00,-1.000000000000000000e+01,-1.200000000000000000e+01,-5.000000000000000000e+00,-4.000000000000000000e+00,-2.000000000000000000e+00,-5.000000000000000000e+00,-3.473510742187500000e-01,3.763427734375000000e-01,5.186157226562500000e-01,6.846313476562500000e-01
-1.000000000000000000e+00,-1.000000000000000000e+01,-4.200000000000000000e+01,2.500000000000000000e+01,7.000000000000000000e+00,1.000000000000000000e+00,2.000000000000000000e+00,1.000000000000000000e+00,-3.473510742187500000e-01,3.763427734375000000e-01,5.186157226562500000e-01,6.846313476562500000e-01
2.000000000000000000e+00,1.000000000000000000e+00,2.500000000000000000e+01,-5.400000000000000000e+01,-1.200000000000000000e+01,-9.000000000000000000e+00,-4.000000000000000000e+00,-5.000000000000000000e+00,-3.473510742187500000e-01,3.763427734375000000e-01,5.186157226562500000e-01,6.846313476562500000e-01
6.000000000000000000e+00,6.000000000000000000e+00,4.000000000000000000e+00,-4.000000000000000000e+00,1.000000000000000000e+00,3.000000000000000000e+00,2.000000000000000000e+00,6.000000000000000000e+00,-3.473510742187500000e-01,3.763427734375000000e-01,5.186157226562500000e-01,6.846313476562500000e-01
8.000000000000000000e+00,-3.000000000000000000e+00,-2.000000000000000000e+00,2.100000000000000000e+01,4.000000000000000000e+00,0.000000000000000000e+00,1.000000000000000000e+00,3.000000000000000000e+00,-3.485107421875000000e-01,3.759155273437500000e-01,5.178222656250000000e-01,6.848144531250000000e-01
-7.000000000000000000e+00,0.000000000000000000e+00,8.000000000000000000e+00,0.000000000000000000e+00,2.000000000000000000e+00,2.000000000000000000e+00,2.000000000000000000e+00,-3.000000000000000000e+00,-3.485107421875000000e-01,3.759155273437500000e-01,5.178222656250000000e-01,6.848144531250000000e-01
-5.000000000000000000e+00,-2.000000000000000000e+00,-7.000000000000000000e+00,1.200000000000000000e+01,-1.000000000000000000e+00,-3.000000000000000000e+00,-3.000000000000000000e+00,-3.000000000000000000e+00,-3.485107421875000000e-01,3.759155273437500000e-01,5.178222656250000000e-01,6.848144531250000000e-01
6.000000000000000000e+00,-1.000000000000000000e+00,1.800000000000000000e+01,2.300000000000000000e+01,1.000000000000000000e+00,-2.000000000000000000e+00,-3.000000000000000000e+00,2.000000000000000000e+00,-3.485107421875000000e-01,3.759155273437500000e-01,5.178222656250000000e-01,6.848144531250000000e-01
1.300000000000000000e+01,1.000000000000000000e+00,-1.200000000000000000e+01,-1.300000000000000000e+01,4.000000000000000000e+00,3.000000000000000000e+00,-3.000000000000000000e+00,-1.000000000000000000e+00,-3.491821289062500000e-01,3.752441406250000000e-01,5.167236328125000000e-01,6.857299804687500000e-01
-2.500000000000000000e+01,1.000000000000000000e+00,7.000000000000000000e+00,2.200000000000000000e+01,2.000000000000000000e+00,2.000000000000000000e+00,3.000000000000000000e+00,0.000000000000000000e+00,-3.491821289062500000e-01,3.752441406250000000e-01,5.167236328125000000e-01,6.857299804687500000e-01
1.400000000000000000e+01,2.000000000000000000e+00,-2.000000000000000000e+00,-4.200000000000000000e+01,-7.000000000000000000e+00,0.000000000000000000e+00,2.000000000000000000e+00,-7.000000000000000000e+00,-3.491821289062500000e-01,3.752441406250000000e-01,5.167236328125000000e-01,6.857299804687500000e-01
-8.000000000000000000e+00,0.000000000000000000e+00,0.000000000000000000e+00,-5.000000000000000000e+00,0.000000000000000000e+00,-4.000000000000000000e+00,-2.000000000000000000e+00,1.700000000000000000e+01,-3.491821289062500000e-01,3.752441406250000000e-01,5.167236328125000000e-01,6.857299804687500000e-01
6.000000000000000000e+00,4.000000000000000000e+00,3.000000000000000000e+01,3.800000000000000000e+01,4.000000000000000000e+00,0.000000000000000000e+00,-2.000000000000000000e+00,-9.000000000000000000e+00,-3.502807617187500000e-01,3.734130859375000000e-01,5.155029296875000000e-01,6.870727539062500000e-01
1.100000000000000000e+01,-2.000000000000000000e+00,-1.000000000000000000e+01,-1.000000000000000000e+01,-4.000000000000000000e+00,0.000000000000000000e+00,-1.000000000000000000e+00,-7.000000000000000000e+00,-3.502807617187500000e-01,3.734130859375000000e-01,5.155029296875000000e-01,6.870727539062500000e-01
1.200000000000000000e+01,1.000000000000000000e+00,5.000000000000000000e+00,-1.700000000000000000e+01,-5.000000000000000000e+00,-3.000000000000000000e+00,1.000000000000000000e+00,-4.000000000000000000e+00,-3.511352539062500000e-01,3.714599609375000000e-01,5.143432617187500000e-01,6.885375976562500000e-01
-2.000000000000000000e+00,1.000000000000000000e+00,-8.000000000000000000e+00,2.300000000000000000e+01,6.000000000000000000e+00,3.000000000000000000e+00,0.000000000000000000e+00,3.000000000000000000e+00,-3.511352539062500000e-01,3.714599609375000000e-01,5.143432617187500000e-01,6.885375976562500000e-01
-5.000000000000000000e+00,0.000000000000000000e+00,1.300000000000000000e+01,1.300000000000000000e+01,-3.000000000000000000e+00,-3.000000000000000000e+00,-3.000000000000000000e+00,2.000000000000000000e+00,-3.511352539062500000e-01,3.714599609375000000e-01,5.143432617187500000e-01,6.885375976562500000e-01
-1.000000000000000000e+00,-3.000000000000000000e+00,3.000000000000000000e+00,1.500000000000000000e+01,-3.000000000000000000e+00,-3.000000000000000000e+00,-3.000000000000000000e+00,1.000000000000000000e+00,-3.511352539062500000e-01,3.714599609375000000e-01,5.143432617187500000e-01,6.885375976562500000e-01
0.000000000000000000e+00,-2.000000000000000000e+00,-3.000000000000000000e+00,-3.400000000000000000e+01,0.000000000000000000e+00,1.000000000000000000e+00,0.000000000000000000e+00,0.000000000000000000e+00,-3.519897460937500000e-01,3.695068359375000000e-01,5.137329101562500000e-01,6.896362304687500000e-01
1.000000000000000000e+01,3.000000000000000000e+00,1.100000000000000000e+01,7.000000000000000000e+00,-6.000000000000000000e+00,-3.000000000000000000e+00,1.000000000000000000e+00,-1.000000000000000000e+00,-3.519897460937500000e-01,3.695068359375000000e-01,5.137329101562500000e-01,6.896362304687500000e-01
-6.000000000000000000e+00,1.000000000000000000e+00,-9.000000000000000000e+00,1.100000000000000000e+01,8.000000000000000000e+00,6.000000000000000000e+00,3.000000000000000000e+00,3.000000000000000000e+00,-3.519897460937500000e-01,3.695068359375000000e-01,5.137329101562500000e-01,6.896362304687500000e-01
4.000000000000000000e+00,1.000000000000000000e+00,2.800000000000000000e+01,-1.200000000000000000e+01,-6.000000000000000000e+00,-3.000000000000000000e+00,-4.000000000000000000e+00,-2.000000000000000000e+00,-3.519897460937500000e-01,3.695068359375000000e-01,5.137329101562500000e-01,6.896362304687500000e-01
-3.000000000000000000e+00,-4.000000000000000000e+00,-5.100000000000000000e+01,2.500000000000000000e+01,5.000000000000000000e+00,1.000000000000000000e+00,1.000000000000000000e+00,2.000000000000000000e+00,-3.532714843750000000e-01,3.670043945312500000e-01,5.139160156250000000e-01,6.901245117187500000e-01
-2.000000000000000000e+00,-3.000000000000000000e+00,2.100000000000000000e+01,1.000000000000000000e+00,-2.000000000000000000e+00,-3.000000000000000000e+00,-4.000000000000000000e+00,-4.000000000000000000e+00,-3.532714843750000000e-01,3.670043945312500000e-01,5.139160156250000000e-01,6.901245117187500000e-01
-3.000000000000000000e+00,0.000000000000000000e+00,-7.000000000000000000e+00,-1.000000000000000000e+01,-3.000000000000000000e+00,-2.000000000000000000e+00,1.000000000000000000e+00,1.000000000000000000e+00,-3.532714843750000000e-01,3.670043945312500000e-01,5.139160156250000000e-01,6.901245117187500000e-01
-2.000000000000000000e+00,-3.000000000000000000e+00,-1.700000000000000000e+01,-1.300000000000000000e+01,0.000000000000000000e+00,0.000000000000000000e+00,2.000000000000000000e+00,1.000000000000000000e+00,-3.532714843750000000e-01,3.670043945312500000e-01,5.139160156250000000e-01,6.901245117187500000e-01
-8.000000000000000000e+00,1.000000000000000000e+00,2.400000000000000000e+01,3.100000000000000000e+01,4.000000000000000000e+00,-3.000000000000000000e+00,-2.000000000000000000e+00,-1.000000000000000000e+00,-3.544311523437500000e-01,3.644409179687500000e-01,5.139770507812500000e-01,6.908569335937500000e-01
3.300000000000000000e+01,1.000000000000000000e+00,-1.300000000000000000e+01,3.000000000000000000e+00,1.000000000000000000e+00,-2.000000000000000000e+00,-2.000000000000000000e+00,-4.000000000000000000e+00,-3.544311523437500000e-01,3.644409179687500000e-01,5.139770507812500000e-01,6.908569335937500000e-01
-8.000000000000000000e+00,-2.000000000000000000e+00,-7.000000000000000000e+00,-2.700000000000000000e+01,-6.000000000000000000e+00,0.000000000000000000e+00,2.000000000000000000e+00,0.000000000000000000e+00,-3.544311523437500000e-01,3.644409179687500000e-01,5.139770507812500000e-01,6.908569335937500000e-01
-1.000000000000000000e+00,4.000000000000000000e+00,7.000000000000000000e+00,-1.200000000000000000e+01,-1.000000000000000000e+00,-2.000000000000000000e+00,1.000000000000000000e+00,2.000000000000000000e+00,-3.544311523437500000e-01,3.644409179687500000e-01,5.139770507812500000e-01,6.908569335937500000e-01
-1.000000000000000000e+00,2.000000000000000000e+00,0.000000000000000000e+00,1.000000000000000000e+01,-3.000000000000000000e+00,0.000000000000000000e+00,-2.000000000000000000e+00,4.000000000000000000e+00,-3.546142578125000000e-01,3.626708984375000000e-01,5.136718750000000000e-01,6.919555664062500000e-01
8.000000000000000000e+00,-4.000000000000000000e+00,-2.600000000000000000e+01,-8.000000000000000000e+00,4.000000000000000000e+00,0.000000000000000000e+00,-1.000000000000000000e+00,-3.000000000000000000e+00,-3.546142578125000000e-01,3.626708984375000000e-01,5.136718750000000000e-01,6.919555664062500000e-01
-4.000000000000000000e+00,-4.000000000000000000e+00,-7.000000000000000000e+00,6.000000000000000000e+00,-2.000000000000000000e+00,-2.000000000000000000e+00,-3.000000000000000000e+00,-1.000000000000000000e+00,-3.546142578125000000e-01,3.626708984375000000e-01,5.136718750000000000e-01,6.919555664062500000e-01
2.000000000000000000e+00,-1.000000000000000000e+00,-2.000000000000000000e+00,1.000000000000000000e+01,2.000000000000000000e+00,-3.000000000000000000e+00,-1.000000000000000000e+00,-5.000000000000000000e+00,-3.546142578125000000e-01,3.626708984375000000e-01,5.136718750000000000e-01,6.919555664062500000e-01
-7.000000000000000000e+00,-5.000000000000000000e+00,-5.000000000000000000e+00,-3.200000000000000000e+01,-9.000000000000000000e+00,0.000000000000000000e+00,0.000000000000000000e+00,-2.000000000000000000e+00,-3.530273437500000000e-01,3.626098632812500000e-01,5.133666992187500000e-01,6.929931640625000000e-01
-1.100000000000000000e+01,1.000000000000000000e+00,3.000000000000000000e+00,1.800000000000000000e+01,3.000000000000000000e+00,0.000000000000000000e+00,0.000000000000000000e+00,1.000000000000000000e+00,-3.530273437500000000e-01,3.626098632812500000e-01,5.133666992187500000e-01,6.929931640625000000e-01
8.000000000000000000e+00,-3.000000000000000000e+00,-2.000000000000000000e+00,-1.400000000000000000e+01,-4.000000000000000000e+00,-2.000000000000000000e+00,-1.000000000000000000e+00,0.000000000000000000e+00,-3.530273437500000000e-01,3.626098632812500000e-01,5.133666992187500000e-01,6.929931640625000000e-01
-5.000000000000000000e+00,4.000000000000000000e+00,1.800000000000000000e+01,1.700000000000000000e+01,4.000000000000000000e+00,1.000000000000000000e+00,-2.000000000000000000e+00,1.000000000000000000e+00,-3.530273437500000000e-01,3.626098632812500000e-01,5.133666992187500000e-01,6.929931640625000000e-01
1.000000000000000000e+00,-3.000000000000000000e+00,6.000000000000000000e+00,-2.000000000000000000e+00,0.000000000000000000e+00,-1.000000000000000000e+00,-4.000000000000000000e+00,-2.000000000000000000e+00,-3.510742187500000000e-01,3.633422851562500000e-01,5.140380859375000000e-01,6.931152343750000000e-01
-1.200000000000000000e+01,-6.000000000000000000e+00,-1.100000000000000000e+01,-4.000000000000000000e+00,-3.000000000000000000e+00,-2.000000000000000000e+00,0.000000000000000000e+00,-7.000000000000000000e+00,-3.510742187500000000e-01,3.633422851562500000e-01,5.140380859375000000e-01,6.931152343750000000e-01
-3.000000000000000000e+00,-2.000000000000000000e+00,4.000000000000000000e+00,5.000000000000000000e+00,1.000000000000000000e+00,1.000000000000000000e+00,1.000000000000000000e+00,-1.000000000000000000e+00,-3.510742187500000000e-01,3.633422851562500000e-01,5.140380859375000000e-01,6.931152343750000000e-01
4.000000000000000000e+00,-4.000000000000000000e+00,-1.100000000000000000e+01,-9.000000000000000000e+00,-2.000000000000000000e+00,0.000000000000000000e+00,-3.000000000000000000e+00,2.000000000000000000e+00,-3.510742187500000000e-01,3.633422851562500000e-01,5.140380859375000000e-01,6.931152343750000000e-01
6.000000000000000000e+00,1.000000000000000000e+00,1.300000000000000000e+01,2.000000000000000000e+01,3.000000000000000000e+00,-2.000000000000000000e+00,-2.000000000000000000e+00,-1.000000000000000000e+00,-3.495483398437500000e-01,3.631591796875000000e-01,5.159301757812500000e-01,6.925659179687500000e-01
0.000000000000000000e+00,3.000000000000000000e+00,8.000000000000000000e+00,-5.000000000000000000e+00,-1.000000000000000000e+00,-1.000000000000000000e+00,-2.000000000000000000e+00,-5.000000000000000000e+00,-3.495483398437500000e-01,3.631591796875000000e-01,5.159301757812500000e-01,6.925659179687500000e-01
-8.000000000000000000e+00,-1.000000000000000000e+00,5.000000000000000000e+00,-1.300000000000000000e+01,-4.000000000000000000e+00,-4.000000000000000000e+00,1.000000000000000000e+00,9.000000000000000000e+00,-3.495483398437500000e-01,3.631591796875000000e-01,5.159301757812500000e-01,6.925659179687500000e-01
3.000000000000000000e+01,2.000000000000000000e+00,4.000000000000000000e+00,-1.100000000000000000e+01,-2.000000000000000000e+00,4.000000000000000000e+00,3.000000000000000000e+00,-1.300000000000000000e+01,-3.495483398437500000e-01,3.631591796875000000e-01,5.159301757812500000e-01,6.925659179687500000e-01
-3.000000000000000000e+01,-3.000000000000000000e+00,-3.000000000000000000e+00,3.000000000000000000e+00,-1.000000000000000000e+00,-1.000000000000000000e+00,-1.000000000000000000e+00,-1.000000000000000000e+00,-3.483886718750000000e-01,3.623046875000000000e-01,5.181274414062500000e-01,6.920166015625000000e-01
-7.000000000000000000e+00,-4.000000000000000000e+00,-2.000000000000000000e+01,-8.000000000000000000e+00,-1.000000000000000000e+00,-1.000000000000000000e+00,0.000000000000000000e+00,-1.000000000000000000e+00,-3.483886718750000000e-01,3.623046875000000000e-01,5.181274414062500000e-01,6.920166015625000000e-01
3.000000000000000000e+00,1.000000000000000000e+00,-1.100000000000000000e+01,1.200000000000000000e+01,0.000000000000000000e+00,-2.000000000000000000e+00,-4.000000000000000000e+00,-1.000000000000000000e+00,-3.483886718750000000e-01,3.623046875000000000e-01,5.181274414062500000e-01,6.920166015625000000e-01
-4.000000000000000000e+00,-7.000000000000000000e+00,-6.000000000000000000e+00,-3.300000000000000000e+01,-9.000000000000000000e+00,-6.000000000000000000e+00,-1.800000000000000000e+01,1.000000000000000000e+00,-3.483886718750000000e-01,3.623046875000000000e-01,5.181274414062500000e-01,6.920166015625000000e-01
4.000000000000000000e+00,0.000000000000000000e+00,1.300000000000000000e+01,1.300000000000000000e+01,5.000000000000000000e+00,4.000000000000000000e+00,1.100000000000000000e+01,1.000000000000000000e+00,-3.471069335937500000e-01,3.612670898437500000e-01,5.197143554687500000e-01,6.919555664062500000e-01
-1.000000000000000000e+00,2.000000000000000000e+00,-1.200000000000000000e+01,-2.400000000000000000e+01,-1.000000000000000000e+01,-4.000000000000000000e+00,-1.000000000000000000e+00,-1.000000000000000000e+00,-3.471069335937500000e-01,3.612670898437500000e-01,5.197143554687500000e-01,6.919555664062500000e-01
1.000000000000000000e+00,-4.000000000000000000e+00,-2.000000000000000000e+00,2.700000000000000000e+01,5.000000000000000000e+00,-3.000000000000000000e+00,2.000000000000000000e+00,1.000000000000000000e+00,-3.471069335937500000e-01,3.612670898437500000e-01,5.197143554687500000e-01,6.919555664062500000e-01
-6.000000000000000000e+00,-1.000000000000000000e+00,-8.000000000000000000e+00,-1.600000000000000000e+01,8.000000000000000000e+00,5.000000000000000000e+00,5.000000000000000000e+00,0.000000000000000000e+00,-3.471069335937500000e-01,3.612670898437500000e-01,5.197143554687500000e-01,6.919555664062500000e-01
0.000000000000000000e+00,-1.000000000000000000e+00,-1.100000000000000000e+01,-2.000000000000000000e+00,-2.000000000000000000e+00,-5.000000000000000000e+00,-8.000000000000000000e+00,-3.000000000000000000e+00,-3.458251953125000000e-01,3.599243164062500000e-01,5.203247070312500000e-01,6.928710937500000000e-01
-8.000000000000000000e+00,-1.000000000000000000e+00,1.300000000000000000e+01,1.400000000000000000e+01,3.000000000000000000e+00,2.000000000000000000e+00,-2.000000000000000000e+00,1.000000000000000000e+00,-3.458251953125000000e-01,3.599243164062500000e-01,5.203247070312500000e-01,6.928710937500000000e-01
0.000000000000000000e+00,-2.000000000000000000e+00,-1.600000000000000000e+01,-1.300000000000000000e+01,2.000000000000000000e+00,2.000000000000000000e+00,1.000000000000000000e+00,-2.000000000000000000e+00,-3.458251953125000000e-01,3.599243164062500000e-01,5.203247070312500000e-01,6.928710937500000000e-01
-3.000000000000000000e+00,4.000000000000000000e+00,-1.000000000000000000e+01,-1.800000000000000000e+01,-1.300000000000000000e+01,-6.000000000000000000e+00,-3.000000000000000000e+00,-2.000000000000000000e+00,-3.458251953125000000e-01,3.599243164062500000e-01,5.203247070312500000e-01,6.928710937500000000e-01
-1.000000000000000000e+00,-1.000000000000000000e+00,4.000000000000000000e+00,1.300000000000000000e+01,0.000000000000000000e+00,-2.000000000000000000e+00,-2.000000000000000000e+00,0.000000000000000000e+00,-3.449096679687500000e-01,3.577270507812500000e-01,5.204467773437500000e-01,6.943359375000000000e-01
-4.000000000000000000e+00,0.000000000000000000e+00,9.000000000000000000e+00,-1.000000000000000000e+00,1.000000000000000000e+00,1.000000000000000000e+00,2.000000000000000000e+00,2.000000000000000000e+00,-3.449096679687500000e-01,3.577270507812500000e-01,5.204467773437500000e-01,6.943359375000000000e-01
1.100000000000000000e+01,1.000000000000000000e+00,-4.000000000000000000e+00,2.700000000000000000e+01,-3.000000000000000000e+00,-3.000000000000000000e+00,-6.000000000000000000e+00,-7.000000000000000000e+00,-3.449096679687500000e-01,3.577270507812500000e-01,5.204467773437500000e-01,6.943359375000000000e-01
-7.000000000000000000e+00,-3.000000000000000000e+00,1.000000000000000000e+00,-1.800000000000000000e+01,1.000000000000000000e+00,-3.000000000000000000e+00,4.000000000000000000e+00,1.000000000000000000e+00,-3.449096679687500000e-01,3.577270507812500000e-01,5.204467773437500000e-01,6.943359375000000000e-01
1.300000000000000000e+01,-4.000000000000000000e+00,1.600000000000000000e+01,1.400000000000000000e+01,1.000000000000000000e+00,-2.000000000000000000e+00,-2.000000000000000000e+00,1.000000000000000000e+00,-3.449707031250000000e-01,3.544311523437500000e-01,5.206298828125000000e-01,6.958618164062500000e-01
-1.800000000000000000e+01,2.000000000000000000e+00,1.200000000000000000e+01,2.000000000000000000e+00,-1.000000000000000000e+01,-5.000000000000000000e+00,-5.000000000000000000e+00,-4.000000000000000000e+00,-3.449707031250000000e-01,3.544311523437500000e-01,5.206298828125000000e-01,6.958618164062500000e-01
-3.000000000000000000e+00,-2.000000000000000000e+00,-2.700000000000000000e+01,-1.500000000000000000e+01,0.000000000000000000e+00,2.000000000000000000e+00,-2.000000000000000000e+00,0.000000000000000000e+00,-3.449707031250000000e-01,3.544311523437500000e-01,5.206298828125000000e-01,6.958618164062500000e-01
4.000000000000000000e+00,2.000000000000000000e+00,-1.300000000000000000e+01,1.700000000000000000e+01,5.000000000000000000e+00,-2.000000000000000000e+00,4.000000000000000000e+00,3.000000000000000000e+00,-3.449707031250000000e-01,3.544311523437500000e-01,5.206298828125000000e-01,6.958618164062500000e-01
-7.000000000000000000e+00,1.000000000000000000e+00,1.100000000000000000e+01,2.000000000000000000e+01,0.000000000000000000e+00,0.000000000000000000e+00,1.000000000000000000e+00,0.000000000000000000e+00,-3.457641601562500000e-01,3.503417968750000000e-01,5.206909179687500000e-01,6.975097656250000000e-01
1.700000000000000000e+01,-3.000000000000000000e+00,-1.000000000000000000e+00,-3.100000000000000000e+01,-3.000000000000000000e+00,-1.000000000000000000e+00,-2.000000000000000000e+00,-3.000000000000000000e+00,-3.457641601562500000e-01,3.503417968750000000e-01,5.206909179687500000e-01,6.975097656250000000e-01
-1.000000000000000000e+00,4.000000000000000000e+00,5.900000000000000000e+01,1.000000000000000000e+01,1.000000000000000000e+00,2.000000000000000000e+00,1.000000000000000000e+00,8.000000000000000000e+00,-3.457641601562500000e-01,3.503417968750000000e-01,5.206909179687500000e-01,6.975097656250000000e-01
-5.000000000000000000e+00,-7.000000000000000000e+00,-3.400000000000000000e+01,3.000000000000000000e+00,-2.000000000000000000e+00,-4.000000000000000000e+00,-1.000000000000000000e+00,-1.000000000000000000e+01,-3.457641601562500000e-01,3.503417968750000000e-01,5.206909179687500000e-01,6.975097656250000000e-01
1.000000000000000000e+01,3.000000000000000000e+00,-7.000000000000000000e+00,-1.800000000000000000e+01,-7.000000000000000000e+00,-3.000000000000000000e+00,-1.000000000000000000e+00,4.000000000000000000e+00,-3.467407226562500000e-01,3.464355468750000000e-01,5.202636718750000000e-01,6.993408203125000000e-01
-3.300000000000000000e+01,-6.000000000000000000e+00,3.000000000000000000e+00,4.000000000000000000e+00,3.000000000000000000e+00,3.000000000000000000e+00,0.000000000000000000e+00,-5.000000000000000000e+00,-3.467407226562500000e-01,3.464355468750000000e-01,5.202636718750000000e-01,6.993408203125000000e-01
-6.000000000000000000e+00,-3.000000000000000000e+00,-8.000000000000000000e+00,-1.700000000000000000e+01,-2.000000000000000000e+00,-3.000000000000000000e+00,0.000000000000000000e+00,-3.000000000000000000e+00,-3.467407226562500000e-01,3.464355468750000000e-01,5.202636718750000000e-01,6.993408203125000000e-01
4.000000000000000000e+00,1.000000000000000000e+00,2.100000000000000000e+01,2.200000000000000000e+01,3.000000000000000000e+00,-1.000000000000000000e+00,1.000000000000000000e+00,6.000000000000000000e+00,-3.467407226562500000e-01,3.464355468750000000e-01,5.202636718750000000e-01,6.993408203125000000e-01
-8.000000000000000000e+00,-1.000000000000000000e+00,-2.200000000000000000e+01,-3.000000000000000000e+00,2.000000000000000000e+00,0.000000000000000000e+00,1.000000000000000000e+00,0.000000000000000000e+00,-3.472290039062500000e-01,3.440551757812500000e-01,5.194702148437500000e-01,7.008056640625000000e-01
1.300000000000000000e+01,-1.000000000000000000e+00,8.000000000000000000e+00,-1.000000000000000000e+00,2.000000000000000000e+00,0.000000000000000000e+00,-1.000000000000000000e+00,0.000000000000000000e+00,-3.472290039062500000e-01,3.440551757812500000e-01,5.194702148437500000e-01,7.008056640625000000e-01
5.000000000000000000e+00,0.000000000000000000e+00,-4.000000000000000000e+00,-7.000000000000000000e+00,-3.000000000000000000e+00,-4.000000000000000000e+00,-3.000000000000000000e+00,-1.000000000000000000e+00,-3.472290039062500000e-01,3.440551757812500000e-01,5.194702148437500000e-01,7.008056640625000000e-01
-1.200000000000000000e+01,-4.000000000000000000e+00,5.000000000000000000e+00,3.700000000000000000e+01,-5.000000000000000000e+00,0.000000000000000000e+00,-3.000000000000000000e+00,-1.000000000000000000e+00,-3.472290039062500000e-01,3.440551757812500000e-01,5.194702148437500000e-01,7.008056640625000000e-01
2.000000000000000000e+00,-1.000000000000000000e+00,-2.200000000000000000e+01,-5.300000000000000000e+01,0.000000000000000000e+00,-1.000000000000000000e+00,0.000000000000000000e+00,-4.000000000000000000e+00,-3.473510742187500000e-01,3.425903320312500000e-01,5.194702148437500000e-01,7.014770507812500000e-01
-3.000000000000000000e+00,-3.000000000000000000e+00,-1.000000000000000000e+00,2.700000000000000000e+01,-1.000000000000000000e+00,-4.000000000000000000e+00,-3.000000000000000000e+00,-1.000000000000000000e+00,-3.473510742187500000e-01,3.425903320312500000e-01,5.194702148437500000e-01,7.014770507812500000e-01
-2.000000000000000000e+00,-1.000000000000000000e+00,0.000000000000000000e+00,1.000000000000000000e+00,0.000000000000000000e+00,-1.000000000000000000e+00,-2.000000000000000000e+00,-3.000000000000000000e+00,-3.473510742187500000e-01,3.425903320312500000e-01,5.194702148437500000e-01,7.014770507812500000e-01
2.000000000000000000e+00,-2.000000000000000000e+00,9.000000000000000000e+00,4.000000000000000000e+00,-4.000000000000000000e+00,-2.000000000000000000e+00,-1.000000000000000000e+00,2.000000000000000000e+00,-3.473510742187500000e-01,3.425903320312500000e-01,5.194702148437500000e-01,7.014770507812500000e-01
0.000000000000000000e+00,1.000000000000000000e+00,0.000000000000000000e+00,3.000000000000000000e+01,2.000000000000000000e+00,4.000000000000000000e+00,2.000000000000000000e+00,-2.000000000000000000e+00,-3.483276367187500000e-01,3.408203125000000000e-01,5.202636718750000000e-01,7.012329101562500000e-01
1.200000000000000000e+01,-1.000000000000000000e+00,1.500000000000000000e+01,-1.300000000000000000e+01,4.000000000000000000e+00,0.000000000000000000e+00,0.000000000000000000e+00,2.000000000000000000e+00,-3.483276367187500000e-01,3.408203125000000000e-01,5.202636718750000000e-01,7.012329101562500000e-01
-1.900000000000000000e+01,-3.000000000000000000e+00,-8.000000000000000000e+00,-3.600000000000000000e+01,-8.000000000000000000e+00,0.000000000000000000e+00,-1.000000000000000000e+00,-9.000000000000000000e+00,-3.483276367187500000e-01,3.408203125000000000e-01,5.202636718750000000e-01,7.012329101562500000e-01
-1.000000000000000000e+00,-3.000000000000000000e+00,-1.500000000000000000e+01,-8.000000000000000000e+00,-5.000000000000000000e+00,-6.000000000000000000e+00,0.000000000000000000e+00,1.600000000000000000e+01,-3.483276367187500000e-01,3.408203125000000000e-01,5.202636718750000000e-01,7.012329101562500000e-01
5.000000000000000000e+00,2.000000000000000000e+00,2.800000000000000000e+01,5.000000000000000000e+00,-3.000000000000000000e+00,-1.000000000000000000e+00,-5.000000000000000000e+00,-1.000000000000000000e+00,-3.496093750000000000e-01,3.392944335937500000e-01,5.208129882812500000e-01,7.009277343750000000e-01
-1.200000000000000000e+01,-4.000000000000000000e+00,-1.600000000000000000e+01,1.300000000000000000e+01,3.000000000000000000e+00,1.000000000000000000e+00,-3.000000000000000000e+00,-3.000000000000000000e+00,-3.496093750000000000e-01,3.392944335937500000e-01,5.208129882812500000e-01,7.009277343750000000e-01
0.000000000000000000e+00,0.000000000000000000e+00,9.000000000000000000e+00,6.000000000000000000e+00,2.000000000000000000e+00,4.000000000000000000e+00,1.000000000000000000e+00,-1.800000000000000000e+01,-3.496093750000000000e-01,3.392944335937500000e-01,5.208129882812500000e-01,7.009277343750000000e-01
-1.000000000000000000e+00,2.000000000000000000e+00,7.000000000000000000e+00,-1.600000000000000000e+01,4.000000000000000000e+00,1.000000000000000000e+00,1.000000000000000000e+00,2.000000000000000000e+00,-3.496093750000000000e-01,3.392944335937500000e-01,5.208129882812500000e-01,7.009277343750000000e-01
0.000000000000000000e+00,-4.000000000000000000e+00,-2.000000000000000000e+00,7.000000000000000000e+00,-3.000000000000000000e+00,-4.000000000000000000e+00,-1.000000000000000000e+00,-2.000000000000000000e+00,-3.500976562500000000e-01,3.388671875000000000e-01,5.209350585937500000e-01,7.008056640625000000e-01
4.000000000000000000e+00,-4.000000000000000000e+00,-2.000000000000000000e+00,-1.400000000000000000e+01,-1.000000000000000000e+01,-5.000000000000000000e+00,0.000000000000000000e+00,4.000000000000000000e+00,-3.500976562500000000e-01,3.388671875000000000e-01,5.209350585937500000e-01,7.008056640625000000e-01
-2.000000000000000000e+00,-1.000000000000000000e+00,-4.000000000000000000e+00,-1.200000000000000000e+01,-3.000000000000000000e+00,0.000000000000000000e+00,0.000000000000000000e+00,4.000000000000000000e+00,-3.500976562500000000e-01,3.388671875000000000e-01,5.209350585937500000e-01,7.008056640625000000e-01
-5.000000000000000000e+00,1.000000000000000000e+00,-1.000000000000000000e+01,-5.000000000000000000e+00,1.000000000000000000e+00,4.000000000000000000e+00,2.000000000000000000e+00,-6.000000000000000000e+00,-3.500976562500000000e-01,3.388671875000000000e-01,5.209350585937500000e-01,7.008056640625000000e-01
-2.000000000000000000e+00,0.000000000000000000e+00,2.200000000000000000e+01,1.700000000000000000e+01,4.000000000000000000e+00,1.000000000000000000e+00,-2.000000000000000000e+00,2.000000000000000000e+00,-3.498535156250000000e-01,3.395385742187500000e-01,5.206909179687500000e-01,7.008056640625000000e-01
3.000000000000000000e+00,5.000000000000000000e+00,2.400000000000000000e+01,1.500000000000000000e+01,1.000000000000000000e+00,3.000000000000000000e+00,3.000000000000000000e+00,-2.000000000000000000e+00,-3.498535156250000000e-01,3.395385742187500000e-01,5.206909179687500000e-01,7.008056640625000000e-01
1.000000000000000000e+00,-2.000000000000000000e+00,-1.300000000000000000e+01,-5.000000000000000000e+00,-3.000000000000000000e+00,-5.000000000000000000e+00,-2.000000000000000000e+00,2.000000000000000000e+00,-3.498535156250000000e-01,3.395385742187500000e-01,5.206909179687500000e-01,7.008056640625000000e-01
1.000000000000000000e+00,-2.000000000000000000e+00,3.000000000000000000e+00,-6.000000000000000000e+00,-4.000000000000000000e+00,-4.000000000000000000e+00,-2.000000000000000000e+00,-4.000000000000000000e+00,-3.498535156250000000e-01,3.395385742187500000e-01,5.206909179687500000e-01,7.008056640625000000e-01
0.000000000000000000e+00,-2.000000000000000000e+00,-1.300000000000000000e+01,6.000000000000000000e+00,1.000000000000000000e+00,-2.000000000000000000e+00,0.000000000000000000e+00,-2.000000000000000000e+00,-3.493652343750000000e-01,3.397216796875000000e-01,5.197753906250000000e-01,7.016601562500000000e-01
0.000000000000000000e+00,2.000000000000000000e+00,5.000000000000000000e+00,-2.000000000000000000e+00,6.000000000000000000e+00,3.000000000000000000e+00,-1.000000000000000000e+00,1.000000000000000000e+00,-3.493652343750000000e-01,3.397216796875000000e-01,5.197753906250000000e-01,7.016601562500000000e-01
0.000000000000000000e+00,1.000000000000000000e+00,1.600000000000000000e+01,-7.000000000000000000e+00,-1.000000000000000000e+00,0.000000000000000000e+00,1.000000000000000000e+00,-3.000000000000000000e+00,-3.493652343750000000e-01,3.397216796875000000e-01,5.197753906250000000e-01,7.016601562500000000e-01
7.000000000000000000e+00,-2.000000000000000000e+00,-1.000000000000000000e+00,8.000000000000000000e+00,-1.000000000000000000e+00,-2.000000000000000000e+00,-2.000000000000000000e+00,0.000000000000000000e+00,-3.493652343750000000e-01,3.397216796875000000e-01,5.197753906250000000e-01,7.016601562500000000e-01
-1.300000000000000000e+01,6.000000000000000000e+00,-4.000000000000000000e+00,-1.900000000000000000e+01,-4.000000000000000000e+00,1.000000000000000000e+00,-1.000000000000000000e+00,-3.000000000000000000e+00,-3.485107421875000000e-01,3.389282226562500000e-01,5.177612304687500000e-01,7.039794921875000000e-01
-1.000000000000000000e+00,-3.000000000000000000e+00,-1.100000000000000000e+01,5.000000000000000000e+00,-5.000000000000000000e+00,-4.000000000000000000e+00,0.000000000000000000e+00,-2.000000000000000000e+00,-3.485107421875000000e-01,3.389282226562500000e-01,5.177612304687500000e-01,7.039794921875000000e-01
3.000000000000000000e+00,-1.000000000000000000e+00,-1.100000000000000000e+01,1.200000000000000000e+01,5.000000000000000000e+00,1.000000000000000000e+00,2.000000000000000000e+00,2.000000000000000000e+00,-3.485107421875000000e-01,3.389282226562500000e-01,5.177612304687500000e-01,7.039794921875000000e-01
-1.000000000000000000e+01,-3.000000000000000000e+00,-7.000000000000000000e+00,-1.300000000000000000e+01,-4.000000000000000000e+00,0.000000000000000000e+00,-2.000000000000000000e+00,-5.000000000000000000e+00,-3.485107421875000000e-01,3.389282226562500000e-01,5.177612304687500000e-01,7.039794921875000000e-01
2.300000000000000000e+01,0.000000000000000000e+00,-2.000000000000000000e+00,-6.000000000000000000e+00,-6.000000000000000000e+00,-5.000000000000000000e+00,-5.000000000000000000e+00,1.300000000000000000e+01,-3.472290039062500000e-01,3.376464843750000000e-01,5.147094726562500000e-01,7.073974609375000000e-01
-3.400000000000000000e+01,0.000000000000000000e+00,9.000000000000000000e+00,-3.000000000000000000e+00,2.000000000000000000e+00,2.000000000000000000e+00,-1.000000000000000000e+00,-1.600000000000000000e+01,-3.472290039062500000e-01,3.376464843750000000e-01,5.147094726562500000e-01,7.073974609375000000e-01
-9.000000000000000000e+00,-1.100000000000000000e+01,-4.400000000000000000e+01,-3.000000000000000000e+00,-3.000000000000000000e+00,-2.000000000000000000e+00,-3.000000000000000000e+00,-3.000000000000000000e+00,-3.472290039062500000e-01,3.376464843750000000e-01,5.147094726562500000e-01,7.073974609375000000e-01
-4.000000000000000000e+00,-4.000000000000000000e+00,-9.000000000000000000e+00,-4.000000000000000000e+00,2.000000000000000000e+00,-1.000000000000000000e+00,-1.000000000000000000e+00,1.000000000000000000e+00,-3.472290039062500000e-01,3.376464843750000000e-01,5.147094726562500000e-01,7.073974609375000000e-01
-6.000000000000000000e+00,-1.000000000000000000e+00,0.000000000000000000e+00,2.000000000000000000e+00,-1.000000000000000000e+00,-3.000000000000000000e+00,-5.000000000000000000e+00,-5.000000000000000000e+00,-3.455810546875000000e-01,3.365478515625000000e-01,5.117187500000000000e-01,7.108764648437500000e-01
9.000000000000000000e+00,1.000000000000000000e+00,-5.000000000000000000e+00,-1.000000000000000000e+00,-4.000000000000000000e+00,-1.000000000000000000e+00,0.000000000000000000e+00,7.000000000000000000e+00,-3.455810546875000000e-01,3.365478515625000000e-01,5.117187500000000000e-01,7.108764648437500000e-01
4.000000000000000000e+00,-1.000000000000000000e+00,7.000000000000000000e+00,-1.400000000000000000e+01,-4.000000000000000000e+00,-1.000000000000000000e+00,0.000000000000000000e+00,2.000000000000000000e+00,-3.455810546875000000e-01,3.365478515625000000e-01,5.117187500000000000e-01,7.108764648437500000e-01
-3.000000000000000000e+00,-2.000000000000000000e+00,2.000000000000000000e+01,2.700000000000000000e+01,3.000000000000000000e+00,-1.000000000000000000e+00,0.000000000000000000e+00,-6.000000000000000000e+00,-3.455810546875000000e-01,3.365478515625000000e-01,5.117187500000000000e-01,7.108764648437500000e-01
-4.000000000000000000e+00,0.000000000000000000e+00,-5.000000000000000000e+00,-1.000000000000000000e+00,-2.000000000000000000e+00,1.000000000000000000e+00,1.000000000000000000e+00,-1.000000000000000000e+00,-3.431396484375000000e-01,3.363037109375000000e-01,5.097656250000000000e-01,7.136230468750000000e-01
8.000000000000000000e+00,0.000000000000000000e+00,-6.000000000000000000e+00,-1.600000000000000000e+01,0.000000000000000000e+00,0.000000000000000000e+00,1.000000000000000000e+00,2.000000000000000000e+00,-3.431396484375000000e-01,3.363037109375000000e-01,5.097656250000000000e-01,7.136230468750000000e-01
-4.000000000000000000e+00,-1.000000000000000000e+00,2.200000000000000000e+01,2.000000000000000000e+01,-2.000000000000000000e+00,-5.000000000000000000e+00,-3.000000000000000000e+00,-3.000000000000000000e+00,-3.431396484375000000e-01,3.363037109375000000e-01,5.097656250000000000e-01,7.136230468750000000e-01
5.000000000000000000e+00,-2.000000000000000000e+00,-2.400000000000000000e+01,-1.400000000000000000e+01,3.000000000000000000e+00,-1.000000000000000000e+00,1.000000000000000000e+00,-1.000000000000000000e+00,-3.431396484375000000e-01,3.363037109375000000e-01,5.097656250000000000e-01,7.136230468750000000e-01
-2.000000000000000000e+00,-2.000000000000000000e+00,-7.000000000000000000e+00,-8.000000000000000000e+00,-1.000000000000000000e+00,0.000000000000000000e+00,0.000000000000000000e+00,-3.000000000000000000e+00,-3.411865234375000000e-01,3.355712890625000000e-01,5.088500976562500000e-01,7.155761718750000000e-01
-3.000000000000000000e+00,-2.000000000000000000e+00,-7.000000000000000000e+00,9.000000000000000000e+00,1.000000000000000000e+00,0.000000000000000000e+00,-1.000000000000000000e+00,2.000000000000000000e+00,-3.411865234375000000e-01,3.355712890625000000e-01,5.088500976562500000e-01,7.155761718750000000e-01
1.900000000000000000e+01,3.000000000000000000e+00,2.000000000000000000e+00,-1.000000000000000000e+00,-3.000000000000000000e+00,1.000000000000000000e+00,3.000000000000000000e+00,1.100000000000000000e+01,-3.411865234375000000e-01,3.355712890625000000e-01,5.088500976562500000e-01,7.155761718750000000e-01
2.700000000000000000e+01,3.000000000000000000e+00,2.000000000000000000e+00,-7.000000000000000000e+00,-3.000000000000000000e+00,-2.000000000000000000e+00,-2.000000000000000000e+00,7.000000000000000000e+00,-3.411865234375000000e-01,3.355712890625000000e-01,5.088500976562500000e-01,7.155761718750000000e-01
-8.600000000000000000e+01,-1.300000000000000000e+01,5.000000000000000000e+00,-3.000000000000000000e+00,-4.000000000000000000e+00,-4.000000000000000000e+00,-1.800000000000000000e+01,-3.300000000000000000e+01,-3.402709960937500000e-01,3.341674804687500000e-01,5.079345703125000000e-01,7.172851562500000000e-01
1.700000000000000000e+01,6.000000000000000000e+00,-2.000000000000000000e+01,-9.000000000000000000e+00,-1.000000000000000000e+00,-2.000000000000000000e+00,6.000000000000000000e+00,-8.000000000000000000e+00,-3.402709960937500000e-01,3.341674804687500000e-01,5.079345703125000000e-01,7.172851562500000000e-01
3.500000000000000000e+01,0.000000000000000000e+00,0.000000000000000000e+00,6.000000000000000000e+00,2.000000000000000000e+00,1.000000000000000000e+00,4.000000000000000000e+00,3.000000000000000000e+00,-3.402709960937500000e-01,3.341674804687500000e-01,5.079345703125000000e-01,7.172851562500000000e-01
-8.800000000000000000e+01,-6.000000000000000000e+00,2.000000000000000000e+01,3.000000000000000000e+00,-2.000000000000000000e+00,1.000000000000000000e+00,4.000000000000000000e+00,-8.000000000000000000e+00,-3.402709960937500000e-01,3.341674804687500000e-01,5.079345703125000000e-01,7.172851562500000000e-01
3.300000000000000000e+01,2.000000000000000000e+00,-2.300000000000000000e+01,-1.500000000000000000e+01,-1.000000000000000000e+00,-2.000000000000000000e+00,5.000000000000000000e+00,1.300000000000000000e+01,-3.391723632812500000e-01,3.333129882812500000e-01,5.075683593750000000e-01,7.184448242187500000e-01
-5.000000000000000000e+00,-7.000000000000000000e+00,5.000000000000000000e+00,1.200000000000000000e+01,1.000000000000000000e+00,-1.000000000000000000e+00,-5.000000000000000000e+00,4.000000000000000000e+00,-3.391723632812500000e-01,3.333129882812500000e-01,5.075683593750000000e-01,7.184448242187500000e-01
-9.000000000000000000e+00,4.000000000000000000e+00,7.000000000000000000e+00,-1.800000000000000000e+01,-4.000000000000000000e+00,-3.000000000000000000e+00,-7.000000000000000000e+00,-4.000000000000000000e+00,-3.391723632812500000e-01,3.333129882812500000e-01,5.075683593750000000e-01,7.184448242187500000e-01
2.700000000000000000e+01,0.000000000000000000e+00,1.300000000000000000e+01,-3.000000000000000000e+00,0.000000000000000000e+00,1.000000000000000000e+00,2.000000000000000000e+00,0.000000000000000000e+00,-3.391723632812500000e-01,3.333129882812500000e-01,5.075683593750000000e-01,7.184448242187500000e-01
-2.000000000000000000e+00,-7.000000000000000000e+00,-2.900000000000000000e+01,1.000000000000000000e+00,0.000000000000000000e+00,0.000000000000000000e+00,-1.000000000000000000e+00,0.000000000000000000e+00,-3.389892578125000000e-01,3.335571289062500000e-01,5.079956054687500000e-01,7.181396484375000000e-01
-7.000000000000000000e+00,-2.000000000000000000e+00,-3.000000000000000000e+00,3.300000000000000000e+01,8.000000000000000000e+00,1.000000000000000000e+00,0.000000000000000000e+00,0.000000000000000000e+00,-3.389892578125000000e-01,3.335571289062500000e-01,5.079956054687500000e-01,7.181396484375000000e-01
8.000000000000000000e+00,6.000000000000000000e+00,1.200000000000000000e+01,-4.000000000000000000e+01,-1.400000000000000000e+01,-4.000000000000000000e+00,-9.000000000000000000e+00,-1.000000000000000000e+00,-3.389892578125000000e-01,3.335571289062500000e-01,5.079956054687500000e-01,7.181396484375000000e-01
3.000000000000000000e+00,-9.000000000000000000e+00,-3.500000000000000000e+01,4.900000000000000000e+01,5.000000000000000000e+00,1.000000000000000000e+00,8.000000000000000000e+00,-2.000000000000000000e+00,-3.389892578125000000e-01,3.335571289062500000e-01,5.079956054687500000e-01,7.181396484375000000e-01
-5.000000000000000000e+00,1.000000000000000000e+00,1.200000000000000000e+01,-9.100000000000000000e+01,-1.600000000000000000e+01,-4.000000000000000000e+00,0.000000000000000000e+00,-5.000000000000000000e+00,-3.388061523437500000e-01,3.345336914062500000e-01,5.093994140625000000e-01,7.167358398437500000e-01
2.200000000000000000e+01,3.000000000000000000e+00,3.000000000000000000e+00,-3.000000000000000000e+01,-9.000000000000000000e+00,-4.000000000000000000e+00,-1.000000000000000000e+00,6.000000000000000000e+00,-3.388061523437500000e-01,3.345336914062500000e-01,5.093994140625000000e-01,7.167358398437500000e-01
-1.000000000000000000e+01,-6.000000000000000000e+00,-3.000000000000000000e+00,2.400000000000000000e+01,1.100000000000000000e+01,1.000000000000000000e+00,-1.000000000000000000e+00,-2.000000000000000000e+00,-3.388061523437500000e-01,3.345336914062500000e-01,5.093994140625000000e-01,7.167358398437500000e-01
-2.000000000000000000e+00,0.000000000000000000e+00,6.000000000000000000e+00,4.900000000000000000e+01,6.000000000000000000e+00,1.000000000000000000e+00,-5.000000000000000000e+00,-2.000000000000000000e+00,-3.388061523437500000e-01,3.345336914062500000e-01,5.093994140625000000e-01,7.167358398437500000e-01
1.800000000000000000e+01,5.000000000000000000e+00,1.700000000000000000e+01,-1.000000000000000000e+00,-1.000000000000000000e+00,2.000000000000000000e+00,2.000000000000000000e+00,3.000000000000000000e+00,-3.396606445312500000e-01,3.342285156250000000e-01,5.104370117187500000e-01,7.157592773437500000e-01
1.600000000000000000e+01,-4.000000000000000000e+00,-9.000000000000000000e+00,-1.000000000000000000e+00,-3.000000000000000000e+00,1.000000000000000000e+00,2.000000000000000000e+00,4.000000000000000000e+00,-3.396606445312500000e-01,3.342285156250000000e-01,5.104370117187500000e-01,7.157592773437500000e-01
-7.000000000000000000e+01,-8.000000000000000000e+00,1.000000000000000000e+00,-2.000000000000000000e+00,-3.000000000000000000e+00,-4.000000000000000000e+00,-7.000000000000000000e+00,-9.000000000000000000e+00,-3.396606445312500000e-01,3.342285156250000000e-01,5.104370117187500000e-01,7.157592773437500000e-01
2.500000000000000000e+01,8.000000000000000000e+00,3.000000000000000000e+00,-5.000000000000000000e+01,-1.000000000000000000e+01,-5.000000000000000000e+00,-3.000000000000000000e+00,0.000000000000000000e+00,-3.396606445312500000e-01,3.342285156250000000e-01,5.104370117187500000e-01,7.157592773437500000e-01
3.100000000000000000e+01,-4.000000000000000000e+00,-5.000000000000000000e+00,4.400000000000000000e+01,7.000000000000000000e+00,-1.000000000000000000e+00,4.000000000000000000e+00,2.000000000000000000e+00,-3.414916992187500000e-01,3.323364257812500000e-01,5.105590820312500000e-01,7.156982421875000000e-01
1.500000000000000000e+01,1.000000000000000000e+00,-5.000000000000000000e+00,6.000000000000000000e+00,-1.000000000000000000e+00,-5.000000000000000000e+00,-5.000000000000000000e+00,1.200000000000000000e+01,-3.414916992187500000e-01,3.323364257812500000e-01,5.105590820312500000e-01,7.156982421875000000e-01
1.200000000000000000e+01,7.000000000000000000e+00,4.000000000000000000e+00,-3.000000000000000000e+00,-3.000000000000000000e+00,-9.000000000000000000e+00,-3.000000000000000000e+00,-2.200000000000000000e+01,-3.414916992187500000e-01,3.323364257812500000e-01,5.105590820312500000e-01,7.156982421875000000e-01
-1.900000000000000000e+01,-3.000000000000000000e+00,8.000000000000000000e+00,4.000000000000000000e+00,1.000000000000000000e+00,4.000000000000000000e+00,-1.000000000000000000e+01,-1.200000000000000000e+01,-3.414916992187500000e-01,3.323364257812500000e-01,5.105590820312500000e-01,7.156982421875000000e-01
0.000000000000000000e+00,-2.000000000000000000e+00,-3.000000000000000000e+00,6.000000000000000000e+00,-1.000000000000000000e+00,3.000000000000000000e+00,5.000000000000000000e+00,3.000000000000000000e+00,-3.415527343750000000e-01,3.317871093750000000e-01,5.099487304687500000e-01,7.163696289062500000e-01
-1.100000000000000000e+01,-8.000000000000000000e+00,-3.000000000000000000e+00,1.600000000000000000e+01,0.000000000000000000e+00,8.000000000000000000e+00,3.000000000000000000e+00,-4.000000000000000000e+00,-3.415527343750000000e-01,3.317871093750000000e-01,5.099487304687500000e-01,7.163696289062500000e-01
2.400000000000000000e+01,1.000000000000000000e+00,-2.000000000000000000e+00,-3.000000000000000000e+00,-2.000000000000000000e+00,0.000000000000000000e+00,6.000000000000000000e+00,1.100000000000000000e+01,-3.415527343750000000e-01,3.317871093750000000e-01,5.099487304687500000e-01,7.163696289062500000e-01
7.000000000000000000e+00,8.000000000000000000e+00,4.000000000000000000e+01,-2.300000000000000000e+01,-6.000000000000000000e+00,-9.000000000000000000e+00,-2.000000000000000000e+00,-1.000000000000000000e+00,-3.415527343750000000e-01,3.317871093750000000e-01,5.099487304687500000e-01,7.163696289062500000e-01
0.000000000000000000e+00,-1.200000000000000000e+01,-3.700000000000000000e+01,6.000000000000000000e+00,1.000000000000000000e+00,-3.000000000000000000e+00,-8.000000000000000000e+00,-2.000000000000000000e+00,-3.408813476562500000e-01,3.328857421875000000e-01,5.092163085937500000e-01,7.166137695312500000e-01
-1.100000000000000000e+01,-1.000000000000000000e+00,-7.000000000000000000e+00,1.000000000000000000e+00,3.000000000000000000e+00,-2.000000000000000000e+00,-1.000000000000000000e+00,-1.000000000000000000e+00,-3.408813476562500000e-01,3.328857421875000000e-01,5.092163085937500000e-01,7.166137695312500000e-01
1.000000000000000000e+00,2.000000000000000000e+00,3.000000000000000000e+00,1.400000000000000000e+01,2.000000000000000000e+00,3.000000000000000000e+00,2.000000000000000000e+00,6.000000000000000000e+00,-3.408813476562500000e-01,3.328857421875000000e-01,5.092163085937500000e-01,7.166137695312500000e-01
-1.000000000000000000e+00,3.000000000000000000e+00,1.000000000000000000e+01,-4.000000000000000000e+01,-6.000000000000000000e+00,-4.000000000000000000e+00,-5.000000000000000000e+00,-5.000000000000000000e+00,-3.408813476562500000e-01,3.328857421875000000e-01,5.092163085937500000e-01,7.166137695312500000e-01
-1.200000000000000000e+01,1.000000000000000000e+00,2.000000000000000000e+01,2.400000000000000000e+01,0.000000000000000000e+00,-2.000000000000000000e+00,-1.000000000000000000e+00,0.000000000000000000e+00,-3.411865234375000000e-01,3.341064453125000000e-01,5.095214843750000000e-01,7.157592773437500000e-01
0.000000000000000000e+00,-1.000000000000000000e+00,1.400000000000000000e+01,-2.200000000000000000e+01,-6.000000000000000000e+00,-5.000000000000000000e+00,-1.000000000000000000e+00,-2.000000000000000000e+00,-3.411865234375000000e-01,3.341064453125000000e-01,5.095214843750000000e-01,7.157592773437500000e-01
-8.000000000000000000e+00,-5.000000000000000000e+00,-1.600000000000000000e+01,-8.000000000000000000e+00,2.000000000000000000e+00,4.000000000000000000e+00,2.000000000000000000e+00,-1.000000000000000000e+00,-3.411865234375000000e-01,3.341064453125000000e-01,5.095214843750000000e-01,7.157592773437500000e-01
1.600000000000000000e+01,4.000000000000000000e+00,-3.000000000000000000e+00,4.000000000000000000e+01,6.000000000000000000e+00,0.000000000000000000e+00,-1.000000000000000000e+00,2.000000000000000000e+00,-3.411865234375000000e-01,3.341064453125000000e-01,5.095214843750000000e-01,7.157592773437500000e-01
-2.000000000000000000e+00,-4.000000000000000000e+00,-3.100000000000000000e+01,-2.000000000000000000e+01,-1.200000000000000000e+01,-4.000000000000000000e+00,0.000000000000000000e+00,-3.000000000000000000e+00,-3.427734375000000000e-01,3.345947265625000000e-01,5.098266601562500000e-01,7.144775390625000000e-01
3.000000000000000000e+00,2.000000000000000000e+00,-3.000000000000000000e+00,4.600000000000000000e+01,7.000000000000000000e+00,-2.000000000000000000e+00,-1.000000000000000000e+00,-2.000000000000000000e+00,-3.427734375000000000e-01,3.345947265625000000e-01,5.098266601562500000e-01,7.144775390625000000e-01
-2.400000000000000000e+01,-1.000000000000000000e+00,1.800000000000000000e+01,-5.100000000000000000e+01,-1.100000000000000000e+01,1.000000000000000000e+00,0.000000000000000000e+00,-2.000000000000000000e+00,-3.427734375000000000e-01,3.345947265625000000e-01,5.098266601562500000e-01,7.144775390625000000e-01
-1.300000000000000000e+01,-6.000000000000000000e+00,-5.000000000000000000e+00,6.600000000000000000e+01,9.000000000000000000e+00,4.000000000000000000e+00,1.000000000000000000e+00,-5.000000000000000000e+00,-3.427734375000000000e-01,3.345947265625000000e-01,5.098266601562500000e-01,7.144775390625000000e-01
1.000000000000000000e+00,2.000000000000000000e+00,5.000000000000000000e+00,-6.200000000000000000e+01,1.000000000000000000e+00,-3.000000000000000000e+00,-1.000000000000000000e+00,-4.000000000000000000e+00,-3.437500000000000000e-01,3.352050781250000000e-01,5.098266601562500000e-01,7.138061523437500000e-01
-1.000000000000000000e+00,2.000000000000000000e+00,1.000000000000000000e+00,-2.500000000000000000e+01,-1.100000000000000000e+01,-2.000000000000000000e+00,-4.000000000000000000e+00,3.000000000000000000e+00,-3.437500000000000000e-01,3.352050781250000000e-01,5.098266601562500000e-01,7.138061523437500000e-01
7.000000000000000000e+00,0.000000000000000000e+00,-1.900000000000000000e+01,1.600000000000000000e+01,2.000000000000000000e+00,-1.000000000000000000e+00,1.000000000000000000e+00,9.000000000000000000e+00,-3.437500000000000000e-01,3.352050781250000000e-01,5.098266601562500000e-01,7.138061523437500000e-01
1.200000000000000000e+01,-7.000000000000000000e+00,-2.100000000000000000e+01,1.600000000000000000e+01,4.000000000000000000e+00,0.000000000000000000e+00,-3.000000000000000000e+00,-7.000000000000000000e+00,-3.437500000000000000e-01,3.352050781250000000e-01,5.098266601562500000e-01,7.138061523437500000e-01
-4.000000000000000000e+00,7.000000000000000000e+00,3.300000000000000000e+01,2.000000000000000000e+00,0.000000000000000000e+00,0.000000000000000000e+00,-3.000000000000000000e+00,0.000000000000000000e+00,-3.426513671875000000e-01,3.366699218750000000e-01,5.093383789062500000e-01,7.139282226562500000e-01
2.000000000000000000e+00,-1.000000000000000000e+01,-4.900000000000000000e+01,0.000000000000000000e+00,-1.000000000000000000e+00,5.000000000000000000e+00,6.000000000000000000e+00,1.300000000000000000e+01,-3.426513671875000000e-01,3.366699218750000000e-01,5.093383789062500000e-01,7.139282226562500000e-01
-2.000000000000000000e+00,2.000000000000000000e+00,-1.000000000000000000e+00,-1.800000000000000000e+01,-3.000000000000000000e+00,-2.000000000000000000e+00,-2.000000000000000000e+00,-1.000000000000000000e+01,-3.426513671875000000e-01,3.366699218750000000e-01,5.093383789062500000e-01,7.139282226562500000e-01
-1.100000000000000000e+01,-5.000000000000000000e+00,-6.000000000000000000e+00,-3.600000000000000000e+01,-4.000000000000000000e+00,0.000000000000000000e+00,-2.000000000000000000e+00,-2.000000000000000000e+00,-3.426513671875000000e-01,3.366699218750000000e-01,5.093383789062500000e-01,7.139282226562500000e-01
-1.300000000000000000e+01,1.000000000000000000e+00,1.700000000000000000e+01,6.500000000000000000e+01,1.400000000000000000e+01,3.000000000000000000e+00,0.000000000000000000e+00,-4.000000000000000000e+00,-3.412475585937500000e-01,3.381958007812500000e-01,5.093383789062500000e-01,7.138671875000000000e-01
2.000000000000000000e+00,0.000000000000000000e+00,9.000000000000000000e+00,-4.600000000000000000e+01,-9.000000000000000000e+00,-7.000000000000000000e+00,-3.000000000000000000e+00,-3.000000000000000000e+00,-3.412475585937500000e-01,3.381958007812500000e-01,5.093383789062500000e-01,7.138671875000000000e-01
6.000000000000000000e+00,-3.000000000000000000e+00,-9.000000000000000000e+00,1.100000000000000000e+01,-1.000000000000000000e+00,1.000000000000000000e+00,3.000000000000000000e+00,5.000000000000000000e+00,-3.412475585937500000e-01,3.381958007812500000e-01,5.093383789062500000e-01,7.138671875000000000e-01
7.000000000000000000e+00,-1.000000000000000000e+00,-7.000000000000000000e+00,-1.600000000000000000e+01,-4.000000000000000000e+00,-2.000000000000000000e+00,-2.000000000000000000e+00,4.000000000000000000e+00,-3.412475585937500000e-01,3.381958007812500000e-01,5.093383789062500000e-01,7.138671875000000000e-01
-4.000000000000000000e+00,-1.000000000000000000e+00,-9.000000000000000000e+00,0.000000000000000000e+00,0.000000000000000000e+00,-1.000000000000000000e+00,1.000000000000000000e+00,1.000000000000000000e+00,-3.403930664062500000e-01,3.397216796875000000e-01,5.097045898437500000e-01,7.133178710937500000e-01
-7.000000000000000000e+00,-3.000000000000000000e+00,-3.000000000000000000e+00,1.600000000000000000e+01,7.000000000000000000e+00,2.000000000000000000e+00,0.000000000000000000e+00,-8.000000000000000000e+00,-3.403930664062500000e-01,3.397216796875000000e-01,5.097045898437500000e-01,7.133178710937500000e-01
6.000000000000000000e+00,0.000000000000000000e+00,1.300000000000000000e+01,1.300000000000000000e+01,3.000000000000000000e+00,-2.000000000000000000e+00,-3.000000000000000000e+00,0.000000000000000000e+00,-3.403930664062500000e-01,3.397216796875000000e-01,5.097045898437500000e-01,7.133178710937500000e-01
-7.000000000000000000e+00,2.000000000000000000e+00,1.400000000000000000e+01,2.300000000000000000e+01,4.000000000000000000e+00,1.000000000000000000e+00,0.000000000000000000e+00,-1.000000000000000000e+00,-3.403930664062500000e-01,3.397216796875000000e-01,5.097045898437500000e-01,7.133178710937500000e-01
8.000000000000000000e+00,-4.000000000000000000e+00,5.000000000000000000e+00,-6.100000000000000000e+01,-1.500000000000000000e+01,-5.000000000000000000e+00,-1.000000000000000000e+00,1.000000000000000000e+00,-3.401489257812500000e-01,3.406982421875000000e-01,5.101928710937500000e-01,7.126464843750000000e-01
-6.000000000000000000e+00,-1.000000000000000000e+00,2.000000000000000000e+00,2.700000000000000000e+01,8.000000000000000000e+00,0.000000000000000000e+00,-3.000000000000000000e+00,-7.000000000000000000e+00,-3.401489257812500000e-01,3.406982421875000000e-01,5.101928710937500000e-01,7.126464843750000000e-01
1.600000000000000000e+01,0.000000000000000000e+00,-4.000000000000000000e+00,-2.900000000000000000e+01,-6.000000000000000000e+00,-2.000000000000000000e+00,0.000000000000000000e+00,2.000000000000000000e+00,-3.401489257812500000e-01,3.406982421875000000e-01,5.101928710937500000e-01,7.126464843750000000e-01
-2.000000000000000000e+00,2.000000000000000000e+00,-2.000000000000000000e+00,-2.000000000000000000e+01,-3.000000000000000000e+00,0.000000000000000000e+00,3.000000000000000000e+00,7.000000000000000000e+00,-3.401489257812500000e-01,3.406982421875000000e-01,5.101928710937500000e-01,7.126464843750000000e-01
1.300000000000000000e+01,3.000000000000000000e+00,-1.000000000000000000e+00,3.000000000000000000e+01,6.000000000000000000e+00,0.000000000000000000e+00,-1.000000000000000000e+00,-1.000000000000000000e+00,-3.397216796875000000e-01,3.417358398437500000e-01,5.103759765625000000e-01,7.122192382812500000e-01
-1.200000000000000000e+01,-4.000000000000000000e+00,8.000000000000000000e+00,6.000000000000000000e+00,-6.000000000000000000e+00,-7.000000000000000000e+00,-5.000000000000000000e+00,-7.000000000000000000e+00,-3.397216796875000000e-01,3.417358398437500000e-01,5.103759765625000000e-01,7.122192382812500000e-01
-6.000000000000000000e+00,-1.000000000000000000e+00,6.000000000000000000e+00,2.800000000000000000e+01,1.300000000000000000e+01,4.000000000000000000e+00,2.000000000000000000e+00,-4.000000000000000000e+00,-3.397216796875000000e-01,3.417358398437500000e-01,5.103759765625000000e-01,7.122192382812500000e-01
-3.000000000000000000e+00,-4.000000000000000000e+00,5.000000000000000000e+00,-2.700000000000000000e+01,-1.000000000000000000e+01,-5.000000000000000000e+00,-1.000000000000000000e+00,7.000000000000000000e+00,-3.397216796875000000e-01,3.417358398437500000e-01,5.103759765625000000e-01,7.122192382812500000e-01
1.600000000000000000e+01,2.000000000000000000e+00,-6.000000000000000000e+00,1.300000000000000000e+01,0.000000000000000000e+00,1.000000000000000000e+00,3.000000000000000000e+00,7.000000000000000000e+00,-3.395385742187500000e-01,3.424072265625000000e-01,5.101318359375000000e-01,7.121582031250000000e-01
-2.300000000000000000e+01,-3.000000000000000000e+00,4.000000000000000000e+00,-2.900000000000000000e+01,-3.000000000000000000e+00,0.000000000000000000e+00,-2.000000000000000000e+00,-2.000000000000000000e+00,-3.395385742187500000e-01,3.424072265625000000e-01,5.101318359375000000e-01,7.121582031250000000e-01
5.000000000000000000e+00,2.000000000000000000e+00,-1.000000000000000000e+01,2.100000000000000000e+01,-1.000000000000000000e+00,-3.000000000000000000e+00,-4.000000000000000000e+00,-2.100000000000000000e+01,-3.395385742187500000e-01,3.424072265625000000e-01,5.101318359375000000e-01,7.121582031250000000e-01
0.000000000000000000e+00,-7.000000000000000000e+00,-2.900000000000000000e+01,-2.100000000000000000e+01,-4.000000000000000000e+00,1.000000000000000000e+00,1.000000000000000000e+00,-1.000000000000000000e+00,-3.395385742187500000e-01,3.424072265625000000e-01,5.101318359375000000e-01,7.121582031250000000e-01
-2.000000000000000000e+00,-4.000000000000000000e+00,0.000000000000000000e+00,3.000000000000000000e+01,6.000000000000000000e+00,1.000000000000000000e+00,-1.000000000000000000e+00,-6.000000000000000000e+00,-3.389892578125000000e-01,3.431396484375000000e-01,5.097656250000000000e-01,7.123413085937500000e-01
-1.000000000000000000e+00,6.000000000000000000e+00,1.300000000000000000e+01,-3.000000000000000000e+01,-1.000000000000000000e+01,-5.000000000000000000e+00,-2.000000000000000000e+00,2.000000000000000000e+00,-3.389892578125000000e-01,3.431396484375000000e-01,5.097656250000000000e-01,7.123413085937500000e-01
-1.000000000000000000e+00,0.000000000000000000e+00,2.300000000000000000e+01,2.000000000000000000e+01,-1.000000000000000000e+00,-1.000000000000000000e+00,-2.000000000000000000e+00,6.000000000000000000e+00,-3.389892578125000000e-01,3.431396484375000000e-01,5.097656250000000000e-01,7.123413085937500000e-01
-4.000000000000000000e+00,-5.000000000000000000e+00,-3.300000000000000000e+01,-3.600000000000000000e+01,-8.000000000000000000e+00,-1.000000000000000000e+00,-3.000000000000000000e+00,-6.000000000000000000e+00,-3.389892578125000000e-01,3.431396484375000000e-01,5.097656250000000000e-01,7.123413085937500000e-01
-4.000000000000000000e+00,0.000000000000000000e+00,8.000000000000000000e+00,1.700000000000000000e+01,2.000000000000000000e+00,1.000000000000000000e+00,0.000000000000000000e+00,4.000000000000000000e+00,-3.389892578125000000e-01,3.436279296875000000e-01,5.094604492187500000e-01,7.122802734375000000e-01
-1.500000000000000000e+01,-6.000000000000000000e+00,-9.000000000000000000e+00,-1.300000000000000000e+01,1.000000000000000000e+00,2.000000000000000000e+00,-1.000000000000000000e+00,-5.000000000000000000e+00,-3.389892578125000000e-01,3.436279296875000000e-01,5.094604492187500000e-01,7.122802734375000000e-01
-1.400000000000000000e+01,-5.000000000000000000e+00,-1.000000000000000000e+01,2.400000000000000000e+01,2.000000000000000000e+00,-2.000000000000000000e+00,-2.000000000000000000e+00,0.000000000000000000e+00,-3.389892578125000000e-01,3.436279296875000000e-01,5.094604492187500000e-01,7.122802734375000000e-01
1.300000000000000000e+01,8.000000000000000000e+00,2.500000000000000000e+01,-7.000000000000000000e+00,-2.000000000000000000e+00,-3.000000000000000000e+00,-2.000000000000000000e+00,-4.000000000000000000e+00,-3.389892578125000000e-01,3.436279296875000000e-01,5.094604492187500000e-01,7.122802734375000000e-01
-2.000000000000000000e+00,-7.000000000000000000e+00,-3.200000000000000000e+01,-2.100000000000000000e+01,-5.000000000000000000e+00,-1.000000000000000000e+00,0.000000000000000000e+00,6.000000000000000000e+00,-3.395385742187500000e-01,3.438720703125000000e-01,5.092163085937500000e-01,7.120971679687500000e-01
5.000000000000000000e+00,-1.000000000000000000e+00,-6.000000000000000000e+00,6.400000000000000000e+01,4.000000000000000000e+00,-2.000000000000000000e+00,-4.000000000000000000e+00,-3.000000000000000000e+00,-3.395385742187500000e-01,3.438720703125000000e-01,5.092163085937500000e-01,7.120971679687500000e-01
3.000000000000000000e+00,-1.000000000000000000e+00,-3.000000000000000000e+00,-5.600000000000000000e+01,-4.000000000000000000e+00,1.000000000000000000e+00,0.000000000000000000e+00,-4.000000000000000000e+00,-3.395385742187500000e-01,3.438720703125000000e-01,5.092163085937500000e-01,7.120971679687500000e-01
-7.000000000000000000e+00,-2.000000000000000000e+00,-2.000000000000000000e+00,-3.000000000000000000e+00,4.000000000000000000e+00,3.000000000000000000e+00,4.000000000000000000e+00,5.000000000000000000e+00,-3.395385742187500000e-01,3.438720703125000000e-01,5.092163085937500000e-01,7.120971679687500000e-01
-7.000000000000000000e+00,1.000000000000000000e+00,4.000000000000000000e+00,-6.000000000000000000e+00,-4.000000000000000000e+00,-3.000000000000000000e+00,0.000000000000000000e+00,2.000000000000000000e+00,-3.399658203125000000e-01,3.437500000000000000e-01,5.088500976562500000e-01,7.122192382812500000e-01
1.900000000000000000e+01,4.000000000000000000e+00,2.100000000000000000e+01,-1.200000000000000000e+01,-5.000000000000000000e+00,-2.000000000000000000e+00,-2.000000000000000000e+00,-1.000000000000000000e+01,-3.399658203125000000e-01,3.437500000000000000e-01,5.088500976562500000e-01,7.122192382812500000e-01
