-5.000000000000000000e+00,-5.000000000000000000e+00,3.000000000000000000e+00,5.000000000000000000e+00,8.000000000000000000e+00,1.000000000000000000e+00,1.300000000000000000e+01,4.000000000000000000e+00,3.961181640625000000e-02,4.782104492187500000e-01,-1.478881835937500000e-01,8.647460937500000000e-01
1.500000000000000000e+01,-3.600000000000000000e+01,-1.000000000000000000e+00,0.000000000000000000e+00,0.000000000000000000e+00,0.000000000000000000e+00,1.100000000000000000e+01,1.300000000000000000e+01,3.961181640625000000e-02,4.782104492187500000e-01,-1.478881835937500000e-01,8.647460937500000000e-01
9.000000000000000000e+00,4.500000000000000000e+01,3.000000000000000000e+00,-1.000000000000000000e+01,-7.000000000000000000e+00,-1.000000000000000000e+00,-6.000000000000000000e+00,-7.000000000000000000e+00,3.961181640625000000e-02,4.782104492187500000e-01,-1.478881835937500000e-01,8.647460937500000000e-01
-2.000000000000000000e+00,-1.000000000000000000e+00,-4.000000000000000000e+00,-1.400000000000000000e+01,-1.200000000000000000e+01,-3.000000000000000000e+00,-6.000000000000000000e+00,-4.000000000000000000e+00,3.961181640625000000e-02,4.782104492187500000e-01,-1.478881835937500000e-01,8.647460937500000000e-01
1.000000000000000000e+00,0.000000000000000000e+00,-3.000000000000000000e+00,1.000000000000000000e+00,3.000000000000000000e+00,3.000000000000000000e+00,-2.000000000000000000e+00,-2.000000000000000000e+00,3.765869140625000000e-02,4.785766601562500000e-01,-1.477050781250000000e-01,8.646850585937500000e-01
3.000000000000000000e+00,-4.000000000000000000e+00,-1.000000000000000000e+00,1.100000000000000000e+01,7.000000000000000000e+00,0.000000000000000000e+00,0.000000000000000000e+00,-1.000000000000000000e+00,3.765869140625000000e-02,4.785766601562500000e-01,-1.477050781250000000e-01,8.646850585937500000e-01
-1.700000000000000000e+01,-1.800000000000000000e+01,-2.000000000000000000e+00,-5.000000000000000000e+00,-3.000000000000000000e+00,-3.000000000000000000e+00,-5.000000000000000000e+00,-6.000000000000000000e+00,3.765869140625000000e-02,4.785766601562500000e-01,-1.477050781250000000e-01,8.646850585937500000e-01
1.300000000000000000e+01,5.000000000000000000e+00,0.000000000000000000e+00,8.000000000000000000e+00,4.000000000000000000e+00,3.000000000000000000e+00,4.000000000000000000e+00,4.000000000000000000e+00,3.765869140625000000e-02,4.785766601562500000e-01,-1.477050781250000000e-01,8.646850585937500000e-01
0.000000000000000000e+00,-3.400000000000000000e+01,-1.700000000000000000e+01,-3.400000000000000000e+01,-1.700000000000000000e+01,-9.000000000000000000e+00,-8.000000000000000000e+00,-2.000000000000000000e+00,3.588867187500000000e-02,4.787597656250000000e-01,-1.470947265625000000e-01,8.647460937500000000e-01
0.000000000000000000e+00,3.400000000000000000e+01,1.000000000000000000e+00,-1.100000000000000000e+01,-1.200000000000000000e+01,-1.000000000000000000e+00,5.000000000000000000e+00,2.000000000000000000e+00,3.588867187500000000e-02,4.787597656250000000e-01,-1.470947265625000000e-01,8.647460937500000000e-01
-8.000000000000000000e+00,9.000000000000000000e+00,1.500000000000000000e+01,4.700000000000000000e+01,3.500000000000000000e+01,6.000000000000000000e+00,1.000000000000000000e+00,-3.000000000000000000e+00,3.588867187500000000e-02,4.787597656250000000e-01,-1.470947265625000000e-01,8.647460937500000000e-01
7.000000000000000000e+00,1.300000000000000000e+01,-2.000000000000000000e+00,5.000000000000000000e+00,2.000000000000000000e+00,2.000000000000000000e+00,6.000000000000000000e+00,0.000000000000000000e+00,3.588867187500000000e-02,4.787597656250000000e-01,-1.470947265625000000e-01,8.647460937500000000e-01
-1.000000000000000000e+00,-1.300000000000000000e+01,-2.500000000000000000e+01,-7.000000000000000000e+00,-6.000000000000000000e+00,-1.000000000000000000e+00,0.000000000000000000e+00,-1.000000000000000000e+00,3.454589843750000000e-02,4.789428710937500000e-01,-1.462402343750000000e-01,8.648681640625000000e-01
-3.000000000000000000e+00,-1.900000000000000000e+01,-3.000000000000000000e+00,-1.500000000000000000e+01,-8.000000000000000000e+00,-1.000000000000000000e+00,-7.000000000000000000e+00,-1.000000000000000000e+00,3.454589843750000000e-02,4.789428710937500000e-01,-1.462402343750000000e-01,8.648681640625000000e-01
1.300000000000000000e+01,-2.000000000000000000e+00,-6.000000000000000000e+00,-7.000000000000000000e+00,-9.000000000000000000e+00,-5.000000000000000000e+00,-4.000000000000000000e+00,1.000000000000000000e+00,3.454589843750000000e-02,4.789428710937500000e-01,-1.462402343750000000e-01,8.648681640625000000e-01
-4.000000000000000000e+00,-2.000000000000000000e+00,8.000000000000000000e+00,7.000000000000000000e+00,3.000000000000000000e+00,1.000000000000000000e+00,7.000000000000000000e+00,-2.000000000000000000e+00,3.454589843750000000e-02,4.789428710937500000e-01,-1.462402343750000000e-01,8.648681640625000000e-01
3.000000000000000000e+00,4.000000000000000000e+00,8.000000000000000000e+00,-1.300000000000000000e+01,-3.000000000000000000e+00,-1.000000000000000000e+00,-9.000000000000000000e+00,-5.000000000000000000e+00,3.332519531250000000e-02,4.790649414062500000e-01,-1.451416015625000000e-01,8.649902343750000000e-01
-2.000000000000000000e+00,1.900000000000000000e+01,3.000000000000000000e+00,1.500000000000000000e+01,1.300000000000000000e+01,6.000000000000000000e+00,1.300000000000000000e+01,3.000000000000000000e+00,3.332519531250000000e-02,4.790649414062500000e-01,-1.451416015625000000e-01,8.649902343750000000e-01
-4.000000000000000000e+00,-2.700000000000000000e+01,-7.000000000000000000e+00,-6.000000000000000000e+00,-7.000000000000000000e+00,-2.000000000000000000e+00,-1.600000000000000000e+01,-8.000000000000000000e+00,3.332519531250000000e-02,4.790649414062500000e-01,-1.451416015625000000e-01,8.649902343750000000e-01
5.000000000000000000e+00,-2.000000000000000000e+01,-6.000000000000000000e+00,0.000000000000000000e+00,2.000000000000000000e+00,-1.000000000000000000e+00,0.000000000000000000e+00,-2.000000000000000000e+00,3.332519531250000000e-02,4.790649414062500000e-01,-1.451416015625000000e-01,8.649902343750000000e-01
1.300000000000000000e+01,1.500000000000000000e+01,4.000000000000000000e+00,-1.200000000000000000e+01,-1.200000000000000000e+01,-5.000000000000000000e+00,3.000000000000000000e+00,5.000000000000000000e+00,3.265380859375000000e-02,4.790649414062500000e-01,-1.439819335937500000e-01,8.652343750000000000e-01
0.000000000000000000e+00,4.000000000000000000e+00,-4.000000000000000000e+00,6.000000000000000000e+00,2.000000000000000000e+00,-1.000000000000000000e+00,2.000000000000000000e+00,1.000000000000000000e+00,3.265380859375000000e-02,4.790649414062500000e-01,-1.439819335937500000e-01,8.652343750000000000e-01
-1.300000000000000000e+01,-4.000000000000000000e+00,1.000000000000000000e+00,-1.800000000000000000e+01,-5.000000000000000000e+00,-1.000000000000000000e+00,-1.000000000000000000e+00,0.000000000000000000e+00,3.265380859375000000e-02,4.790649414062500000e-01,-1.439819335937500000e-01,8.652343750000000000e-01
4.000000000000000000e+00,-7.000000000000000000e+00,3.000000000000000000e+00,3.800000000000000000e+01,1.300000000000000000e+01,0.000000000000000000e+00,-5.000000000000000000e+00,1.000000000000000000e+00,3.265380859375000000e-02,4.790649414062500000e-01,-1.439819335937500000e-01,8.652343750000000000e-01
-2.000000000000000000e+00,8.000000000000000000e+00,-2.000000000000000000e+00,-2.300000000000000000e+01,-1.600000000000000000e+01,-2.000000000000000000e+00,-4.000000000000000000e+00,-3.000000000000000000e+00,3.210449218750000000e-02,4.790649414062500000e-01,-1.422729492187500000e-01,8.655395507812500000e-01
-3.000000000000000000e+00,-1.000000000000000000e+00,0.000000000000000000e+00,2.800000000000000000e+01,2.100000000000000000e+01,1.000000000000000000e+00,-1.000000000000000000e+00,-2.000000000000000000e+00,3.210449218750000000e-02,4.790649414062500000e-01,-1.422729492187500000e-01,8.655395507812500000e-01
1.100000000000000000e+01,2.000000000000000000e+00,-5.000000000000000000e+00,-2.500000000000000000e+01,-1.200000000000000000e+01,-3.000000000000000000e+00,1.300000000000000000e+01,3.000000000000000000e+00,3.210449218750000000e-02,4.790649414062500000e-01,-1.422729492187500000e-01,8.655395507812500000e-01
-3.000000000000000000e+00,-4.000000000000000000e+01,-1.700000000000000000e+01,-4.000000000000000000e+00,-8.000000000000000000e+00,-7.000000000000000000e+00,-1.200000000000000000e+01,-3.000000000000000000e+00,3.210449218750000000e-02,4.790649414062500000e-01,-1.422729492187500000e-01,8.655395507812500000e-01
3.000000000000000000e+00,6.300000000000000000e+01,2.300000000000000000e+01,6.000000000000000000e+00,8.000000000000000000e+00,2.000000000000000000e+00,1.000000000000000000e+00,1.000000000000000000e+00,3.118896484375000000e-02,4.788208007812500000e-01,-1.405639648437500000e-01,8.660278320312500000e-01
-9.000000000000000000e+00,-4.800000000000000000e+01,-1.100000000000000000e+01,-3.000000000000000000e+00,-1.000000000000000000e+00,-3.000000000000000000e+00,-2.000000000000000000e+00,-9.000000000000000000e+00,3.118896484375000000e-02,4.788208007812500000e-01,-1.405639648437500000e-01,8.660278320312500000e-01
4.000000000000000000e+00,2.200000000000000000e+01,1.500000000000000000e+01,1.000000000000000000e+00,-4.000000000000000000e+00,-1.000000000000000000e+00,4.000000000000000000e+00,6.000000000000000000e+00,3.118896484375000000e-02,4.788208007812500000e-01,-1.405639648437500000e-01,8.660278320312500000e-01
2.000000000000000000e+00,-2.200000000000000000e+01,-8.000000000000000000e+00,-8.000000000000000000e+00,0.000000000000000000e+00,-3.000000000000000000e+00,-1.200000000000000000e+01,-3.000000000000000000e+00,3.118896484375000000e-02,4.788208007812500000e-01,-1.405639648437500000e-01,8.660278320312500000e-01
-7.000000000000000000e+00,3.500000000000000000e+01,1.800000000000000000e+01,1.700000000000000000e+01,5.000000000000000000e+00,2.000000000000000000e+00,1.200000000000000000e+01,1.000000000000000000e+00,3.051757812500000000e-02,4.780883789062500000e-01,-1.391601562500000000e-01,8.666381835937500000e-01
5.000000000000000000e+00,-7.000000000000000000e+00,-2.100000000000000000e+01,-1.500000000000000000e+01,-6.000000000000000000e+00,-3.000000000000000000e+00,-5.000000000000000000e+00,-1.000000000000000000e+00,3.051757812500000000e-02,4.780883789062500000e-01,-1.391601562500000000e-01,8.666381835937500000e-01
-1.000000000000000000e+01,1.000000000000000000e+00,-1.000000000000000000e+00,8.000000000000000000e+00,-2.000000000000000000e+00,-5.000000000000000000e+00,-1.000000000000000000e+00,-4.000000000000000000e+00,3.051757812500000000e-02,4.780883789062500000e-01,-1.391601562500000000e-01,8.666381835937500000e-01
-1.000000000000000000e+00,-2.000000000000000000e+00,-4.000000000000000000e+00,-3.000000000000000000e+00,4.000000000000000000e+00,0.000000000000000000e+00,5.000000000000000000e+00,3.000000000000000000e+00,3.051757812500000000e-02,4.780883789062500000e-01,-1.391601562500000000e-01,8.666381835937500000e-01
1.000000000000000000e+00,-1.500000000000000000e+01,5.000000000000000000e+00,8.000000000000000000e+00,7.000000000000000000e+00,1.000000000000000000e+00,-5.000000000000000000e+00,-2.000000000000000000e+00,3.112792968750000000e-02,4.771728515625000000e-01,-1.383666992187500000e-01,8.672485351562500000e-01
-4.000000000000000000e+00,2.700000000000000000e+01,9.000000000000000000e+00,-1.500000000000000000e+01,-4.000000000000000000e+00,-1.000000000000000000e+00,-3.000000000000000000e+00,3.000000000000000000e+00,3.112792968750000000e-02,4.771728515625000000e-01,-1.383666992187500000e-01,8.672485351562500000e-01
-2.000000000000000000e+00,-2.100000000000000000e+01,-8.000000000000000000e+00,2.800000000000000000e+01,-1.000000000000000000e+00,-2.000000000000000000e+00,-2.000000000000000000e+00,-1.000000000000000000e+00,3.112792968750000000e-02,4.771728515625000000e-01,-1.383666992187500000e-01,8.672485351562500000e-01
6.000000000000000000e+00,8.000000000000000000e+00,-4.000000000000000000e+00,-1.000000000000000000e+01,-5.000000000000000000e+00,0.000000000000000000e+00,1.000000000000000000e+01,3.000000000000000000e+00,3.112792968750000000e-02,4.771728515625000000e-01,-1.383666992187500000e-01,8.672485351562500000e-01
-7.000000000000000000e+00,-4.300000000000000000e+01,-2.200000000000000000e+01,-2.400000000000000000e+01,-1.000000000000000000e+01,-4.000000000000000000e+00,-6.000000000000000000e+00,-7.000000000000000000e+00,3.240966796875000000e-02,4.763183593750000000e-01,-1.376342773437500000e-01,8.677978515625000000e-01
7.000000000000000000e+00,5.000000000000000000e+00,2.100000000000000000e+01,2.400000000000000000e+01,1.100000000000000000e+01,3.000000000000000000e+00,3.000000000000000000e+00,3.000000000000000000e+00,3.240966796875000000e-02,4.763183593750000000e-01,-1.376342773437500000e-01,8.677978515625000000e-01
3.000000000000000000e+00,9.000000000000000000e+00,-5.000000000000000000e+00,-1.500000000000000000e+01,-4.000000000000000000e+00,1.000000000000000000e+00,9.000000000000000000e+00,-3.000000000000000000e+00,3.240966796875000000e-02,4.763183593750000000e-01,-1.376342773437500000e-01,8.677978515625000000e-01
6.000000000000000000e+00,9.000000000000000000e+00,2.000000000000000000e+00,-1.400000000000000000e+01,-9.000000000000000000e+00,-3.000000000000000000e+00,-1.700000000000000000e+01,-1.000000000000000000e+00,3.240966796875000000e-02,4.763183593750000000e-01,-1.376342773437500000e-01,8.677978515625000000e-01
-3.000000000000000000e+00,-6.000000000000000000e+00,-2.000000000000000000e+00,2.000000000000000000e+00,-3.000000000000000000e+00,-1.000000000000000000e+00,-7.000000000000000000e+00,-3.000000000000000000e+00,3.369140625000000000e-02,4.757690429687500000e-01,-1.371459960937500000e-01,8.681030273437500000e-01
-3.000000000000000000e+00,2.000000000000000000e+00,-1.000000000000000000e+00,-6.000000000000000000e+00,-6.000000000000000000e+00,-4.000000000000000000e+00,6.000000000000000000e+00,5.000000000000000000e+00,3.369140625000000000e-02,4.757690429687500000e-01,-1.371459960937500000e-01,8.681030273437500000e-01
6.000000000000000000e+00,-1.400000000000000000e+01,-2.000000000000000000e+00,-3.000000000000000000e+00,5.000000000000000000e+00,1.000000000000000000e+00,-6.000000000000000000e+00,0.000000000000000000e+00,3.369140625000000000e-02,4.757690429687500000e-01,-1.371459960937500000e-01,8.681030273437500000e-01
-2.600000000000000000e+01,6.000000000000000000e+00,-1.000000000000000000e+00,3.000000000000000000e+00,0.000000000000000000e+00,1.000000000000000000e+00,7.000000000000000000e+00,-6.000000000000000000e+00,3.369140625000000000e-02,4.757690429687500000e-01,-1.371459960937500000e-01,8.681030273437500000e-01
6.000000000000000000e+00,-9.000000000000000000e+00,-2.000000000000000000e+00,1.000000000000000000e+00,-1.000000000000000000e+00,-2.000000000000000000e+00,-1.500000000000000000e+01,-4.000000000000000000e+00,3.540039062500000000e-02,4.757690429687500000e-01,-1.365356445312500000e-01,8.681030273437500000e-01
-2.000000000000000000e+00,2.000000000000000000e+00,-1.000000000000000000e+00,6.000000000000000000e+00,-2.000000000000000000e+00,1.000000000000000000e+00,1.400000000000000000e+01,1.000000000000000000e+00,3.540039062500000000e-02,4.757690429687500000e-01,-1.365356445312500000e-01,8.681030273437500000e-01
-6.000000000000000000e+00,-9.000000000000000000e+00,-6.000000000000000000e+00,-1.000000000000000000e+00,0.000000000000000000e+00,-1.000000000000000000e+00,1.000000000000000000e+00,-1.000000000000000000e+00,3.540039062500000000e-02,4.757690429687500000e-01,-1.365356445312500000e-01,8.681030273437500000e-01
-1.400000000000000000e+01,2.100000000000000000e+01,7.000000000000000000e+00,0.000000000000000000e+00,-1.000000000000000000e+00,-3.000000000000000000e+00,-1.000000000000000000e+00,-1.000000000000000000e+00,3.540039062500000000e-02,4.757690429687500000e-01,-1.365356445312500000e-01,8.681030273437500000e-01
-2.000000000000000000e+00,-8.000000000000000000e+00,-2.000000000000000000e+00,-3.300000000000000000e+01,-6.000000000000000000e+00,-1.000000000000000000e+00,-2.000000000000000000e+00,1.000000000000000000e+00,3.588867187500000000e-02,4.761962890625000000e-01,-1.356811523437500000e-01,8.680419921875000000e-01
-1.000000000000000000e+00,7.000000000000000000e+00,-1.000000000000000000e+00,2.600000000000000000e+01,5.000000000000000000e+00,1.000000000000000000e+00,-2.000000000000000000e+01,-4.000000000000000000e+00,3.588867187500000000e-02,4.761962890625000000e-01,-1.356811523437500000e-01,8.680419921875000000e-01
-7.000000000000000000e+00,-3.500000000000000000e+01,-1.700000000000000000e+01,5.000000000000000000e+00,-5.000000000000000000e+00,1.000000000000000000e+00,1.400000000000000000e+01,3.000000000000000000e+00,3.588867187500000000e-02,4.761962890625000000e-01,-1.356811523437500000e-01,8.680419921875000000e-01
5.000000000000000000e+00,7.000000000000000000e+00,1.500000000000000000e+01,-2.000000000000000000e+00,1.000000000000000000e+00,1.000000000000000000e+00,-3.000000000000000000e+00,-2.000000000000000000e+00,3.588867187500000000e-02,4.761962890625000000e-01,-1.356811523437500000e-01,8.680419921875000000e-01
-2.000000000000000000e+00,2.200000000000000000e+01,-6.000000000000000000e+00,-2.400000000000000000e+01,-8.000000000000000000e+00,-1.000000000000000000e+00,6.000000000000000000e+00,-4.000000000000000000e+00,3.637695312500000000e-02,4.768676757812500000e-01,-1.358642578125000000e-01,8.676147460937500000e-01
1.200000000000000000e+01,1.200000000000000000e+01,1.000000000000000000e+01,1.800000000000000000e+01,1.700000000000000000e+01,2.000000000000000000e+00,-8.000000000000000000e+00,2.000000000000000000e+00,3.637695312500000000e-02,4.768676757812500000e-01,-1.358642578125000000e-01,8.676147460937500000e-01
4.000000000000000000e+00,-4.000000000000000000e+00,-1.000000000000000000e+00,-1.000000000000000000e+01,2.000000000000000000e+00,-2.000000000000000000e+00,-1.000000000000000000e+01,-2.000000000000000000e+00,3.637695312500000000e-02,4.768676757812500000e-01,-1.358642578125000000e-01,8.676147460937500000e-01
-4.000000000000000000e+00,-5.000000000000000000e+00,-9.000000000000000000e+00,2.000000000000000000e+00,-3.000000000000000000e+00,-3.000000000000000000e+00,-6.000000000000000000e+00,-5.000000000000000000e+00,3.637695312500000000e-02,4.768676757812500000e-01,-1.358642578125000000e-01,8.676147460937500000e-01
-8.000000000000000000e+00,-1.600000000000000000e+01,2.000000000000000000e+00,1.300000000000000000e+01,3.000000000000000000e+00,3.000000000000000000e+00,-1.000000000000000000e+00,-1.000000000000000000e+00,3.771972656250000000e-02,4.775390625000000000e-01,-1.365966796875000000e-01,8.670654296875000000e-01
5.000000000000000000e+00,3.000000000000000000e+00,0.000000000000000000e+00,-1.800000000000000000e+01,-9.000000000000000000e+00,-1.000000000000000000e+00,1.100000000000000000e+01,6.000000000000000000e+00,3.771972656250000000e-02,4.775390625000000000e-01,-1.365966796875000000e-01,8.670654296875000000e-01
1.000000000000000000e+00,1.300000000000000000e+01,3.000000000000000000e+00,1.000000000000000000e+00,-6.000000000000000000e+00,-2.000000000000000000e+00,-4.000000000000000000e+00,0.000000000000000000e+00,3.771972656250000000e-02,4.775390625000000000e-01,-1.365966796875000000e-01,8.670654296875000000e-01
1.100000000000000000e+01,-1.600000000000000000e+01,-1.100000000000000000e+01,-1.300000000000000000e+01,5.000000000000000000e+00,0.000000000000000000e+00,0.000000000000000000e+00,4.000000000000000000e+00,3.771972656250000000e-02,4.775390625000000000e-01,-1.365966796875000000e-01,8.670654296875000000e-01
-1.200000000000000000e+01,-1.200000000000000000e+01,-4.000000000000000000e+00,2.500000000000000000e+01,3.000000000000000000e+00,-1.000000000000000000e+00,3.000000000000000000e+00,-5.000000000000000000e+00,3.814697265625000000e-02,4.782714843750000000e-01,-1.368408203125000000e-01,8.666381835937500000e-01
-7.000000000000000000e+00,-2.200000000000000000e+01,-4.000000000000000000e+00,-1.300000000000000000e+01,-4.000000000000000000e+00,0.000000000000000000e+00,-3.000000000000000000e+00,-2.000000000000000000e+00,3.814697265625000000e-02,4.782714843750000000e-01,-1.368408203125000000e-01,8.666381835937500000e-01
-1.600000000000000000e+01,3.900000000000000000e+01,7.000000000000000000e+00,-3.000000000000000000e+00,2.000000000000000000e+00,-1.000000000000000000e+00,0.000000000000000000e+00,3.000000000000000000e+00,3.814697265625000000e-02,4.782714843750000000e-01,-1.368408203125000000e-01,8.666381835937500000e-01
8.000000000000000000e+00,0.000000000000000000e+00,-6.000000000000000000e+00,-9.000000000000000000e+00,-1.800000000000000000e+01,-3.000000000000000000e+00,1.000000000000000000e+00,-1.000000000000000000e+00,3.814697265625000000e-02,4.782714843750000000e-01,-1.368408203125000000e-01,8.666381835937500000e-01
7.000000000000000000e+00,6.000000000000000000e+00,8.000000000000000000e+00,4.900000000000000000e+01,1.800000000000000000e+01,3.000000000000000000e+00,1.600000000000000000e+01,3.000000000000000000e+00,3.814697265625000000e-02,4.788208007812500000e-01,-1.373291015625000000e-01,8.662109375000000000e-01
3.000000000000000000e+00,4.000000000000000000e+00,5.000000000000000000e+00,1.000000000000000000e+01,5.000000000000000000e+00,2.000000000000000000e+00,-6.000000000000000000e+00,0.000000000000000000e+00,3.814697265625000000e-02,4.788208007812500000e-01,-1.373291015625000000e-01,8.662109375000000000e-01
0.000000000000000000e+00,-2.300000000000000000e+01,-1.100000000000000000e+01,-9.000000000000000000e+00,-6.000000000000000000e+00,-5.000000000000000000e+00,-1.100000000000000000e+01,-1.000000000000000000e+00,3.814697265625000000e-02,4.788208007812500000e-01,-1.373291015625000000e-01,8.662109375000000000e-01
-3.000000000000000000e+00,-1.600000000000000000e+01,-1.000000000000000000e+01,-7.000000000000000000e+00,-2.000000000000000000e+00,-2.000000000000000000e+00,-5.000000000000000000e+00,-7.000000000000000000e+00,3.814697265625000000e-02,4.788208007812500000e-01,-1.373291015625000000e-01,8.662109375000000000e-01
-1.000000000000000000e+00,2.900000000000000000e+01,4.000000000000000000e+00,-4.000000000000000000e+00,-4.000000000000000000e+00,-2.000000000000000000e+00,-2.000000000000000000e+00,-1.000000000000000000e+00,3.851318359375000000e-02,4.791259765625000000e-01,-1.384277343750000000e-01,8.659057617187500000e-01
-4.000000000000000000e+00,-6.000000000000000000e+00,-6.000000000000000000e+00,-1.500000000000000000e+01,-1.700000000000000000e+01,-9.000000000000000000e+00,-6.000000000000000000e+00,-3.000000000000000000e+00,3.851318359375000000e-02,4.791259765625000000e-01,-1.384277343750000000e-01,8.659057617187500000e-01
-1.000000000000000000e+00,-1.000000000000000000e+00,4.000000000000000000e+00,7.000000000000000000e+00,1.400000000000000000e+01,3.000000000000000000e+00,3.000000000000000000e+00,3.000000000000000000e+00,3.851318359375000000e-02,4.791259765625000000e-01,-1.384277343750000000e-01,8.659057617187500000e-01
4.000000000000000000e+00,5.000000000000000000e+00,-3.000000000000000000e+00,-7.000000000000000000e+00,-4.000000000000000000e+00,-2.000000000000000000e+00,-1.000000000000000000e+00,-1.000000000000000000e+00,3.851318359375000000e-02,4.791259765625000000e-01,-1.384277343750000000e-01,8.659057617187500000e-01
-3.000000000000000000e+00,-3.100000000000000000e+01,-7.000000000000000000e+00,9.000000000000000000e+00,-1.000000000000000000e+00,-3.000000000000000000e+00,-1.200000000000000000e+01,-2.000000000000000000e+00,3.887939453125000000e-02,4.790039062500000000e-01,-1.394042968750000000e-01,8.657836914062500000e-01
-4.000000000000000000e+00,1.200000000000000000e+01,2.000000000000000000e+00,-7.000000000000000000e+00,0.000000000000000000e+00,-2.000000000000000000e+00,6.000000000000000000e+00,-4.000000000000000000e+00,3.887939453125000000e-02,4.790039062500000000e-01,-1.394042968750000000e-01,8.657836914062500000e-01
-8.000000000000000000e+00,-1.500000000000000000e+01,-7.000000000000000000e+00,-9.000000000000000000e+00,-1.000000000000000000e+01,-3.000000000000000000e+00,-3.000000000000000000e+00,-4.000000000000000000e+00,3.887939453125000000e-02,4.790039062500000000e-01,-1.394042968750000000e-01,8.657836914062500000e-01
3.000000000000000000e+00,6.000000000000000000e+00,5.000000000000000000e+00,5.000000000000000000e+00,4.000000000000000000e+00,-3.000000000000000000e+00,1.000000000000000000e+00,0.000000000000000000e+00,3.887939453125000000e-02,4.790039062500000000e-01,-1.394042968750000000e-01,8.657836914062500000e-01
-1.000000000000000000e+01,-3.700000000000000000e+01,-1.100000000000000000e+01,-2.000000000000000000e+00,-1.000000000000000000e+00,0.000000000000000000e+00,1.000000000000000000e+00,0.000000000000000000e+00,3.894042968750000000e-02,4.787597656250000000e-01,-1.398925781250000000e-01,8.658447265625000000e-01
-7.000000000000000000e+00,5.400000000000000000e+01,1.300000000000000000e+01,-1.100000000000000000e+01,-5.000000000000000000e+00,-2.000000000000000000e+00,-7.000000000000000000e+00,-6.000000000000000000e+00,3.894042968750000000e-02,4.787597656250000000e-01,-1.398925781250000000e-01,8.658447265625000000e-01
2.000000000000000000e+00,-9.000000000000000000e+00,-1.000000000000000000e+00,5.000000000000000000e+00,-2.000000000000000000e+00,-2.000000000000000000e+00,0.000000000000000000e+00,-3.000000000000000000e+00,3.894042968750000000e-02,4.787597656250000000e-01,-1.398925781250000000e-01,8.658447265625000000e-01
-2.000000000000000000e+00,1.100000000000000000e+01,5.000000000000000000e+00,-3.000000000000000000e+01,-4.000000000000000000e+00,1.000000000000000000e+00,7.000000000000000000e+00,1.000000000000000000e+00,3.894042968750000000e-02,4.787597656250000000e-01,-1.398925781250000000e-01,8.658447265625000000e-01
1.000000000000000000e+00,-1.600000000000000000e+01,-6.000000000000000000e+00,-5.000000000000000000e+00,2.000000000000000000e+00,-3.000000000000000000e+00,-4.000000000000000000e+00,4.000000000000000000e+00,3.881835937500000000e-02,4.782714843750000000e-01,-1.401367187500000000e-01,8.660278320312500000e-01
-6.000000000000000000e+00,-2.100000000000000000e+01,-3.000000000000000000e+00,1.900000000000000000e+01,1.300000000000000000e+01,6.000000000000000000e+00,2.000000000000000000e+00,-2.000000000000000000e+00,3.881835937500000000e-02,4.782714843750000000e-01,-1.401367187500000000e-01,8.660278320312500000e-01
3.000000000000000000e+00,2.000000000000000000e+00,7.000000000000000000e+00,-2.000000000000000000e+00,-2.000000000000000000e+00,3.000000000000000000e+00,3.000000000000000000e+00,0.000000000000000000e+00,3.881835937500000000e-02,4.782714843750000000e-01,-1.401367187500000000e-01,8.660278320312500000e-01
-4.000000000000000000e+00,0.000000000000000000e+00,4.000000000000000000e+00,-1.000000000000000000e+00,1.000000000000000000e+00,-1.000000000000000000e+00,-2.000000000000000000e+00,-3.000000000000000000e+00,3.881835937500000000e-02,4.782714843750000000e-01,-1.401367187500000000e-01,8.660278320312500000e-01
-1.000000000000000000e+00,1.000000000000000000e+01,-4.000000000000000000e+00,-3.400000000000000000e+01,-1.500000000000000000e+01,-6.000000000000000000e+00,-1.100000000000000000e+01,-5.000000000000000000e+00,3.875732421875000000e-02,4.776611328125000000e-01,-1.405639648437500000e-01,8.662719726562500000e-01
9.000000000000000000e+00,-1.600000000000000000e+01,-8.000000000000000000e+00,-3.000000000000000000e+00,-8.000000000000000000e+00,2.000000000000000000e+00,1.400000000000000000e+01,8.000000000000000000e+00,3.875732421875000000e-02,4.776611328125000000e-01,-1.405639648437500000e-01,8.662719726562500000e-01
4.000000000000000000e+00,8.000000000000000000e+00,8.000000000000000000e+00,1.200000000000000000e+01,7.000000000000000000e+00,2.000000000000000000e+00,-1.000000000000000000e+00,-2.000000000000000000e+00,3.875732421875000000e-02,4.776611328125000000e-01,-1.405639648437500000e-01,8.662719726562500000e-01
2.000000000000000000e+00,-7.000000000000000000e+00,-8.000000000000000000e+00,5.000000000000000000e+00,2.000000000000000000e+00,1.000000000000000000e+00,6.000000000000000000e+00,1.000000000000000000e+00,3.875732421875000000e-02,4.776611328125000000e-01,-1.405639648437500000e-01,8.662719726562500000e-01
-5.000000000000000000e+00,-4.000000000000000000e+00,2.000000000000000000e+00,4.000000000000000000e+00,-1.000000000000000000e+00,-3.000000000000000000e+00,6.000000000000000000e+00,0.000000000000000000e+00,3.863525390625000000e-02,4.769287109375000000e-01,-1.409301757812500000e-01,8.666381835937500000e-01
-3.000000000000000000e+00,-5.000000000000000000e+00,-8.000000000000000000e+00,-1.000000000000000000e+01,-7.000000000000000000e+00,-5.000000000000000000e+00,-1.400000000000000000e+01,-6.000000000000000000e+00,3.863525390625000000e-02,4.769287109375000000e-01,-1.409301757812500000e-01,8.666381835937500000e-01
-2.200000000000000000e+01,1.000000000000000000e+00,-2.000000000000000000e+00,-5.000000000000000000e+00,-3.000000000000000000e+00,-2.000000000000000000e+00,-6.000000000000000000e+00,-6.000000000000000000e+00,3.863525390625000000e-02,4.769287109375000000e-01,-1.409301757812500000e-01,8.666381835937500000e-01
-3.000000000000000000e+00,2.000000000000000000e+00,1.000000000000000000e+01,1.000000000000000000e+01,3.000000000000000000e+00,1.000000000000000000e+00,-9.000000000000000000e+00,4.000000000000000000e+00,3.863525390625000000e-02,4.769287109375000000e-01,-1.409301757812500000e-01,8.666381835937500000e-01
1.200000000000000000e+01,1.000000000000000000e+00,-1.100000000000000000e+01,7.000000000000000000e+00,-1.000000000000000000e+00,2.000000000000000000e+00,1.300000000000000000e+01,1.000000000000000000e+01,3.851318359375000000e-02,4.763183593750000000e-01,-1.411132812500000000e-01,8.669433593750000000e-01
0.000000000000000000e+00,1.000000000000000000e+00,3.000000000000000000e+00,-4.000000000000000000e+00,4.000000000000000000e+00,2.000000000000000000e+00,7.000000000000000000e+00,-1.000000000000000000e+00,3.851318359375000000e-02,4.763183593750000000e-01,-1.411132812500000000e-01,8.669433593750000000e-01
9.000000000000000000e+00,3.000000000000000000e+00,-2.000000000000000000e+00,-1.300000000000000000e+01,-3.000000000000000000e+00,-5.000000000000000000e+00,-5.000000000000000000e+00,2.000000000000000000e+00,3.851318359375000000e-02,4.763183593750000000e-01,-1.411132812500000000e-01,8.669433593750000000e-01
-8.000000000000000000e+00,-5.000000000000000000e+00,1.000000000000000000e+00,2.800000000000000000e+01,-1.000000000000000000e+00,-2.000000000000000000e+00,-6.000000000000000000e+00,-9.000000000000000000e+00,3.851318359375000000e-02,4.763183593750000000e-01,-1.411132812500000000e-01,8.669433593750000000e-01
-6.000000000000000000e+00,1.200000000000000000e+01,1.000000000000000000e+00,-1.000000000000000000e+01,1.000000000000000000e+00,1.000000000000000000e+00,2.000000000000000000e+00,-2.000000000000000000e+00,3.845214843750000000e-02,4.760131835937500000e-01,-1.409301757812500000e-01,8.671875000000000000e-01
0.000000000000000000e+00,0.000000000000000000e+00,-8.000000000000000000e+00,-7.000000000000000000e+00,1.000000000000000000e+00,-4.000000000000000000e+00,-7.000000000000000000e+00,-3.000000000000000000e+00,3.845214843750000000e-02,4.760131835937500000e-01,-1.409301757812500000e-01,8.671875000000000000e-01
1.100000000000000000e+01,1.500000000000000000e+01,0.000000000000000000e+00,2.100000000000000000e+01,3.000000000000000000e+00,2.000000000000000000e+00,6.000000000000000000e+00,3.000000000000000000e+00,3.845214843750000000e-02,4.760131835937500000e-01,-1.409301757812500000e-01,8.671875000000000000e-01
-1.000000000000000000e+00,-6.000000000000000000e+00,2.000000000000000000e+00,1.000000000000000000e+00,-9.000000000000000000e+00,-4.000000000000000000e+00,-5.000000000000000000e+00,-2.000000000000000000e+00,3.845214843750000000e-02,4.760131835937500000e-01,-1.409301757812500000e-01,8.671875000000000000e-01
1.000000000000000000e+00,-4.000000000000000000e+00,-4.000000000000000000e+00,-7.000000000000000000e+00,7.000000000000000000e+00,3.000000000000000000e+00,1.000000000000000000e+00,-1.000000000000000000e+00,3.833007812500000000e-02,4.760742187500000000e-01,-1.405029296875000000e-01,8.671875000000000000e-01
-7.000000000000000000e+00,9.000000000000000000e+00,1.000000000000000000e+00,1.100000000000000000e+01,4.000000000000000000e+00,-2.000000000000000000e+00,2.000000000000000000e+00,-1.000000000000000000e+00,3.833007812500000000e-02,4.760742187500000000e-01,-1.405029296875000000e-01,8.671875000000000000e-01
2.000000000000000000e+00,-3.000000000000000000e+00,-1.000000000000000000e+00,-2.200000000000000000e+01,-1.800000000000000000e+01,-3.000000000000000000e+00,0.000000000000000000e+00,0.000000000000000000e+00,3.833007812500000000e-02,4.760742187500000000e-01,-1.405029296875000000e-01,8.671875000000000000e-01
1.100000000000000000e+01,4.000000000000000000e+00,-1.000000000000000000e+00,-6.000000000000000000e+00,1.000000000000000000e+00,-1.000000000000000000e+00,1.000000000000000000e+00,2.000000000000000000e+00,3.833007812500000000e-02,4.760742187500000000e-01,-1.405029296875000000e-01,8.671875000000000000e-01
-8.000000000000000000e+00,-1.700000000000000000e+01,-3.000000000000000000e+00,8.000000000000000000e+00,-2.000000000000000000e+00,-3.000000000000000000e+00,-1.000000000000000000e+01,-5.000000000000000000e+00,3.839111328125000000e-02,4.762573242187500000e-01,-1.400146484375000000e-01,8.671875000000000000e-01
1.300000000000000000e+01,1.500000000000000000e+01,1.000000000000000000e+01,-9.000000000000000000e+00,-5.000000000000000000e+00,-5.000000000000000000e+00,-7.000000000000000000e+00,-6.000000000000000000e+00,3.839111328125000000e-02,4.762573242187500000e-01,-1.400146484375000000e-01,8.671875000000000000e-01
-1.300000000000000000e+01,-1.600000000000000000e+01,-8.000000000000000000e+00,-2.300000000000000000e+01,-2.000000000000000000e+00,-5.000000000000000000e+00,-2.900000000000000000e+01,-1.700000000000000000e+01,3.839111328125000000e-02,4.762573242187500000e-01,-1.400146484375000000e-01,8.671875000000000000e-01
1.000000000000000000e+01,3.000000000000000000e+00,-5.000000000000000000e+00,2.800000000000000000e+01,6.000000000000000000e+00,8.000000000000000000e+00,3.200000000000000000e+01,1.900000000000000000e+01,3.839111328125000000e-02,4.762573242187500000e-01,-1.400146484375000000e-01,8.671875000000000000e-01
6.000000000000000000e+00,-3.000000000000000000e+00,-8.000000000000000000e+00,4.000000000000000000e+00,-3.000000000000000000e+00,0.000000000000000000e+00,6.000000000000000000e+00,5.000000000000000000e+00,3.833007812500000000e-02,4.765625000000000000e-01,-1.398925781250000000e-01,8.670654296875000000e-01
-6.000000000000000000e+00,-3.000000000000000000e+00,1.000000000000000000e+00,-6.000000000000000000e+00,-4.000000000000000000e+00,-3.000000000000000000e+00,1.000000000000000000e+00,3.000000000000000000e+00,3.833007812500000000e-02,4.765625000000000000e-01,-1.398925781250000000e-01,8.670654296875000000e-01
2.000000000000000000e+00,1.400000000000000000e+01,3.000000000000000000e+00,4.000000000000000000e+00,2.000000000000000000e+00,-1.000000000000000000e+00,-2.000000000000000000e+00,-3.000000000000000000e+00,3.833007812500000000e-02,4.765625000000000000e-01,-1.398925781250000000e-01,8.670654296875000000e-01
-8.000000000000000000e+00,-1.000000000000000000e+00,3.000000000000000000e+00,-5.000000000000000000e+00,0.000000000000000000e+00,-4.000000000000000000e+00,-2.000000000000000000e+01,-1.300000000000000000e+01,3.833007812500000000e-02,4.765625000000000000e-01,-1.398925781250000000e-01,8.670654296875000000e-01
-6.000000000000000000e+00,-5.000000000000000000e+00,-7.000000000000000000e+00,-2.600000000000000000e+01,-1.700000000000000000e+01,-4.000000000000000000e+00,-7.000000000000000000e+00,-7.000000000000000000e+00,3.869628906250000000e-02,4.768066406250000000e-01,-1.401977539062500000e-01,8.668823242187500000e-01
-1.000000000000000000e+00,-4.000000000000000000e+00,6.000000000000000000e+00,4.000000000000000000e+01,2.200000000000000000e+01,6.000000000000000000e+00,8.000000000000000000e+00,5.000000000000000000e+00,3.869628906250000000e-02,4.768066406250000000e-01,-1.401977539062500000e-01,8.668823242187500000e-01
2.000000000000000000e+00,3.000000000000000000e+00,6.000000000000000000e+00,1.400000000000000000e+01,1.200000000000000000e+01,2.000000000000000000e+00,3.000000000000000000e+00,1.000000000000000000e+00,3.869628906250000000e-02,4.768066406250000000e-01,-1.401977539062500000e-01,8.668823242187500000e-01
-7.000000000000000000e+00,-2.000000000000000000e+00,4.000000000000000000e+00,-9.000000000000000000e+00,-1.000000000000000000e+00,-2.000000000000000000e+00,-3.000000000000000000e+00,-2.000000000000000000e+00,3.869628906250000000e-02,4.768066406250000000e-01,-1.401977539062500000e-01,8.668823242187500000e-01
0.000000000000000000e+00,-1.000000000000000000e+00,-3.000000000000000000e+00,1.000000000000000000e+00,9.000000000000000000e+00,4.000000000000000000e+00,7.000000000000000000e+00,2.000000000000000000e+00,3.894042968750000000e-02,4.769897460937500000e-01,-1.401367187500000000e-01,8.667602539062500000e-01
-2.000000000000000000e+00,-5.000000000000000000e+00,-3.000000000000000000e+00,-2.000000000000000000e+01,-1.600000000000000000e+01,-3.000000000000000000e+00,-8.000000000000000000e+00,-3.000000000000000000e+00,3.894042968750000000e-02,4.769897460937500000e-01,-1.401367187500000000e-01,8.667602539062500000e-01
9.000000000000000000e+00,0.000000000000000000e+00,-4.000000000000000000e+00,2.000000000000000000e+00,-2.000000000000000000e+00,-3.000000000000000000e+00,1.000000000000000000e+00,-1.000000000000000000e+00,3.894042968750000000e-02,4.769897460937500000e-01,-1.401367187500000000e-01,8.667602539062500000e-01
-5.000000000000000000e+00,-1.000000000000000000e+00,1.000000000000000000e+00,2.000000000000000000e+00,5.000000000000000000e+00,2.000000000000000000e+00,-3.000000000000000000e+00,-4.000000000000000000e+00,3.894042968750000000e-02,4.769897460937500000e-01,-1.401367187500000000e-01,8.667602539062500000e-01
3.000000000000000000e+00,-5.000000000000000000e+00,-2.000000000000000000e+00,-9.000000000000000000e+00,-4.000000000000000000e+00,-6.000000000000000000e+00,4.000000000000000000e+00,1.000000000000000000e+00,3.826904296875000000e-02,4.771118164062500000e-01,-1.399536132812500000e-01,8.667602539062500000e-01
-3.400000000000000000e+01,-2.900000000000000000e+01,-3.000000000000000000e+00,-4.000000000000000000e+00,-2.000000000000000000e+00,-2.000000000000000000e+00,-9.000000000000000000e+00,-9.000000000000000000e+00,3.826904296875000000e-02,4.771118164062500000e-01,-1.399536132812500000e-01,8.667602539062500000e-01
3.000000000000000000e+00,4.000000000000000000e+00,-3.000000000000000000e+00,-4.000000000000000000e+00,0.000000000000000000e+00,1.000000000000000000e+00,9.000000000000000000e+00,3.000000000000000000e+00,3.826904296875000000e-02,4.771118164062500000e-01,-1.399536132812500000e-01,8.667602539062500000e-01
5.000000000000000000e+00,2.000000000000000000e+01,-4.000000000000000000e+00,-3.200000000000000000e+01,-4.000000000000000000e+00,1.000000000000000000e+00,-3.000000000000000000e+00,1.000000000000000000e+00,3.826904296875000000e-02,4.771118164062500000e-01,-1.399536132812500000e-01,8.667602539062500000e-01
1.000000000000000000e+00,3.100000000000000000e+01,1.100000000000000000e+01,3.600000000000000000e+01,8.000000000000000000e+00,0.000000000000000000e+00,0.000000000000000000e+00,0.000000000000000000e+00,3.771972656250000000e-02,4.769287109375000000e-01,-1.401977539062500000e-01,8.668212890625000000e-01
-2.000000000000000000e+00,-7.000000000000000000e+00,-5.000000000000000000e+00,-9.000000000000000000e+00,-7.000000000000000000e+00,-5.000000000000000000e+00,-3.000000000000000000e+00,-5.000000000000000000e+00,3.771972656250000000e-02,4.769287109375000000e-01,-1.401977539062500000e-01,8.668212890625000000e-01
-8.000000000000000000e+00,-3.000000000000000000e+01,-9.000000000000000000e+00,2.000000000000000000e+00,-3.000000000000000000e+00,-2.000000000000000000e+00,-2.000000000000000000e+00,-1.000000000000000000e+00,3.771972656250000000e-02,4.769287109375000000e-01,-1.401977539062500000e-01,8.668212890625000000e-01
-1.300000000000000000e+01,-6.000000000000000000e+00,-4.000000000000000000e+00,-1.000000000000000000e+01,-9.000000000000000000e+00,-3.000000000000000000e+00,0.000000000000000000e+00,-6.000000000000000000e+00,3.771972656250000000e-02,4.769287109375000000e-01,-1.401977539062500000e-01,8.668212890625000000e-01
-9.000000000000000000e+00,-1.100000000000000000e+01,1.000000000000000000e+00,3.000000000000000000e+01,2.000000000000000000e+00,2.000000000000000000e+00,-2.000000000000000000e+00,2.000000000000000000e+00,3.765869140625000000e-02,4.766845703125000000e-01,-1.406860351562500000e-01,8.668823242187500000e-01
1.800000000000000000e+01,1.000000000000000000e+01,1.000000000000000000e+00,-2.000000000000000000e+00,3.000000000000000000e+00,-1.000000000000000000e+00,-2.000000000000000000e+00,-4.000000000000000000e+00,3.765869140625000000e-02,4.766845703125000000e-01,-1.406860351562500000e-01,8.668823242187500000e-01
-3.000000000000000000e+00,2.700000000000000000e+01,8.000000000000000000e+00,-6.000000000000000000e+00,-8.000000000000000000e+00,0.000000000000000000e+00,-2.000000000000000000e+00,3.000000000000000000e+00,3.765869140625000000e-02,4.766845703125000000e-01,-1.406860351562500000e-01,8.668823242187500000e-01
-1.000000000000000000e+00,-4.000000000000000000e+00,0.000000000000000000e+00,3.000000000000000000e+00,5.000000000000000000e+00,-1.000000000000000000e+00,1.000000000000000000e+00,-2.000000000000000000e+00,3.765869140625000000e-02,4.766845703125000000e-01,-1.406860351562500000e-01,8.668823242187500000e-01
-2.000000000000000000e+00,-2.000000000000000000e+00,2.000000000000000000e+00,-2.400000000000000000e+01,-1.200000000000000000e+01,-6.000000000000000000e+00,-1.200000000000000000e+01,-4.000000000000000000e+00,3.820800781250000000e-02,4.763793945312500000e-01,-1.411743164062500000e-01,8.669433593750000000e-01
0.000000000000000000e+00,-9.000000000000000000e+00,-9.000000000000000000e+00,-1.000000000000000000e+00,-4.000000000000000000e+00,-1.000000000000000000e+00,-3.000000000000000000e+00,-4.000000000000000000e+00,3.820800781250000000e-02,4.763793945312500000e-01,-1.411743164062500000e-01,8.669433593750000000e-01
-1.000000000000000000e+00,-9.000000000000000000e+00,-9.000000000000000000e+00,0.000000000000000000e+00,-2.000000000000000000e+00,-3.000000000000000000e+00,6.000000000000000000e+00,-2.000000000000000000e+00,3.820800781250000000e-02,4.763793945312500000e-01,-1.411743164062500000e-01,8.669433593750000000e-01
7.000000000000000000e+00,-8.000000000000000000e+00,-2.000000000000000000e+00,-9.000000000000000000e+00,-7.000000000000000000e+00,-3.000000000000000000e+00,-6.000000000000000000e+00,0.000000000000000000e+00,3.820800781250000000e-02,4.763793945312500000e-01,-1.411743164062500000e-01,8.669433593750000000e-01
-2.500000000000000000e+01,-2.000000000000000000e+00,5.000000000000000000e+00,-1.200000000000000000e+01,5.000000000000000000e+00,4.000000000000000000e+00,-2.000000000000000000e+00,0.000000000000000000e+00,3.845214843750000000e-02,4.760131835937500000e-01,-1.412963867187500000e-01,8.671264648437500000e-01
9.000000000000000000e+00,3.700000000000000000e+01,7.000000000000000000e+00,1.400000000000000000e+01,7.000000000000000000e+00,1.000000000000000000e+00,8.000000000000000000e+00,5.000000000000000000e+00,3.845214843750000000e-02,4.760131835937500000e-01,-1.412963867187500000e-01,8.671264648437500000e-01
0.000000000000000000e+00,-1.600000000000000000e+01,-8.000000000000000000e+00,-2.000000000000000000e+00,0.000000000000000000e+00,2.000000000000000000e+00,1.000000000000000000e+00,0.000000000000000000e+00,3.845214843750000000e-02,4.760131835937500000e-01,-1.412963867187500000e-01,8.671264648437500000e-01
3.000000000000000000e+00,1.400000000000000000e+01,6.000000000000000000e+00,1.100000000000000000e+01,8.000000000000000000e+00,-2.000000000000000000e+00,1.000000000000000000e+00,-1.000000000000000000e+00,3.845214843750000000e-02,4.760131835937500000e-01,-1.412963867187500000e-01,8.671264648437500000e-01
2.000000000000000000e+00,-1.400000000000000000e+01,4.000000000000000000e+00,-1.300000000000000000e+01,4.000000000000000000e+00,-1.000000000000000000e+00,-6.000000000000000000e+00,-5.000000000000000000e+00,3.839111328125000000e-02,4.756469726562500000e-01,-1.409301757812500000e-01,8.673706054687500000e-01
-3.000000000000000000e+00,8.000000000000000000e+00,-1.000000000000000000e+00,-1.200000000000000000e+01,-4.000000000000000000e+00,-2.000000000000000000e+00,-1.000000000000000000e+00,-4.000000000000000000e+00,3.839111328125000000e-02,4.756469726562500000e-01,-1.409301757812500000e-01,8.673706054687500000e-01
-3.000000000000000000e+00,-2.100000000000000000e+01,-1.600000000000000000e+01,3.000000000000000000e+00,-6.000000000000000000e+00,-2.000000000000000000e+00,7.000000000000000000e+00,4.000000000000000000e+00,3.839111328125000000e-02,4.756469726562500000e-01,-1.409301757812500000e-01,8.673706054687500000e-01
-1.000000000000000000e+00,-6.000000000000000000e+00,1.000000000000000000e+00,3.200000000000000000e+01,2.000000000000000000e+00,-2.000000000000000000e+00,-3.000000000000000000e+00,3.000000000000000000e+00,3.839111328125000000e-02,4.756469726562500000e-01,-1.409301757812500000e-01,8.673706054687500000e-01
1.600000000000000000e+01,-3.000000000000000000e+00,6.000000000000000000e+00,-5.000000000000000000e+00,-2.000000000000000000e+00,0.000000000000000000e+00,6.000000000000000000e+00,-2.000000000000000000e+00,3.851318359375000000e-02,4.754638671875000000e-01,-1.406860351562500000e-01,8.674926757812500000e-01
3.000000000000000000e+00,1.400000000000000000e+01,-2.000000000000000000e+00,-2.000000000000000000e+00,-1.000000000000000000e+00,-3.000000000000000000e+00,-2.000000000000000000e+00,0.000000000000000000e+00,3.851318359375000000e-02,4.754638671875000000e-01,-1.406860351562500000e-01,8.674926757812500000e-01
3.000000000000000000e+00,1.000000000000000000e+00,0.000000000000000000e+00,4.000000000000000000e+00,5.000000000000000000e+00,1.000000000000000000e+00,-4.000000000000000000e+00,-1.000000000000000000e+00,3.851318359375000000e-02,4.754638671875000000e-01,-1.406860351562500000e-01,8.674926757812500000e-01
-1.000000000000000000e+00,-1.000000000000000000e+01,-7.000000000000000000e+00,-1.000000000000000000e+01,-7.000000000000000000e+00,-2.000000000000000000e+00,0.000000000000000000e+00,-2.000000000000000000e+00,3.851318359375000000e-02,4.754638671875000000e-01,-1.406860351562500000e-01,8.674926757812500000e-01
-7.000000000000000000e+00,-7.000000000000000000e+00,-6.000000000000000000e+00,2.000000000000000000e+00,-2.000000000000000000e+00,-2.000000000000000000e+00,-9.000000000000000000e+00,-7.000000000000000000e+00,3.887939453125000000e-02,4.752807617187500000e-01,-1.406250000000000000e-01,8.676147460937500000e-01
1.200000000000000000e+01,-1.400000000000000000e+01,4.000000000000000000e+00,1.000000000000000000e+00,-4.000000000000000000e+00,1.000000000000000000e+00,1.700000000000000000e+01,2.000000000000000000e+00,3.887939453125000000e-02,4.752807617187500000e-01,-1.406250000000000000e-01,8.676147460937500000e-01
-4.000000000000000000e+00,-2.300000000000000000e+01,-5.000000000000000000e+00,-1.000000000000000000e+01,-5.000000000000000000e+00,-6.000000000000000000e+00,-9.000000000000000000e+00,-3.000000000000000000e+00,3.887939453125000000e-02,4.752807617187500000e-01,-1.406250000000000000e-01,8.676147460937500000e-01
5.000000000000000000e+00,1.000000000000000000e+01,-7.000000000000000000e+00,-1.500000000000000000e+01,-1.700000000000000000e+01,-4.000000000000000000e+00,0.000000000000000000e+00,-1.000000000000000000e+00,3.887939453125000000e-02,4.752807617187500000e-01,-1.406250000000000000e-01,8.676147460937500000e-01
4.000000000000000000e+00,2.500000000000000000e+01,7.000000000000000000e+00,1.100000000000000000e+01,1.200000000000000000e+01,1.000000000000000000e+00,3.000000000000000000e+00,1.000000000000000000e+00,3.936767578125000000e-02,4.751586914062500000e-01,-1.406250000000000000e-01,8.676147460937500000e-01
-3.000000000000000000e+00,-2.700000000000000000e+01,-8.000000000000000000e+00,-3.000000000000000000e+00,-4.000000000000000000e+00,-3.000000000000000000e+00,-6.000000000000000000e+00,-4.000000000000000000e+00,3.936767578125000000e-02,4.751586914062500000e-01,-1.406250000000000000e-01,8.676147460937500000e-01
-5.000000000000000000e+00,2.100000000000000000e+01,-4.000000000000000000e+00,-2.000000000000000000e+00,0.000000000000000000e+00,-2.000000000000000000e+00,-1.000000000000000000e+00,-3.000000000000000000e+00,3.936767578125000000e-02,4.751586914062500000e-01,-1.406250000000000000e-01,8.676147460937500000e-01
-8.000000000000000000e+00,1.500000000000000000e+01,2.000000000000000000e+00,-3.500000000000000000e+01,-8.000000000000000000e+00,-3.000000000000000000e+00,-3.000000000000000000e+00,-3.000000000000000000e+00,3.936767578125000000e-02,4.751586914062500000e-01,-1.406250000000000000e-01,8.676147460937500000e-01
1.000000000000000000e+00,6.000000000000000000e+00,1.000000000000000000e+00,3.200000000000000000e+01,4.000000000000000000e+00,-4.000000000000000000e+00,-1.300000000000000000e+01,-9.000000000000000000e+00,4.003906250000000000e-02,4.751586914062500000e-01,-1.406860351562500000e-01,8.676147460937500000e-01
-8.000000000000000000e+00,-2.000000000000000000e+01,-4.000000000000000000e+00,-2.100000000000000000e+01,-1.200000000000000000e+01,2.000000000000000000e+00,1.100000000000000000e+01,8.000000000000000000e+00,4.003906250000000000e-02,4.751586914062500000e-01,-1.406860351562500000e-01,8.676147460937500000e-01
7.000000000000000000e+00,2.200000000000000000e+01,8.000000000000000000e+00,-5.000000000000000000e+00,1.100000000000000000e+01,3.000000000000000000e+00,1.200000000000000000e+01,8.000000000000000000e+00,4.003906250000000000e-02,4.751586914062500000e-01,-1.406860351562500000e-01,8.676147460937500000e-01
-3.000000000000000000e+00,-1.400000000000000000e+01,-1.100000000000000000e+01,5.000000000000000000e+00,2.000000000000000000e+00,-2.000000000000000000e+00,-3.000000000000000000e+00,-1.000000000000000000e+00,4.003906250000000000e-02,4.751586914062500000e-01,-1.406860351562500000e-01,8.676147460937500000e-01
4.000000000000000000e+00,1.300000000000000000e+01,-2.000000000000000000e+00,6.000000000000000000e+00,4.000000000000000000e+00,2.000000000000000000e+00,7.000000000000000000e+00,3.000000000000000000e+00,4.010009765625000000e-02,4.752197265625000000e-01,-1.406250000000000000e-01,8.676147460937500000e-01
-6.000000000000000000e+00,-5.000000000000000000e+00,1.000000000000000000e+00,-2.000000000000000000e+00,-1.000000000000000000e+00,-1.000000000000000000e+00,-1.300000000000000000e+01,-5.000000000000000000e+00,4.010009765625000000e-02,4.752197265625000000e-01,-1.406250000000000000e-01,8.676147460937500000e-01
-5.000000000000000000e+00,5.000000000000000000e+00,1.000000000000000000e+00,-5.000000000000000000e+00,-8.000000000000000000e+00,-3.000000000000000000e+00,-3.000000000000000000e+00,-5.000000000000000000e+00,4.010009765625000000e-02,4.752197265625000000e-01,-1.406250000000000000e-01,8.676147460937500000e-01
1.000000000000000000e+00,-2.000000000000000000e+00,-4.000000000000000000e+00,6.000000000000000000e+00,7.000000000000000000e+00,0.000000000000000000e+00,-3.000000000000000000e+00,-2.000000000000000000e+00,4.010009765625000000e-02,4.752197265625000000e-01,-1.406250000000000000e-01,8.676147460937500000e-01
-6.000000000000000000e+00,-2.500000000000000000e+01,-9.000000000000000000e+00,-2.400000000000000000e+01,-1.300000000000000000e+01,-3.000000000000000000e+00,2.000000000000000000e+00,-2.000000000000000000e+00,3.961181640625000000e-02,4.752807617187500000e-01,-1.406860351562500000e-01,8.675537109375000000e-01
1.200000000000000000e+01,3.000000000000000000e+01,6.000000000000000000e+00,1.600000000000000000e+01,2.000000000000000000e+00,0.000000000000000000e+00,-1.100000000000000000e+01,3.000000000000000000e+00,3.961181640625000000e-02,4.752807617187500000e-01,-1.406860351562500000e-01,8.675537109375000000e-01
-3.000000000000000000e+00,-2.000000000000000000e+01,6.000000000000000000e+00,1.200000000000000000e+01,4.000000000000000000e+00,1.000000000000000000e+00,1.300000000000000000e+01,5.000000000000000000e+00,3.961181640625000000e-02,4.752807617187500000e-01,-1.406860351562500000e-01,8.675537109375000000e-01
-1.000000000000000000e+00,9.000000000000000000e+00,-1.000000000000000000e+00,2.000000000000000000e+00,0.000000000000000000e+00,-1.000000000000000000e+00,4.000000000000000000e+00,1.000000000000000000e+00,3.961181640625000000e-02,4.752807617187500000e-01,-1.406860351562500000e-01,8.675537109375000000e-01
-2.000000000000000000e+00,-2.700000000000000000e+01,-1.300000000000000000e+01,-1.000000000000000000e+01,-6.000000000000000000e+00,-4.000000000000000000e+00,-5.000000000000000000e+00,-3.000000000000000000e+00,3.942871093750000000e-02,4.755859375000000000e-01,-1.411132812500000000e-01,8.673706054687500000e-01
-2.700000000000000000e+01,8.000000000000000000e+00,4.000000000000000000e+00,-8.000000000000000000e+00,1.000000000000000000e+00,-4.000000000000000000e+00,-7.000000000000000000e+00,-8.000000000000000000e+00,3.942871093750000000e-02,4.755859375000000000e-01,-1.411132812500000000e-01,8.673706054687500000e-01
5.000000000000000000e+00,5.000000000000000000e+00,5.000000000000000000e+00,0.000000000000000000e+00,-5.000000000000000000e+00,0.000000000000000000e+00,1.000000000000000000e+01,5.000000000000000000e+00,3.942871093750000000e-02,4.755859375000000000e-01,-1.411132812500000000e-01,8.673706054687500000e-01
-2.000000000000000000e+00,-7.000000000000000000e+00,0.000000000000000000e+00,1.200000000000000000e+01,1.000000000000000000e+00,2.000000000000000000e+00,-7.000000000000000000e+00,-3.000000000000000000e+00,3.942871093750000000e-02,4.755859375000000000e-01,-1.411132812500000000e-01,8.673706054687500000e-01
6.000000000000000000e+00,6.000000000000000000e+00,-1.000000000000000000e+00,1.000000000000000000e+01,1.300000000000000000e+01,2.000000000000000000e+00,4.000000000000000000e+00,6.000000000000000000e+00,3.955078125000000000e-02,4.758911132812500000e-01,-1.416625976562500000e-01,8.670654296875000000e-01
-3.000000000000000000e+00,-1.000000000000000000e+00,-2.000000000000000000e+00,5.000000000000000000e+00,6.000000000000000000e+00,3.000000000000000000e+00,3.000000000000000000e+00,3.000000000000000000e+00,3.955078125000000000e-02,4.758911132812500000e-01,-1.416625976562500000e-01,8.670654296875000000e-01
0.000000000000000000e+00,4.000000000000000000e+00,3.000000000000000000e+00,8.000000000000000000e+00,5.000000000000000000e+00,-1.000000000000000000e+00,-6.000000000000000000e+00,-1.000000000000000000e+00,3.955078125000000000e-02,4.758911132812500000e-01,-1.416625976562500000e-01,8.670654296875000000e-01
-4.000000000000000000e+00,-1.400000000000000000e+01,-3.000000000000000000e+00,-1.900000000000000000e+01,-1.200000000000000000e+01,-4.000000000000000000e+00,4.000000000000000000e+00,-1.000000000000000000e+00,3.955078125000000000e-02,4.758911132812500000e-01,-1.416625976562500000e-01,8.670654296875000000e-01
0.000000000000000000e+00,1.900000000000000000e+01,8.000000000000000000e+00,5.000000000000000000e+00,2.000000000000000000e+00,0.000000000000000000e+00,-8.000000000000000000e+00,-3.000000000000000000e+00,3.936767578125000000e-02,4.763183593750000000e-01,-1.417236328125000000e-01,8.668212890625000000e-01
-1.500000000000000000e+01,-3.000000000000000000e+00,0.000000000000000000e+00,1.300000000000000000e+01,1.000000000000000000e+01,4.000000000000000000e+00,3.000000000000000000e+00,3.000000000000000000e+00,3.936767578125000000e-02,4.763183593750000000e-01,-1.417236328125000000e-01,8.668212890625000000e-01
-3.000000000000000000e+00,-1.100000000000000000e+01,-4.000000000000000000e+00,-7.000000000000000000e+00,-1.000000000000000000e+00,1.000000000000000000e+00,-7.000000000000000000e+00,-4.000000000000000000e+00,3.936767578125000000e-02,4.763183593750000000e-01,-1.417236328125000000e-01,8.668212890625000000e-01
2.100000000000000000e+01,1.200000000000000000e+01,2.000000000000000000e+00,-4.000000000000000000e+00,4.000000000000000000e+00,4.000000000000000000e+00,3.000000000000000000e+00,7.000000000000000000e+00,3.936767578125000000e-02,4.763183593750000000e-01,-1.417236328125000000e-01,8.668212890625000000e-01
6.000000000000000000e+00,-1.700000000000000000e+01,-7.000000000000000000e+00,-2.000000000000000000e+00,-1.100000000000000000e+01,-5.000000000000000000e+00,-1.000000000000000000e+00,1.000000000000000000e+00,3.906250000000000000e-02,4.768066406250000000e-01,-1.415405273437500000e-01,8.666381835937500000e-01
7.000000000000000000e+00,7.000000000000000000e+00,-5.000000000000000000e+00,1.000000000000000000e+00,-1.000000000000000000e+00,-2.000000000000000000e+00,-5.000000000000000000e+00,-4.000000000000000000e+00,3.906250000000000000e-02,4.768066406250000000e-01,-1.415405273437500000e-01,8.666381835937500000e-01
-2.000000000000000000e+00,3.500000000000000000e+01,1.700000000000000000e+01,-2.500000000000000000e+01,-5.000000000000000000e+00,-3.000000000000000000e+00,-9.000000000000000000e+00,-6.000000000000000000e+00,3.906250000000000000e-02,4.768066406250000000e-01,-1.415405273437500000e-01,8.666381835937500000e-01
-1.400000000000000000e+01,-3.600000000000000000e+01,-1.000000000000000000e+01,7.000000000000000000e+00,-8.000000000000000000e+00,-1.000000000000000000e+00,3.000000000000000000e+00,-7.000000000000000000e+00,3.906250000000000000e-02,4.768066406250000000e-01,-1.415405273437500000e-01,8.666381835937500000e-01
9.000000000000000000e+00,5.200000000000000000e+01,3.100000000000000000e+01,8.000000000000000000e+00,2.400000000000000000e+01,8.000000000000000000e+00,1.600000000000000000e+01,1.500000000000000000e+01,3.851318359375000000e-02,4.771728515625000000e-01,-1.414794921875000000e-01,8.664550781250000000e-01
-1.000000000000000000e+00,-1.900000000000000000e+01,-1.800000000000000000e+01,-5.000000000000000000e+00,-9.000000000000000000e+00,-5.000000000000000000e+00,-5.000000000000000000e+00,-4.000000000000000000e+00,3.851318359375000000e-02,4.771728515625000000e-01,-1.414794921875000000e-01,8.664550781250000000e-01
-3.000000000000000000e+00,-1.500000000000000000e+01,-5.000000000000000000e+00,0.000000000000000000e+00,-2.000000000000000000e+00,-3.000000000000000000e+00,-1.100000000000000000e+01,-5.000000000000000000e+00,3.851318359375000000e-02,4.771728515625000000e-01,-1.414794921875000000e-01,8.664550781250000000e-01
-1.000000000000000000e+00,-6.000000000000000000e+00,-6.000000000000000000e+00,-7.000000000000000000e+00,-3.000000000000000000e+00,-2.000000000000000000e+00,-4.000000000000000000e+00,-7.000000000000000000e+00,3.851318359375000000e-02,4.771728515625000000e-01,-1.414794921875000000e-01,8.664550781250000000e-01
-3.000000000000000000e+00,8.000000000000000000e+00,4.000000000000000000e+00,-9.000000000000000000e+00,-1.200000000000000000e+01,-3.000000000000000000e+00,-5.000000000000000000e+00,-4.000000000000000000e+00,3.845214843750000000e-02,4.777221679687500000e-01,-1.417236328125000000e-01,8.660888671875000000e-01
-1.000000000000000000e+00,-1.200000000000000000e+01,-2.000000000000000000e+00,-1.000000000000000000e+01,-7.000000000000000000e+00,-2.000000000000000000e+00,6.000000000000000000e+00,0.000000000000000000e+00,3.845214843750000000e-02,4.777221679687500000e-01,-1.417236328125000000e-01,8.660888671875000000e-01
-3.000000000000000000e+01,-5.000000000000000000e+00,-3.000000000000000000e+00,1.000000000000000000e+00,3.000000000000000000e+00,3.000000000000000000e+00,-4.000000000000000000e+00,-4.000000000000000000e+00,3.845214843750000000e-02,4.777221679687500000e-01,-1.417236328125000000e-01,8.660888671875000000e-01
1.100000000000000000e+01,4.000000000000000000e+00,4.000000000000000000e+00,-1.100000000000000000e+01,0.000000000000000000e+00,-4.000000000000000000e+00,-9.000000000000000000e+00,6.000000000000000000e+00,3.845214843750000000e-02,4.777221679687500000e-01,-1.417236328125000000e-01,8.660888671875000000e-01
3.000000000000000000e+00,-1.200000000000000000e+01,-7.000000000000000000e+00,2.000000000000000000e+01,4.000000000000000000e+00,4.000000000000000000e+00,1.400000000000000000e+01,6.000000000000000000e+00,3.869628906250000000e-02,4.782104492187500000e-01,-1.420288085937500000e-01,8.657836914062500000e-01
-2.000000000000000000e+00,1.000000000000000000e+00,1.000000000000000000e+00,-7.000000000000000000e+00,-2.000000000000000000e+00,0.000000000000000000e+00,-4.000000000000000000e+00,0.000000000000000000e+00,3.869628906250000000e-02,4.782104492187500000e-01,-1.420288085937500000e-01,8.657836914062500000e-01
-1.000000000000000000e+00,-1.100000000000000000e+01,-7.000000000000000000e+00,-6.000000000000000000e+00,-5.000000000000000000e+00,-3.000000000000000000e+00,-2.000000000000000000e+00,-5.000000000000000000e+00,3.869628906250000000e-02,4.782104492187500000e-01,-1.420288085937500000e-01,8.657836914062500000e-01
-1.300000000000000000e+01,-2.400000000000000000e+01,-1.000000000000000000e+00,1.500000000000000000e+01,5.000000000000000000e+00,0.000000000000000000e+00,-5.000000000000000000e+00,-4.000000000000000000e+00,3.869628906250000000e-02,4.782104492187500000e-01,-1.420288085937500000e-01,8.657836914062500000e-01
-6.000000000000000000e+00,2.000000000000000000e+00,-7.000000000000000000e+00,-1.700000000000000000e+01,-1.100000000000000000e+01,-3.000000000000000000e+00,1.000000000000000000e+01,-1.000000000000000000e+00,3.863525390625000000e-02,4.785156250000000000e-01,-1.419677734375000000e-01,8.656005859375000000e-01
3.000000000000000000e+00,2.000000000000000000e+00,-2.000000000000000000e+00,1.000000000000000000e+00,-1.500000000000000000e+01,-3.000000000000000000e+00,-7.000000000000000000e+00,-3.000000000000000000e+00,3.863525390625000000e-02,4.785156250000000000e-01,-1.419677734375000000e-01,8.656005859375000000e-01
1.200000000000000000e+01,9.000000000000000000e+00,5.000000000000000000e+00,1.200000000000000000e+01,1.400000000000000000e+01,5.000000000000000000e+00,1.100000000000000000e+01,9.000000000000000000e+00,3.863525390625000000e-02,4.785156250000000000e-01,-1.419677734375000000e-01,8.656005859375000000e-01
-4.000000000000000000e+00,3.000000000000000000e+00,0.000000000000000000e+00,-1.200000000000000000e+01,1.000000000000000000e+00,-2.000000000000000000e+00,-2.000000000000000000e+00,-1.000000000000000000e+00,3.863525390625000000e-02,4.785156250000000000e-01,-1.419677734375000000e-01,8.656005859375000000e-01
0.000000000000000000e+00,-2.500000000000000000e+01,-1.700000000000000000e+01,9.000000000000000000e+00,0.000000000000000000e+00,-3.000000000000000000e+00,-8.000000000000000000e+00,-5.000000000000000000e+00,3.814697265625000000e-02,4.788208007812500000e-01,-1.416625976562500000e-01,8.655395507812500000e-01
-6.000000000000000000e+00,-1.000000000000000000e+01,0.000000000000000000e+00,-2.100000000000000000e+01,-4.000000000000000000e+00,-1.000000000000000000e+00,5.000000000000000000e+00,-2.000000000000000000e+00,3.814697265625000000e-02,4.788208007812500000e-01,-1.416625976562500000e-01,8.655395507812500000e-01
2.000000000000000000e+00,0.000000000000000000e+00,-4.000000000000000000e+00,2.000000000000000000e+01,-1.000000000000000000e+00,-2.000000000000000000e+00,-1.300000000000000000e+01,-4.000000000000000000e+00,3.814697265625000000e-02,4.788208007812500000e-01,-1.416625976562500000e-01,8.655395507812500000e-01
-5.000000000000000000e+00,6.000000000000000000e+00,7.000000000000000000e+00,1.400000000000000000e+01,1.100000000000000000e+01,5.000000000000000000e+00,6.000000000000000000e+00,-1.000000000000000000e+00,3.814697265625000000e-02,4.788208007812500000e-01,-1.416625976562500000e-01,8.655395507812500000e-01
2.300000000000000000e+01,5.000000000000000000e+00,0.000000000000000000e+00,-1.700000000000000000e+01,-6.000000000000000000e+00,2.000000000000000000e+00,1.200000000000000000e+01,1.200000000000000000e+01,3.771972656250000000e-02,4.790649414062500000e-01,-1.416015625000000000e-01,8.654174804687500000e-01
1.000000000000000000e+01,3.000000000000000000e+00,5.000000000000000000e+00,1.000000000000000000e+00,4.000000000000000000e+00,-2.000000000000000000e+00,-2.000000000000000000e+00,-1.000000000000000000e+00,3.771972656250000000e-02,4.790649414062500000e-01,-1.416015625000000000e-01,8.654174804687500000e-01
0.000000000000000000e+00,-1.000000000000000000e+01,-9.000000000000000000e+00,1.000000000000000000e+00,-3.000000000000000000e+00,-3.000000000000000000e+00,2.000000000000000000e+00,3.000000000000000000e+00,3.771972656250000000e-02,4.790649414062500000e-01,-1.416015625000000000e-01,8.654174804687500000e-01
1.600000000000000000e+01,2.300000000000000000e+01,8.000000000000000000e+00,5.000000000000000000e+00,5.000000000000000000e+00,-3.000000000000000000e+00,-8.000000000000000000e+00,1.000000000000000000e+00,3.771972656250000000e-02,4.790649414062500000e-01,-1.416015625000000000e-01,8.654174804687500000e-01
-6.000000000000000000e+00,5.000000000000000000e+00,1.000000000000000000e+00,-6.000000000000000000e+00,-7.000000000000000000e+00,-2.000000000000000000e+00,-6.000000000000000000e+00,-5.000000000000000000e+00,3.765869140625000000e-02,4.791259765625000000e-01,-1.418457031250000000e-01,8.653564453125000000e-01
-2.000000000000000000e+00,-1.000000000000000000e+00,-2.000000000000000000e+00,-4.000000000000000000e+00,1.000000000000000000e+00,-2.000000000000000000e+00,0.000000000000000000e+00,-3.000000000000000000e+00,3.765869140625000000e-02,4.791259765625000000e-01,-1.418457031250000000e-01,8.653564453125000000e-01
7.000000000000000000e+00,1.700000000000000000e+01,0.000000000000000000e+00,1.400000000000000000e+01,-5.000000000000000000e+00,-2.000000000000000000e+00,-1.100000000000000000e+01,-5.000000000000000000e+00,3.765869140625000000e-02,4.791259765625000000e-01,-1.418457031250000000e-01,8.653564453125000000e-01
-8.000000000000000000e+00,-3.000000000000000000e+00,-1.000000000000000000e+00,2.000000000000000000e+00,2.000000000000000000e+00,-2.000000000000000000e+00,7.000000000000000000e+00,-1.000000000000000000e+00,3.765869140625000000e-02,4.791259765625000000e-01,-1.418457031250000000e-01,8.653564453125000000e-01
-1.600000000000000000e+01,-2.600000000000000000e+01,-3.000000000000000000e+00,-1.400000000000000000e+01,-8.000000000000000000e+00,-2.000000000000000000e+00,-5.000000000000000000e+00,-4.000000000000000000e+00,3.759765625000000000e-02,4.791259765625000000e-01,-1.419067382812500000e-01,8.653564453125000000e-01
1.200000000000000000e+01,1.600000000000000000e+01,-1.000000000000000000e+00,1.800000000000000000e+01,9.000000000000000000e+00,1.000000000000000000e+00,3.000000000000000000e+00,8.000000000000000000e+00,3.759765625000000000e-02,4.791259765625000000e-01,-1.419067382812500000e-01,8.653564453125000000e-01
-1.100000000000000000e+01,1.000000000000000000e+00,-1.000000000000000000e+00,-2.700000000000000000e+01,-5.000000000000000000e+00,-3.000000000000000000e+00,-6.000000000000000000e+00,-6.000000000000000000e+00,3.759765625000000000e-02,4.791259765625000000e-01,-1.419067382812500000e-01,8.653564453125000000e-01
-4.000000000000000000e+00,0.000000000000000000e+00,-1.000000000000000000e+00,0.000000000000000000e+00,-3.000000000000000000e+00,-2.000000000000000000e+00,7.000000000000000000e+00,1.000000000000000000e+00,3.759765625000000000e-02,4.791259765625000000e-01,-1.419067382812500000e-01,8.653564453125000000e-01
-6.000000000000000000e+00,2.000000000000000000e+00,-1.000000000000000000e+00,3.200000000000000000e+01,-3.000000000000000000e+00,-3.000000000000000000e+00,-8.000000000000000000e+00,-6.000000000000000000e+00,3.729248046875000000e-02,4.790039062500000000e-01,-1.418457031250000000e-01,8.654174804687500000e-01
-1.000000000000000000e+00,-1.900000000000000000e+01,-1.000000000000000000e+01,-2.600000000000000000e+01,-1.000000000000000000e+00,-2.000000000000000000e+00,-5.000000000000000000e+00,-4.000000000000000000e+00,3.729248046875000000e-02,4.790039062500000000e-01,-1.418457031250000000e-01,8.654174804687500000e-01
2.100000000000000000e+01,-4.000000000000000000e+00,6.000000000000000000e+00,1.500000000000000000e+01,1.700000000000000000e+01,5.000000000000000000e+00,1.300000000000000000e+01,7.000000000000000000e+00,3.729248046875000000e-02,4.790039062500000000e-01,-1.418457031250000000e-01,8.654174804687500000e-01
-3.400000000000000000e+01,1.200000000000000000e+01,1.000000000000000000e+00,4.000000000000000000e+00,-3.000000000000000000e+00,-1.000000000000000000e+00,-8.000000000000000000e+00,0.000000000000000000e+00,3.729248046875000000e-02,4.790039062500000000e-01,-1.418457031250000000e-01,8.654174804687500000e-01
0.000000000000000000e+00,-8.000000000000000000e+00,-2.000000000000000000e+00,-1.200000000000000000e+01,0.000000000000000000e+00,-1.000000000000000000e+00,4.000000000000000000e+00,-3.000000000000000000e+00,3.674316406250000000e-02,4.786987304687500000e-01,-1.416625976562500000e-01,8.656616210937500000e-01
-1.000000000000000000e+00,1.200000000000000000e+01,2.000000000000000000e+00,-2.500000000000000000e+01,-1.000000000000000000e+01,-4.000000000000000000e+00,-4.000000000000000000e+00,-1.000000000000000000e+00,3.674316406250000000e-02,4.786987304687500000e-01,-1.416625976562500000e-01,8.656616210937500000e-01
1.000000000000000000e+00,-7.000000000000000000e+00,-1.000000000000000000e+00,2.800000000000000000e+01,1.000000000000000000e+00,-2.000000000000000000e+00,-8.000000000000000000e+00,-7.000000000000000000e+00,3.674316406250000000e-02,4.786987304687500000e-01,-1.416625976562500000e-01,8.656616210937500000e-01
2.000000000000000000e+00,0.000000000000000000e+00,-2.000000000000000000e+00,-8.000000000000000000e+00,-1.000000000000000000e+00,3.000000000000000000e+00,1.500000000000000000e+01,6.000000000000000000e+00,3.674316406250000000e-02,4.786987304687500000e-01,-1.416625976562500000e-01,8.656616210937500000e-01
-6.000000000000000000e+00,2.000000000000000000e+00,-2.000000000000000000e+00,-9.000000000000000000e+00,-2.000000000000000000e+00,-2.000000000000000000e+00,-5.000000000000000000e+00,-5.000000000000000000e+00,3.662109375000000000e-02,4.783935546875000000e-01,-1.417236328125000000e-01,8.657836914062500000e-01
-5.000000000000000000e+00,-6.000000000000000000e+00,1.000000000000000000e+00,0.000000000000000000e+00,-5.000000000000000000e+00,-1.000000000000000000e+00,2.000000000000000000e+00,4.000000000000000000e+00,3.662109375000000000e-02,4.783935546875000000e-01,-1.417236328125000000e-01,8.657836914062500000e-01
-1.000000000000000000e+00,1.800000000000000000e+01,-3.000000000000000000e+00,-9.000000000000000000e+00,-3.000000000000000000e+00,0.000000000000000000e+00,2.000000000000000000e+00,5.000000000000000000e+00,3.662109375000000000e-02,4.783935546875000000e-01,-1.417236328125000000e-01,8.657836914062500000e-01
-1.000000000000000000e+00,-1.400000000000000000e+01,-4.000000000000000000e+00,7.000000000000000000e+00,2.000000000000000000e+00,-3.000000000000000000e+00,0.000000000000000000e+00,-6.000000000000000000e+00,3.662109375000000000e-02,4.783935546875000000e-01,-1.417236328125000000e-01,8.657836914062500000e-01
0.000000000000000000e+00,7.000000000000000000e+00,-2.000000000000000000e+00,-5.000000000000000000e+00,2.000000000000000000e+00,0.000000000000000000e+00,-2.000000000000000000e+00,0.000000000000000000e+00,3.656005859375000000e-02,4.781494140625000000e-01,-1.419677734375000000e-01,8.659057617187500000e-01
3.000000000000000000e+00,-1.300000000000000000e+01,-1.000000000000000000e+00,1.100000000000000000e+01,1.000000000000000000e+00,-1.000000000000000000e+00,-1.000000000000000000e+00,-2.000000000000000000e+00,3.656005859375000000e-02,4.781494140625000000e-01,-1.419677734375000000e-01,8.659057617187500000e-01
-4.000000000000000000e+00,-1.700000000000000000e+01,-8.000000000000000000e+00,-1.800000000000000000e+01,-8.000000000000000000e+00,-3.000000000000000000e+00,-3.000000000000000000e+00,-4.000000000000000000e+00,3.656005859375000000e-02,4.781494140625000000e-01,-1.419677734375000000e-01,8.659057617187500000e-01
-8.000000000000000000e+00,3.000000000000000000e+00,-1.000000000000000000e+00,-6.000000000000000000e+00,-9.000000000000000000e+00,-3.000000000000000000e+00,-1.100000000000000000e+01,-6.000000000000000000e+00,3.656005859375000000e-02,4.781494140625000000e-01,-1.419677734375000000e-01,8.659057617187500000e-01
9.000000000000000000e+00,1.500000000000000000e+01,6.000000000000000000e+00,-1.700000000000000000e+01,1.000000000000000000e+01,5.000000000000000000e+00,6.000000000000000000e+00,6.000000000000000000e+00,3.686523437500000000e-02,4.779052734375000000e-01,-1.419677734375000000e-01,8.660278320312500000e-01
-6.000000000000000000e+00,-1.000000000000000000e+01,-2.000000000000000000e+00,2.900000000000000000e+01,1.200000000000000000e+01,1.000000000000000000e+00,-2.000000000000000000e+00,-3.000000000000000000e+00,3.686523437500000000e-02,4.779052734375000000e-01,-1.419677734375000000e-01,8.660278320312500000e-01
-2.000000000000000000e+01,9.000000000000000000e+00,5.000000000000000000e+00,-1.100000000000000000e+01,-5.000000000000000000e+00,0.000000000000000000e+00,-3.000000000000000000e+00,-3.000000000000000000e+00,3.686523437500000000e-02,4.779052734375000000e-01,-1.419677734375000000e-01,8.660278320312500000e-01
5.000000000000000000e+00,1.900000000000000000e+01,-3.000000000000000000e+00,1.000000000000000000e+00,0.000000000000000000e+00,-1.000000000000000000e+00,4.000000000000000000e+00,0.000000000000000000e+00,3.686523437500000000e-02,4.779052734375000000e-01,-1.419677734375000000e-01,8.660278320312500000e-01
-8.000000000000000000e+00,-4.000000000000000000e+00,1.000000000000000000e+00,-7.000000000000000000e+00,-1.000000000000000000e+01,-6.000000000000000000e+00,-1.400000000000000000e+01,-2.000000000000000000e+00,3.710937500000000000e-02,4.779052734375000000e-01,-1.416625976562500000e-01,8.660888671875000000e-01
4.000000000000000000e+00,7.000000000000000000e+00,-2.000000000000000000e+00,-2.600000000000000000e+01,-1.000000000000000000e+01,-3.000000000000000000e+00,-7.000000000000000000e+00,-3.000000000000000000e+00,3.710937500000000000e-02,4.779052734375000000e-01,-1.416625976562500000e-01,8.660888671875000000e-01
-8.000000000000000000e+00,-3.900000000000000000e+01,-3.000000000000000000e+00,2.300000000000000000e+01,6.000000000000000000e+00,-2.000000000000000000e+00,-7.000000000000000000e+00,-4.000000000000000000e+00,3.710937500000000000e-02,4.779052734375000000e-01,-1.416625976562500000e-01,8.660888671875000000e-01
1.100000000000000000e+01,1.600000000000000000e+01,1.000000000000000000e+00,4.000000000000000000e+00,1.000000000000000000e+00,1.000000000000000000e+00,7.000000000000000000e+00,6.000000000000000000e+00,3.710937500000000000e-02,4.779052734375000000e-01,-1.416625976562500000e-01,8.660888671875000000e-01
-5.000000000000000000e+00,2.300000000000000000e+01,8.000000000000000000e+00,-9.000000000000000000e+00,-5.000000000000000000e+00,-4.000000000000000000e+00,-8.000000000000000000e+00,-5.000000000000000000e+00,3.686523437500000000e-02,4.780883789062500000e-01,-1.414794921875000000e-01,8.660278320312500000e-01
0.000000000000000000e+00,-5.000000000000000000e+00,1.000000000000000000e+00,8.000000000000000000e+00,3.000000000000000000e+00,4.000000000000000000e+00,1.300000000000000000e+01,5.000000000000000000e+00,3.686523437500000000e-02,4.780883789062500000e-01,-1.414794921875000000e-01,8.660278320312500000e-01
2.000000000000000000e+00,-1.100000000000000000e+01,-5.000000000000000000e+00,-8.000000000000000000e+00,-7.000000000000000000e+00,-1.000000000000000000e+00,2.000000000000000000e+00,-1.000000000000000000e+00,3.686523437500000000e-02,4.780883789062500000e-01,-1.414794921875000000e-01,8.660278320312500000e-01
9.000000000000000000e+00,-7.000000000000000000e+00,1.000000000000000000e+00,-1.500000000000000000e+01,-3.000000000000000000e+00,0.000000000000000000e+00,-2.000000000000000000e+00,5.000000000000000000e+00,3.686523437500000000e-02,4.780883789062500000e-01,-1.414794921875000000e-01,8.660278320312500000e-01
1.200000000000000000e+01,5.000000000000000000e+00,-1.200000000000000000e+01,1.800000000000000000e+01,-6.000000000000000000e+00,-1.000000000000000000e+00,-1.000000000000000000e+00,-3.000000000000000000e+00,3.717041015625000000e-02,4.783935546875000000e-01,-1.414794921875000000e-01,8.658447265625000000e-01
-2.000000000000000000e+00,3.000000000000000000e+00,8.000000000000000000e+00,4.000000000000000000e+00,6.000000000000000000e+00,0.000000000000000000e+00,-8.000000000000000000e+00,-3.000000000000000000e+00,3.717041015625000000e-02,4.783935546875000000e-01,-1.414794921875000000e-01,8.658447265625000000e-01
