-4.000000000000000000e+00,-2.000000000000000000e+00,-6.400000000000000000e+01,-1.300000000000000000e+01,-1.200000000000000000e+01,-1.000000000000000000e+01,-1.500000000000000000e+01,-5.000000000000000000e+00,-2.964477539062500000e-01,-5.902099609375000000e-02,7.977905273437500000e-01,5.216674804687500000e-01
4.000000000000000000e+00,1.800000000000000000e+01,7.400000000000000000e+01,4.100000000000000000e+01,1.500000000000000000e+01,1.100000000000000000e+01,1.700000000000000000e+01,3.000000000000000000e+00,-2.964477539062500000e-01,-5.902099609375000000e-02,7.977905273437500000e-01,5.216674804687500000e-01
-1.000000000000000000e+00,-9.000000000000000000e+00,-4.400000000000000000e+01,-1.300000000000000000e+01,1.100000000000000000e+01,1.000000000000000000e+01,6.000000000000000000e+00,1.000000000000000000e+00,-2.964477539062500000e-01,-5.902099609375000000e-02,7.977905273437500000e-01,5.216674804687500000e-01
2.000000000000000000e+00,1.000000000000000000e+01,1.080000000000000000e+02,1.300000000000000000e+01,5.000000000000000000e+00,7.000000000000000000e+00,4.000000000000000000e+00,1.000000000000000000e+00,-2.964477539062500000e-01,-5.902099609375000000e-02,7.977905273437500000e-01,5.216674804687500000e-01
-1.000000000000000000e+00,-1.500000000000000000e+01,-5.400000000000000000e+01,-4.000000000000000000e+00,1.000000000000000000e+00,3.000000000000000000e+00,-1.700000000000000000e+01,-2.000000000000000000e+00,-2.962036132812500000e-01,-5.932617187500000000e-02,7.979125976562500000e-01,5.215454101562500000e-01
3.000000000000000000e+00,4.000000000000000000e+00,7.000000000000000000e+00,-7.000000000000000000e+00,-6.000000000000000000e+00,-6.000000000000000000e+00,-7.000000000000000000e+00,-1.000000000000000000e+00,-2.962036132812500000e-01,-5.932617187500000000e-02,7.979125976562500000e-01,5.215454101562500000e-01
-3.000000000000000000e+00,0.000000000000000000e+00,1.200000000000000000e+01,7.000000000000000000e+00,0.000000000000000000e+00,-8.000000000000000000e+00,-5.000000000000000000e+00,-1.000000000000000000e+00,-2.962036132812500000e-01,-5.932617187500000000e-02,7.979125976562500000e-01,5.215454101562500000e-01
-5.000000000000000000e+00,-5.000000000000000000e+00,-7.000000000000000000e+00,-6.000000000000000000e+00,-1.300000000000000000e+01,-3.000000000000000000e+00,-1.100000000000000000e+01,-3.000000000000000000e+00,-2.962036132812500000e-01,-5.932617187500000000e-02,7.979125976562500000e-01,5.215454101562500000e-01
3.000000000000000000e+00,1.400000000000000000e+01,5.000000000000000000e+00,1.000000000000000000e+00,1.500000000000000000e+01,1.200000000000000000e+01,1.000000000000000000e+00,0.000000000000000000e+00,-2.961425781250000000e-01,-5.981445312500000000e-02,7.980346679687500000e-01,5.213623046875000000e-01
-5.000000000000000000e+00,-1.900000000000000000e+01,-4.900000000000000000e+01,-4.000000000000000000e+00,-1.200000000000000000e+01,-8.000000000000000000e+00,-1.000000000000000000e+01,-7.000000000000000000e+00,-2.961425781250000000e-01,-5.981445312500000000e-02,7.980346679687500000e-01,5.213623046875000000e-01
0.000000000000000000e+00,-1.000000000000000000e+00,6.200000000000000000e+01,1.500000000000000000e+01,5.000000000000000000e+00,1.000000000000000000e+00,-5.000000000000000000e+00,-3.000000000000000000e+00,-2.961425781250000000e-01,-5.981445312500000000e-02,7.980346679687500000e-01,5.213623046875000000e-01
0.000000000000000000e+00,-5.000000000000000000e+00,-4.700000000000000000e+01,-9.000000000000000000e+00,-8.000000000000000000e+00,-1.200000000000000000e+01,-8.000000000000000000e+00,-2.000000000000000000e+00,-2.961425781250000000e-01,-5.981445312500000000e-02,7.980346679687500000e-01,5.213623046875000000e-01
1.000000000000000000e+00,1.000000000000000000e+00,-1.500000000000000000e+01,-1.000000000000000000e+01,-1.000000000000000000e+00,-2.000000000000000000e+00,2.000000000000000000e+00,2.000000000000000000e+00,-2.961425781250000000e-01,-6.018066406250000000e-02,7.981567382812500000e-01,5.211181640625000000e-01
-1.000000000000000000e+00,3.000000000000000000e+00,9.000000000000000000e+00,4.000000000000000000e+00,4.000000000000000000e+00,2.000000000000000000e+00,1.000000000000000000e+00,0.000000000000000000e+00,-2.961425781250000000e-01,-6.018066406250000000e-02,7.981567382812500000e-01,5.211181640625000000e-01
-4.000000000000000000e+00,-4.000000000000000000e+00,-2.200000000000000000e+01,-1.000000000000000000e+00,-1.100000000000000000e+01,-1.000000000000000000e+01,-3.000000000000000000e+00,-2.000000000000000000e+00,-2.961425781250000000e-01,-6.018066406250000000e-02,7.981567382812500000e-01,5.211181640625000000e-01
3.000000000000000000e+00,8.000000000000000000e+00,8.400000000000000000e+01,1.400000000000000000e+01,4.000000000000000000e+00,-2.000000000000000000e+00,-2.000000000000000000e+00,0.000000000000000000e+00,-2.961425781250000000e-01,-6.018066406250000000e-02,7.981567382812500000e-01,5.211181640625000000e-01
-5.000000000000000000e+00,-1.000000000000000000e+00,8.600000000000000000e+01,3.000000000000000000e+01,-1.100000000000000000e+01,-1.300000000000000000e+01,2.000000000000000000e+00,-1.000000000000000000e+00,-2.963256835937500000e-01,-5.999755859375000000e-02,7.980957031250000000e-01,5.211791992187500000e-01
6.000000000000000000e+00,1.200000000000000000e+01,-6.000000000000000000e+00,-5.000000000000000000e+00,2.300000000000000000e+01,2.400000000000000000e+01,2.900000000000000000e+01,5.000000000000000000e+00,-2.963256835937500000e-01,-5.999755859375000000e-02,7.980957031250000000e-01,5.211791992187500000e-01
-3.000000000000000000e+00,-9.000000000000000000e+00,8.000000000000000000e+00,1.500000000000000000e+01,0.000000000000000000e+00,1.000000000000000000e+00,2.000000000000000000e+00,-2.000000000000000000e+00,-2.963256835937500000e-01,-5.999755859375000000e-02,7.980957031250000000e-01,5.211791992187500000e-01
0.000000000000000000e+00,0.000000000000000000e+00,-4.300000000000000000e+01,4.000000000000000000e+00,1.000000000000000000e+00,-4.000000000000000000e+00,1.000000000000000000e+00,-2.000000000000000000e+00,-2.963256835937500000e-01,-5.999755859375000000e-02,7.980957031250000000e-01,5.211791992187500000e-01
-1.000000000000000000e+00,-1.200000000000000000e+01,-4.000000000000000000e+00,-2.100000000000000000e+01,-1.000000000000000000e+01,-9.000000000000000000e+00,-5.000000000000000000e+00,-1.000000000000000000e+00,-2.963256835937500000e-01,-6.005859375000000000e-02,7.980957031250000000e-01,5.211181640625000000e-01
-2.000000000000000000e+00,-3.000000000000000000e+00,0.000000000000000000e+00,-6.000000000000000000e+00,-7.000000000000000000e+00,-1.000000000000000000e+01,-1.100000000000000000e+01,0.000000000000000000e+00,-2.963256835937500000e-01,-6.005859375000000000e-02,7.980957031250000000e-01,5.211181640625000000e-01
1.000000000000000000e+00,7.000000000000000000e+00,3.000000000000000000e+00,1.000000000000000000e+00,-7.000000000000000000e+00,-2.000000000000000000e+00,0.000000000000000000e+00,-2.000000000000000000e+00,-2.963256835937500000e-01,-6.005859375000000000e-02,7.980957031250000000e-01,5.211181640625000000e-01
-8.000000000000000000e+00,-1.700000000000000000e+01,-4.400000000000000000e+01,-1.400000000000000000e+01,-4.000000000000000000e+00,-2.000000000000000000e+00,-2.000000000000000000e+00,-1.000000000000000000e+00,-2.963256835937500000e-01,-6.005859375000000000e-02,7.980957031250000000e-01,5.211181640625000000e-01
-1.000000000000000000e+00,6.000000000000000000e+00,-2.000000000000000000e+00,1.600000000000000000e+01,3.000000000000000000e+00,6.000000000000000000e+00,1.000000000000000000e+01,-4.000000000000000000e+00,-2.962036132812500000e-01,-6.030273437500000000e-02,7.980346679687500000e-01,5.213012695312500000e-01
2.000000000000000000e+00,9.000000000000000000e+00,1.000000000000000000e+01,-2.200000000000000000e+01,-5.000000000000000000e+00,-6.000000000000000000e+00,-7.000000000000000000e+00,1.000000000000000000e+00,-2.962036132812500000e-01,-6.030273437500000000e-02,7.980346679687500000e-01,5.213012695312500000e-01
-2.000000000000000000e+00,-4.000000000000000000e+00,1.200000000000000000e+01,1.800000000000000000e+01,3.000000000000000000e+00,5.000000000000000000e+00,8.000000000000000000e+00,-1.000000000000000000e+00,-2.962036132812500000e-01,-6.030273437500000000e-02,7.980346679687500000e-01,5.213012695312500000e-01
-1.000000000000000000e+00,-8.000000000000000000e+00,-3.200000000000000000e+01,-1.100000000000000000e+01,-2.000000000000000000e+00,-5.000000000000000000e+00,-4.000000000000000000e+00,-2.000000000000000000e+00,-2.962036132812500000e-01,-6.030273437500000000e-02,7.980346679687500000e-01,5.213012695312500000e-01
-1.000000000000000000e+00,-5.000000000000000000e+00,-3.300000000000000000e+01,-1.000000000000000000e+01,5.000000000000000000e+00,5.000000000000000000e+00,0.000000000000000000e+00,1.000000000000000000e+00,-2.961425781250000000e-01,-6.036376953125000000e-02,7.980346679687500000e-01,5.213012695312500000e-01
1.000000000000000000e+00,1.000000000000000000e+00,4.400000000000000000e+01,0.000000000000000000e+00,-1.100000000000000000e+01,-4.000000000000000000e+00,0.000000000000000000e+00,-2.000000000000000000e+00,-2.961425781250000000e-01,-6.036376953125000000e-02,7.980346679687500000e-01,5.213012695312500000e-01
0.000000000000000000e+00,3.000000000000000000e+00,2.700000000000000000e+01,0.000000000000000000e+00,-2.000000000000000000e+00,0.000000000000000000e+00,-5.000000000000000000e+00,1.000000000000000000e+00,-2.961425781250000000e-01,-6.036376953125000000e-02,7.980346679687500000e-01,5.213012695312500000e-01
-7.000000000000000000e+00,-2.100000000000000000e+01,-5.500000000000000000e+01,-3.000000000000000000e+00,-9.000000000000000000e+00,-5.000000000000000000e+00,-1.100000000000000000e+01,-4.000000000000000000e+00,-2.961425781250000000e-01,-6.036376953125000000e-02,7.980346679687500000e-01,5.213012695312500000e-01
2.000000000000000000e+00,3.000000000000000000e+00,1.900000000000000000e+01,7.000000000000000000e+00,1.200000000000000000e+01,7.000000000000000000e+00,-7.000000000000000000e+00,-1.000000000000000000e+00,-2.957153320312500000e-01,-6.011962890625000000e-02,7.980957031250000000e-01,5.214843750000000000e-01
-1.000000000000000000e+00,-4.000000000000000000e+00,-1.200000000000000000e+01,1.700000000000000000e+01,-8.000000000000000000e+00,0.000000000000000000e+00,4.000000000000000000e+00,-3.000000000000000000e+00,-2.957153320312500000e-01,-6.011962890625000000e-02,7.980957031250000000e-01,5.214843750000000000e-01
1.000000000000000000e+00,1.000000000000000000e+00,1.300000000000000000e+01,9.000000000000000000e+00,6.000000000000000000e+00,-2.000000000000000000e+00,-3.000000000000000000e+00,0.000000000000000000e+00,-2.957153320312500000e-01,-6.011962890625000000e-02,7.980957031250000000e-01,5.214843750000000000e-01
1.000000000000000000e+00,5.000000000000000000e+00,3.000000000000000000e+00,9.000000000000000000e+00,3.000000000000000000e+00,2.000000000000000000e+00,5.000000000000000000e+00,0.000000000000000000e+00,-2.957153320312500000e-01,-6.011962890625000000e-02,7.980957031250000000e-01,5.214843750000000000e-01
2.000000000000000000e+00,-2.000000000000000000e+00,-2.200000000000000000e+01,-1.300000000000000000e+01,4.000000000000000000e+00,5.000000000000000000e+00,8.000000000000000000e+00,2.000000000000000000e+00,-2.956542968750000000e-01,-6.018066406250000000e-02,7.980957031250000000e-01,5.214843750000000000e-01
-4.000000000000000000e+00,-7.000000000000000000e+00,-4.200000000000000000e+01,-1.100000000000000000e+01,-2.000000000000000000e+00,-4.000000000000000000e+00,-7.000000000000000000e+00,-2.000000000000000000e+00,-2.956542968750000000e-01,-6.018066406250000000e-02,7.980957031250000000e-01,5.214843750000000000e-01
3.000000000000000000e+00,6.000000000000000000e+00,2.300000000000000000e+01,-3.100000000000000000e+01,-1.000000000000000000e+01,-1.000000000000000000e+01,-3.000000000000000000e+00,0.000000000000000000e+00,-2.956542968750000000e-01,-6.018066406250000000e-02,7.980957031250000000e-01,5.214843750000000000e-01
-4.000000000000000000e+00,1.200000000000000000e+01,1.200000000000000000e+01,8.000000000000000000e+00,-8.000000000000000000e+00,-1.000000000000000000e+00,9.000000000000000000e+00,-2.000000000000000000e+00,-2.956542968750000000e-01,-6.018066406250000000e-02,7.980957031250000000e-01,5.214843750000000000e-01
0.000000000000000000e+00,-1.000000000000000000e+01,-7.400000000000000000e+01,-1.600000000000000000e+01,1.800000000000000000e+01,1.200000000000000000e+01,-3.000000000000000000e+00,-1.000000000000000000e+00,-2.956542968750000000e-01,-6.024169921875000000e-02,7.980957031250000000e-01,5.214843750000000000e-01
1.000000000000000000e+00,3.000000000000000000e+00,2.900000000000000000e+01,6.000000000000000000e+00,-1.000000000000000000e+00,4.000000000000000000e+00,6.000000000000000000e+00,0.000000000000000000e+00,-2.956542968750000000e-01,-6.024169921875000000e-02,7.980957031250000000e-01,5.214843750000000000e-01
0.000000000000000000e+00,-3.000000000000000000e+00,-1.400000000000000000e+01,-1.200000000000000000e+01,0.000000000000000000e+00,-1.000000000000000000e+00,2.000000000000000000e+00,-1.000000000000000000e+00,-2.956542968750000000e-01,-6.024169921875000000e-02,7.980957031250000000e-01,5.214843750000000000e-01
2.000000000000000000e+00,4.000000000000000000e+00,2.100000000000000000e+01,-1.000000000000000000e+00,1.000000000000000000e+00,3.000000000000000000e+00,2.000000000000000000e+00,0.000000000000000000e+00,-2.956542968750000000e-01,-6.024169921875000000e-02,7.980957031250000000e-01,5.214843750000000000e-01
-2.000000000000000000e+00,1.000000000000000000e+00,1.600000000000000000e+01,-3.000000000000000000e+00,-1.400000000000000000e+01,-1.300000000000000000e+01,-4.000000000000000000e+00,-3.000000000000000000e+00,-2.954711914062500000e-01,-6.103515625000000000e-02,7.982177734375000000e-01,5.212402343750000000e-01
-1.000000000000000000e+00,-7.000000000000000000e+00,-8.000000000000000000e+01,-2.500000000000000000e+01,-3.000000000000000000e+00,-3.000000000000000000e+00,-3.000000000000000000e+00,1.000000000000000000e+00,-2.954711914062500000e-01,-6.103515625000000000e-02,7.982177734375000000e-01,5.212402343750000000e-01
8.000000000000000000e+00,5.000000000000000000e+00,4.000000000000000000e+00,-2.200000000000000000e+01,-1.000000000000000000e+00,6.000000000000000000e+00,6.000000000000000000e+00,8.000000000000000000e+00,-2.954711914062500000e-01,-6.103515625000000000e-02,7.982177734375000000e-01,5.212402343750000000e-01
-5.000000000000000000e+00,-1.200000000000000000e+01,-8.700000000000000000e+01,3.000000000000000000e+00,1.000000000000000000e+00,-1.000000000000000000e+00,-3.000000000000000000e+00,-4.000000000000000000e+00,-2.954711914062500000e-01,-6.103515625000000000e-02,7.982177734375000000e-01,5.212402343750000000e-01
-6.000000000000000000e+00,-7.000000000000000000e+00,1.400000000000000000e+01,-9.000000000000000000e+00,2.000000000000000000e+00,-1.000000000000000000e+01,-6.000000000000000000e+00,-5.000000000000000000e+00,-2.951660156250000000e-01,-6.170654296875000000e-02,7.982788085937500000e-01,5.213012695312500000e-01
-3.000000000000000000e+00,-1.000000000000000000e+00,-3.100000000000000000e+01,3.000000000000000000e+00,2.000000000000000000e+00,0.000000000000000000e+00,7.000000000000000000e+00,-2.000000000000000000e+00,-2.951660156250000000e-01,-6.170654296875000000e-02,7.982788085937500000e-01,5.213012695312500000e-01
1.000000000000000000e+00,3.000000000000000000e+00,1.100000000000000000e+01,-1.200000000000000000e+01,-1.000000000000000000e+00,4.000000000000000000e+00,3.000000000000000000e+00,2.000000000000000000e+00,-2.951660156250000000e-01,-6.170654296875000000e-02,7.982788085937500000e-01,5.213012695312500000e-01
2.000000000000000000e+00,4.000000000000000000e+00,4.300000000000000000e+01,3.000000000000000000e+00,-7.000000000000000000e+00,-1.000000000000000000e+00,-3.000000000000000000e+00,-1.000000000000000000e+00,-2.951660156250000000e-01,-6.170654296875000000e-02,7.982788085937500000e-01,5.213012695312500000e-01
-4.000000000000000000e+00,-6.000000000000000000e+00,-4.400000000000000000e+01,-9.000000000000000000e+00,-1.900000000000000000e+01,-1.200000000000000000e+01,-2.000000000000000000e+00,-2.000000000000000000e+00,-2.947387695312500000e-01,-6.243896484375000000e-02,7.982788085937500000e-01,5.214233398437500000e-01
0.000000000000000000e+00,1.000000000000000000e+00,-2.000000000000000000e+00,-6.000000000000000000e+00,6.000000000000000000e+00,5.000000000000000000e+00,4.000000000000000000e+00,0.000000000000000000e+00,-2.947387695312500000e-01,-6.243896484375000000e-02,7.982788085937500000e-01,5.214233398437500000e-01
-4.000000000000000000e+00,0.000000000000000000e+00,2.000000000000000000e+00,1.700000000000000000e+01,-4.000000000000000000e+00,-1.600000000000000000e+01,-1.400000000000000000e+01,-6.000000000000000000e+00,-2.947387695312500000e-01,-6.243896484375000000e-02,7.982788085937500000e-01,5.214233398437500000e-01
4.000000000000000000e+00,2.000000000000000000e+00,8.000000000000000000e+00,1.200000000000000000e+01,9.000000000000000000e+00,2.000000000000000000e+01,2.900000000000000000e+01,4.000000000000000000e+00,-2.947387695312500000e-01,-6.243896484375000000e-02,7.982788085937500000e-01,5.214233398437500000e-01
-4.000000000000000000e+00,-1.000000000000000000e+01,-1.900000000000000000e+01,-3.400000000000000000e+01,-2.000000000000000000e+00,-1.000000000000000000e+00,6.000000000000000000e+00,-2.000000000000000000e+00,-2.942504882812500000e-01,-6.237792968750000000e-02,7.983398437500000000e-01,5.216064453125000000e-01
-5.000000000000000000e+00,-1.100000000000000000e+01,-9.000000000000000000e+01,-3.800000000000000000e+01,-1.000000000000000000e+01,-6.000000000000000000e+00,-3.400000000000000000e+01,-5.000000000000000000e+00,-2.942504882812500000e-01,-6.237792968750000000e-02,7.983398437500000000e-01,5.216064453125000000e-01
-3.000000000000000000e+00,0.000000000000000000e+00,1.600000000000000000e+01,3.800000000000000000e+01,7.000000000000000000e+00,1.000000000000000000e+00,-2.000000000000000000e+00,0.000000000000000000e+00,-2.942504882812500000e-01,-6.237792968750000000e-02,7.983398437500000000e-01,5.216064453125000000e-01
-1.000000000000000000e+00,4.000000000000000000e+00,3.200000000000000000e+01,-6.000000000000000000e+00,0.000000000000000000e+00,-4.000000000000000000e+00,-2.000000000000000000e+00,-1.000000000000000000e+00,-2.942504882812500000e-01,-6.237792968750000000e-02,7.983398437500000000e-01,5.216064453125000000e-01
7.000000000000000000e+00,6.000000000000000000e+00,2.400000000000000000e+01,-8.000000000000000000e+00,-6.000000000000000000e+00,-1.000000000000000000e+00,6.000000000000000000e+00,4.000000000000000000e+00,-2.942504882812500000e-01,-6.256103515625000000e-02,7.985229492187500000e-01,5.213623046875000000e-01
-3.000000000000000000e+00,2.000000000000000000e+00,2.400000000000000000e+01,5.000000000000000000e+00,1.000000000000000000e+00,-6.000000000000000000e+00,-2.000000000000000000e+00,-4.000000000000000000e+00,-2.942504882812500000e-01,-6.256103515625000000e-02,7.985229492187500000e-01,5.213623046875000000e-01
-4.000000000000000000e+00,-4.000000000000000000e+00,-6.300000000000000000e+01,-9.000000000000000000e+00,-3.000000000000000000e+00,0.000000000000000000e+00,-1.000000000000000000e+00,-3.000000000000000000e+00,-2.942504882812500000e-01,-6.256103515625000000e-02,7.985229492187500000e-01,5.213623046875000000e-01
1.000000000000000000e+00,-2.000000000000000000e+00,7.200000000000000000e+01,2.700000000000000000e+01,1.000000000000000000e+01,1.000000000000000000e+00,-9.000000000000000000e+00,-3.000000000000000000e+00,-2.942504882812500000e-01,-6.256103515625000000e-02,7.985229492187500000e-01,5.213623046875000000e-01
-1.000000000000000000e+00,2.000000000000000000e+00,6.000000000000000000e+00,1.800000000000000000e+01,6.000000000000000000e+00,-2.000000000000000000e+00,-4.000000000000000000e+00,0.000000000000000000e+00,-2.940063476562500000e-01,-6.225585937500000000e-02,7.986450195312500000e-01,5.213623046875000000e-01
-1.000000000000000000e+00,-6.000000000000000000e+00,-5.000000000000000000e+00,1.500000000000000000e+01,3.000000000000000000e+00,-5.000000000000000000e+00,1.000000000000000000e+00,-2.000000000000000000e+00,-2.940063476562500000e-01,-6.225585937500000000e-02,7.986450195312500000e-01,5.213623046875000000e-01
-2.000000000000000000e+00,7.000000000000000000e+00,6.400000000000000000e+01,3.400000000000000000e+01,-9.000000000000000000e+00,1.000000000000000000e+00,-2.000000000000000000e+00,-6.000000000000000000e+00,-2.940063476562500000e-01,-6.225585937500000000e-02,7.986450195312500000e-01,5.213623046875000000e-01
1.000000000000000000e+00,1.000000000000000000e+00,-1.200000000000000000e+01,2.000000000000000000e+00,0.000000000000000000e+00,-5.000000000000000000e+00,-4.000000000000000000e+00,0.000000000000000000e+00,-2.940063476562500000e-01,-6.225585937500000000e-02,7.986450195312500000e-01,5.213623046875000000e-01
1.000000000000000000e+00,2.000000000000000000e+00,2.500000000000000000e+01,7.000000000000000000e+00,3.000000000000000000e+00,6.000000000000000000e+00,3.000000000000000000e+00,1.000000000000000000e+00,-2.937622070312500000e-01,-6.225585937500000000e-02,7.987670898437500000e-01,5.213012695312500000e-01
-1.000000000000000000e+00,1.000000000000000000e+00,7.200000000000000000e+01,3.300000000000000000e+01,1.000000000000000000e+00,3.000000000000000000e+00,0.000000000000000000e+00,-1.000000000000000000e+00,-2.937622070312500000e-01,-6.225585937500000000e-02,7.987670898437500000e-01,5.213012695312500000e-01
-1.000000000000000000e+00,-3.000000000000000000e+00,-1.400000000000000000e+01,-3.400000000000000000e+01,3.000000000000000000e+00,-4.000000000000000000e+00,1.000000000000000000e+01,-2.000000000000000000e+00,-2.937622070312500000e-01,-6.225585937500000000e-02,7.987670898437500000e-01,5.213012695312500000e-01
-4.000000000000000000e+00,-1.200000000000000000e+01,-9.100000000000000000e+01,-1.800000000000000000e+01,-1.000000000000000000e+00,-8.000000000000000000e+00,-3.200000000000000000e+01,-4.000000000000000000e+00,-2.937622070312500000e-01,-6.225585937500000000e-02,7.987670898437500000e-01,5.213012695312500000e-01
-4.000000000000000000e+00,2.000000000000000000e+00,7.300000000000000000e+01,1.400000000000000000e+01,3.000000000000000000e+00,9.000000000000000000e+00,1.500000000000000000e+01,-2.000000000000000000e+00,-2.936401367187500000e-01,-6.201171875000000000e-02,7.988891601562500000e-01,5.212402343750000000e-01
1.000000000000000000e+00,-3.000000000000000000e+00,-3.600000000000000000e+01,-1.400000000000000000e+01,-6.000000000000000000e+00,-5.000000000000000000e+00,2.000000000000000000e+00,1.000000000000000000e+00,-2.936401367187500000e-01,-6.201171875000000000e-02,7.988891601562500000e-01,5.212402343750000000e-01
-5.000000000000000000e+00,-8.000000000000000000e+00,-9.100000000000000000e+01,-2.700000000000000000e+01,-8.000000000000000000e+00,-6.000000000000000000e+00,-4.000000000000000000e+00,-3.000000000000000000e+00,-2.936401367187500000e-01,-6.201171875000000000e-02,7.988891601562500000e-01,5.212402343750000000e-01
-4.000000000000000000e+00,7.000000000000000000e+00,4.600000000000000000e+01,5.000000000000000000e+00,-1.000000000000000000e+00,4.000000000000000000e+00,8.000000000000000000e+00,-1.000000000000000000e+00,-2.936401367187500000e-01,-6.201171875000000000e-02,7.988891601562500000e-01,5.212402343750000000e-01
1.000000000000000000e+00,-1.000000000000000000e+00,1.000000000000000000e+00,0.000000000000000000e+00,-3.000000000000000000e+00,0.000000000000000000e+00,-1.000000000000000000e+00,2.000000000000000000e+00,-2.935791015625000000e-01,-6.225585937500000000e-02,7.990112304687500000e-01,5.209960937500000000e-01
-3.000000000000000000e+00,-4.000000000000000000e+00,8.700000000000000000e+01,2.700000000000000000e+01,-4.000000000000000000e+00,-7.000000000000000000e+00,-6.000000000000000000e+00,-3.000000000000000000e+00,-2.935791015625000000e-01,-6.225585937500000000e-02,7.990112304687500000e-01,5.209960937500000000e-01
-1.000000000000000000e+00,-2.000000000000000000e+00,-3.000000000000000000e+00,3.000000000000000000e+00,-8.000000000000000000e+00,-5.000000000000000000e+00,-2.000000000000000000e+00,-2.000000000000000000e+00,-2.935791015625000000e-01,-6.225585937500000000e-02,7.990112304687500000e-01,5.209960937500000000e-01
1.000000000000000000e+00,3.000000000000000000e+00,5.400000000000000000e+01,1.100000000000000000e+01,6.000000000000000000e+00,-2.000000000000000000e+00,-6.000000000000000000e+00,0.000000000000000000e+00,-2.935791015625000000e-01,-6.225585937500000000e-02,7.990112304687500000e-01,5.209960937500000000e-01
0.000000000000000000e+00,-6.000000000000000000e+00,-7.200000000000000000e+01,-5.000000000000000000e+00,1.000000000000000000e+00,0.000000000000000000e+00,-2.000000000000000000e+00,1.000000000000000000e+00,-2.936401367187500000e-01,-6.243896484375000000e-02,7.990722656250000000e-01,5.208740234375000000e-01
1.000000000000000000e+00,4.000000000000000000e+00,4.000000000000000000e+01,1.700000000000000000e+01,-4.000000000000000000e+00,4.000000000000000000e+00,1.000000000000000000e+01,0.000000000000000000e+00,-2.936401367187500000e-01,-6.243896484375000000e-02,7.990722656250000000e-01,5.208740234375000000e-01
0.000000000000000000e+00,-3.000000000000000000e+00,2.600000000000000000e+01,1.000000000000000000e+01,1.100000000000000000e+01,7.000000000000000000e+00,-1.000000000000000000e+00,2.000000000000000000e+00,-2.936401367187500000e-01,-6.243896484375000000e-02,7.990722656250000000e-01,5.208740234375000000e-01
0.000000000000000000e+00,6.000000000000000000e+00,3.300000000000000000e+01,4.000000000000000000e+00,2.000000000000000000e+00,5.000000000000000000e+00,1.400000000000000000e+01,1.000000000000000000e+00,-2.936401367187500000e-01,-6.243896484375000000e-02,7.990722656250000000e-01,5.208740234375000000e-01
2.000000000000000000e+00,9.000000000000000000e+00,3.900000000000000000e+01,-5.000000000000000000e+00,1.000000000000000000e+00,0.000000000000000000e+00,1.000000000000000000e+00,0.000000000000000000e+00,-2.934570312500000000e-01,-6.262207031250000000e-02,7.990722656250000000e-01,5.209350585937500000e-01
-2.000000000000000000e+00,-8.000000000000000000e+00,-6.100000000000000000e+01,-1.300000000000000000e+01,5.000000000000000000e+00,-2.000000000000000000e+00,-1.100000000000000000e+01,-2.000000000000000000e+00,-2.934570312500000000e-01,-6.262207031250000000e-02,7.990722656250000000e-01,5.209350585937500000e-01
-4.000000000000000000e+00,-2.000000000000000000e+00,-4.000000000000000000e+00,-1.000000000000000000e+00,6.000000000000000000e+00,-5.000000000000000000e+00,-1.000000000000000000e+01,-1.000000000000000000e+00,-2.934570312500000000e-01,-6.262207031250000000e-02,7.990722656250000000e-01,5.209350585937500000e-01
0.000000000000000000e+00,4.000000000000000000e+00,4.300000000000000000e+01,-5.000000000000000000e+00,-1.200000000000000000e+01,3.000000000000000000e+00,2.300000000000000000e+01,0.000000000000000000e+00,-2.934570312500000000e-01,-6.262207031250000000e-02,7.990722656250000000e-01,5.209350585937500000e-01
-3.000000000000000000e+00,-9.000000000000000000e+00,-8.200000000000000000e+01,-2.000000000000000000e+01,-1.000000000000000000e+01,-1.100000000000000000e+01,-1.100000000000000000e+01,-2.000000000000000000e+00,-2.931518554687500000e-01,-6.280517578125000000e-02,7.990112304687500000e-01,5.211791992187500000e-01
1.000000000000000000e+00,-5.000000000000000000e+00,-2.800000000000000000e+01,-2.600000000000000000e+01,-6.000000000000000000e+00,2.000000000000000000e+00,5.000000000000000000e+00,3.000000000000000000e+00,-2.931518554687500000e-01,-6.280517578125000000e-02,7.990112304687500000e-01,5.211791992187500000e-01
2.000000000000000000e+00,7.000000000000000000e+00,6.900000000000000000e+01,3.300000000000000000e+01,1.000000000000000000e+01,1.000000000000000000e+01,1.000000000000000000e+00,-1.000000000000000000e+00,-2.931518554687500000e-01,-6.280517578125000000e-02,7.990112304687500000e-01,5.211791992187500000e-01
-2.000000000000000000e+00,-6.000000000000000000e+00,-1.900000000000000000e+01,-8.000000000000000000e+00,-1.000000000000000000e+00,-5.000000000000000000e+00,-2.000000000000000000e+00,1.000000000000000000e+00,-2.931518554687500000e-01,-6.280517578125000000e-02,7.990112304687500000e-01,5.211791992187500000e-01
-1.000000000000000000e+00,-2.000000000000000000e+00,3.200000000000000000e+01,1.300000000000000000e+01,-3.000000000000000000e+00,-5.000000000000000000e+00,-6.000000000000000000e+00,-2.000000000000000000e+00,-2.927246093750000000e-01,-6.286621093750000000e-02,7.990722656250000000e-01,5.213012695312500000e-01
-1.000000000000000000e+00,1.000000000000000000e+00,3.300000000000000000e+01,1.000000000000000000e+00,1.000000000000000000e+00,-7.000000000000000000e+00,-4.000000000000000000e+00,-1.000000000000000000e+00,-2.927246093750000000e-01,-6.286621093750000000e-02,7.990722656250000000e-01,5.213012695312500000e-01
-3.000000000000000000e+00,-5.000000000000000000e+00,-5.200000000000000000e+01,-2.700000000000000000e+01,-9.000000000000000000e+00,-6.000000000000000000e+00,-1.000000000000000000e+01,-3.000000000000000000e+00,-2.927246093750000000e-01,-6.286621093750000000e-02,7.990722656250000000e-01,5.213012695312500000e-01
1.000000000000000000e+00,3.000000000000000000e+00,7.000000000000000000e+00,2.000000000000000000e+00,-6.000000000000000000e+00,2.000000000000000000e+00,2.800000000000000000e+01,1.000000000000000000e+00,-2.927246093750000000e-01,-6.286621093750000000e-02,7.990722656250000000e-01,5.213012695312500000e-01
-3.000000000000000000e+00,-3.000000000000000000e+00,5.000000000000000000e+00,1.500000000000000000e+01,5.000000000000000000e+00,7.000000000000000000e+00,1.000000000000000000e+00,-2.000000000000000000e+00,-2.925415039062500000e-01,-6.317138671875000000e-02,7.991943359375000000e-01,5.212402343750000000e-01
0.000000000000000000e+00,1.100000000000000000e+01,7.000000000000000000e+01,2.400000000000000000e+01,1.100000000000000000e+01,-1.000000000000000000e+00,-5.000000000000000000e+00,0.000000000000000000e+00,-2.925415039062500000e-01,-6.317138671875000000e-02,7.991943359375000000e-01,5.212402343750000000e-01
0.000000000000000000e+00,1.000000000000000000e+00,5.000000000000000000e+00,-1.000000000000000000e+01,-8.000000000000000000e+00,-5.000000000000000000e+00,-4.000000000000000000e+00,-3.000000000000000000e+00,-2.925415039062500000e-01,-6.317138671875000000e-02,7.991943359375000000e-01,5.212402343750000000e-01
-4.000000000000000000e+00,5.000000000000000000e+00,5.800000000000000000e+01,2.000000000000000000e+00,-7.000000000000000000e+00,-4.000000000000000000e+00,-1.200000000000000000e+01,-5.000000000000000000e+00,-2.925415039062500000e-01,-6.317138671875000000e-02,7.991943359375000000e-01,5.212402343750000000e-01
-2.000000000000000000e+00,-7.000000000000000000e+00,-4.300000000000000000e+01,-2.000000000000000000e+00,1.000000000000000000e+00,1.000000000000000000e+00,-4.000000000000000000e+00,1.000000000000000000e+00,-2.925415039062500000e-01,-6.359863281250000000e-02,7.993164062500000000e-01,5.209350585937500000e-01
-2.000000000000000000e+00,-5.000000000000000000e+00,-7.000000000000000000e+01,-1.300000000000000000e+01,1.000000000000000000e+00,4.000000000000000000e+00,6.000000000000000000e+00,0.000000000000000000e+00,-2.925415039062500000e-01,-6.359863281250000000e-02,7.993164062500000000e-01,5.209350585937500000e-01
-1.000000000000000000e+00,0.000000000000000000e+00,6.000000000000000000e+00,7.000000000000000000e+00,-2.000000000000000000e+00,-1.000000000000000000e+01,-7.000000000000000000e+00,-3.000000000000000000e+00,-2.925415039062500000e-01,-6.359863281250000000e-02,7.993164062500000000e-01,5.209350585937500000e-01
2.000000000000000000e+00,-1.000000000000000000e+00,-4.400000000000000000e+01,-8.000000000000000000e+00,3.000000000000000000e+00,-4.000000000000000000e+00,-1.100000000000000000e+01,-3.000000000000000000e+00,-2.925415039062500000e-01,-6.359863281250000000e-02,7.993164062500000000e-01,5.209350585937500000e-01
0.000000000000000000e+00,5.000000000000000000e+00,5.200000000000000000e+01,-2.000000000000000000e+00,-8.000000000000000000e+00,-5.000000000000000000e+00,1.000000000000000000e+01,0.000000000000000000e+00,-2.927856445312500000e-01,-6.427001953125000000e-02,7.993164062500000000e-01,5.207519531250000000e-01
0.000000000000000000e+00,-1.000000000000000000e+00,-3.100000000000000000e+01,-1.100000000000000000e+01,-7.000000000000000000e+00,5.000000000000000000e+00,-8.000000000000000000e+00,-1.000000000000000000e+00,-2.927856445312500000e-01,-6.427001953125000000e-02,7.993164062500000000e-01,5.207519531250000000e-01
-1.000000000000000000e+00,-5.000000000000000000e+00,0.000000000000000000e+00,9.000000000000000000e+00,5.000000000000000000e+00,4.000000000000000000e+00,-2.000000000000000000e+00,1.000000000000000000e+00,-2.927856445312500000e-01,-6.427001953125000000e-02,7.993164062500000000e-01,5.207519531250000000e-01
-2.000000000000000000e+00,-9.000000000000000000e+00,-4.600000000000000000e+01,-8.000000000000000000e+00,1.000000000000000000e+00,0.000000000000000000e+00,-4.000000000000000000e+00,-1.000000000000000000e+00,-2.927856445312500000e-01,-6.427001953125000000e-02,7.993164062500000000e-01,5.207519531250000000e-01
1.000000000000000000e+00,5.000000000000000000e+00,2.600000000000000000e+01,1.300000000000000000e+01,5.000000000000000000e+00,-1.000000000000000000e+00,-1.000000000000000000e+00,-1.000000000000000000e+00,-2.927856445312500000e-01,-6.433105468750000000e-02,7.993164062500000000e-01,5.207519531250000000e-01
-4.000000000000000000e+00,-1.100000000000000000e+01,-5.700000000000000000e+01,-1.900000000000000000e+01,-8.000000000000000000e+00,-8.000000000000000000e+00,3.000000000000000000e+00,-3.000000000000000000e+00,-2.927856445312500000e-01,-6.433105468750000000e-02,7.993164062500000000e-01,5.207519531250000000e-01
0.000000000000000000e+00,-2.000000000000000000e+00,-3.500000000000000000e+01,-1.600000000000000000e+01,-1.100000000000000000e+01,0.000000000000000000e+00,3.000000000000000000e+00,-1.000000000000000000e+00,-2.927856445312500000e-01,-6.433105468750000000e-02,7.993164062500000000e-01,5.207519531250000000e-01
4.000000000000000000e+00,5.000000000000000000e+00,-2.300000000000000000e+01,-7.000000000000000000e+00,2.300000000000000000e+01,1.100000000000000000e+01,-1.300000000000000000e+01,4.000000000000000000e+00,-2.927856445312500000e-01,-6.433105468750000000e-02,7.993164062500000000e-01,5.207519531250000000e-01
-1.000000000000000000e+01,-1.500000000000000000e+01,-9.300000000000000000e+01,-1.300000000000000000e+01,-1.600000000000000000e+01,-6.000000000000000000e+00,-1.000000000000000000e+00,-7.000000000000000000e+00,-2.924804687500000000e-01,-6.396484375000000000e-02,7.991943359375000000e-01,5.211181640625000000e-01
-2.000000000000000000e+00,-2.000000000000000000e+00,6.000000000000000000e+00,-2.000000000000000000e+00,-3.000000000000000000e+00,0.000000000000000000e+00,0.000000000000000000e+00,-1.000000000000000000e+00,-2.924804687500000000e-01,-6.396484375000000000e-02,7.991943359375000000e-01,5.211181640625000000e-01
-1.000000000000000000e+00,0.000000000000000000e+00,2.800000000000000000e+01,2.300000000000000000e+01,2.500000000000000000e+01,7.000000000000000000e+00,4.000000000000000000e+00,1.000000000000000000e+00,-2.924804687500000000e-01,-6.396484375000000000e-02,7.991943359375000000e-01,5.211181640625000000e-01
0.000000000000000000e+00,-8.000000000000000000e+00,-3.000000000000000000e+01,1.000000000000000000e+00,-6.000000000000000000e+00,-9.000000000000000000e+00,-6.000000000000000000e+00,-1.000000000000000000e+00,-2.924804687500000000e-01,-6.396484375000000000e-02,7.991943359375000000e-01,5.211181640625000000e-01
3.000000000000000000e+00,6.000000000000000000e+00,3.000000000000000000e+01,-3.000000000000000000e+00,2.000000000000000000e+00,1.000000000000000000e+00,-1.000000000000000000e+00,1.000000000000000000e+00,-2.922973632812500000e-01,-6.408691406250000000e-02,7.992553710937500000e-01,5.211181640625000000e-01
0.000000000000000000e+00,6.000000000000000000e+00,4.900000000000000000e+01,9.000000000000000000e+00,0.000000000000000000e+00,-3.000000000000000000e+00,-3.000000000000000000e+00,-1.000000000000000000e+00,-2.922973632812500000e-01,-6.408691406250000000e-02,7.992553710937500000e-01,5.211181640625000000e-01
-4.000000000000000000e+00,-4.000000000000000000e+00,-1.200000000000000000e+01,-7.000000000000000000e+00,-1.100000000000000000e+01,-4.000000000000000000e+00,4.000000000000000000e+00,-2.000000000000000000e+00,-2.922973632812500000e-01,-6.408691406250000000e-02,7.992553710937500000e-01,5.211181640625000000e-01
-1.000000000000000000e+00,-4.000000000000000000e+00,-1.400000000000000000e+01,-9.000000000000000000e+00,-5.000000000000000000e+00,-7.000000000000000000e+00,-1.500000000000000000e+01,-4.000000000000000000e+00,-2.922973632812500000e-01,-6.408691406250000000e-02,7.992553710937500000e-01,5.211181640625000000e-01
3.000000000000000000e+00,5.000000000000000000e+00,4.100000000000000000e+01,-7.000000000000000000e+00,-7.000000000000000000e+00,-3.000000000000000000e+00,3.000000000000000000e+00,-1.000000000000000000e+00,-2.918701171875000000e-01,-6.457519531250000000e-02,7.993774414062500000e-01,5.211181640625000000e-01
-9.000000000000000000e+00,2.000000000000000000e+00,5.600000000000000000e+01,2.600000000000000000e+01,-4.000000000000000000e+00,-7.000000000000000000e+00,2.000000000000000000e+00,-6.000000000000000000e+00,-2.918701171875000000e-01,-6.457519531250000000e-02,7.993774414062500000e-01,5.211181640625000000e-01
1.000000000000000000e+00,4.000000000000000000e+00,-6.000000000000000000e+00,0.000000000000000000e+00,1.000000000000000000e+01,1.300000000000000000e+01,1.000000000000000000e+01,1.000000000000000000e+00,-2.918701171875000000e-01,-6.457519531250000000e-02,7.993774414062500000e-01,5.211181640625000000e-01
-3.000000000000000000e+00,-1.200000000000000000e+01,-8.300000000000000000e+01,-1.500000000000000000e+01,-5.000000000000000000e+00,0.000000000000000000e+00,0.000000000000000000e+00,-1.000000000000000000e+00,-2.918701171875000000e-01,-6.457519531250000000e-02,7.993774414062500000e-01,5.211181640625000000e-01
-1.000000000000000000e+00,4.000000000000000000e+00,2.800000000000000000e+01,9.000000000000000000e+00,-2.000000000000000000e+00,-3.000000000000000000e+00,-4.000000000000000000e+00,1.000000000000000000e+00,-2.918701171875000000e-01,-6.567382812500000000e-02,7.994384765625000000e-01,5.209350585937500000e-01
1.000000000000000000e+00,-1.000000000000000000e+00,-5.300000000000000000e+01,-1.300000000000000000e+01,0.000000000000000000e+00,-4.000000000000000000e+00,-3.000000000000000000e+00,1.000000000000000000e+00,-2.918701171875000000e-01,-6.567382812500000000e-02,7.994384765625000000e-01,5.209350585937500000e-01
-4.000000000000000000e+00,-5.000000000000000000e+00,-1.700000000000000000e+01,-1.600000000000000000e+01,-5.000000000000000000e+00,-3.000000000000000000e+00,3.000000000000000000e+00,-2.000000000000000000e+00,-2.918701171875000000e-01,-6.567382812500000000e-02,7.994384765625000000e-01,5.209350585937500000e-01
-2.000000000000000000e+00,-3.000000000000000000e+00,1.600000000000000000e+01,4.000000000000000000e+00,-9.000000000000000000e+00,-4.000000000000000000e+00,-2.000000000000000000e+00,-3.000000000000000000e+00,-2.918701171875000000e-01,-6.567382812500000000e-02,7.994384765625000000e-01,5.209350585937500000e-01
0.000000000000000000e+00,2.000000000000000000e+00,-6.000000000000000000e+00,3.000000000000000000e+00,4.000000000000000000e+00,-3.000000000000000000e+00,-1.100000000000000000e+01,-2.000000000000000000e+00,-2.917480468750000000e-01,-6.646728515625000000e-02,7.993774414062500000e-01,5.209350585937500000e-01
1.000000000000000000e+00,0.000000000000000000e+00,-2.000000000000000000e+01,-1.500000000000000000e+01,0.000000000000000000e+00,-2.000000000000000000e+00,0.000000000000000000e+00,-1.000000000000000000e+00,-2.917480468750000000e-01,-6.646728515625000000e-02,7.993774414062500000e-01,5.209350585937500000e-01
-4.000000000000000000e+00,-2.000000000000000000e+00,1.000000000000000000e+01,3.000000000000000000e+00,-8.000000000000000000e+00,-5.000000000000000000e+00,0.000000000000000000e+00,-1.000000000000000000e+00,-2.917480468750000000e-01,-6.646728515625000000e-02,7.993774414062500000e-01,5.209350585937500000e-01
0.000000000000000000e+00,4.000000000000000000e+00,7.600000000000000000e+01,1.000000000000000000e+01,0.000000000000000000e+00,-5.000000000000000000e+00,-1.900000000000000000e+01,-5.000000000000000000e+00,-2.917480468750000000e-01,-6.646728515625000000e-02,7.993774414062500000e-01,5.209350585937500000e-01
5.000000000000000000e+00,7.000000000000000000e+00,1.500000000000000000e+01,3.200000000000000000e+01,2.300000000000000000e+01,1.500000000000000000e+01,7.000000000000000000e+00,4.000000000000000000e+00,-2.915039062500000000e-01,-6.640625000000000000e-02,7.993774414062500000e-01,5.211181640625000000e-01
2.000000000000000000e+00,-1.000000000000000000e+00,5.500000000000000000e+01,1.200000000000000000e+01,1.000000000000000000e+01,2.000000000000000000e+00,-4.000000000000000000e+00,-1.000000000000000000e+00,-2.915039062500000000e-01,-6.640625000000000000e-02,7.993774414062500000e-01,5.211181640625000000e-01
-4.000000000000000000e+00,-1.400000000000000000e+01,-7.200000000000000000e+01,-2.000000000000000000e+00,-8.000000000000000000e+00,-9.000000000000000000e+00,-9.000000000000000000e+00,-4.000000000000000000e+00,-2.915039062500000000e-01,-6.640625000000000000e-02,7.993774414062500000e-01,5.211181640625000000e-01
-2.000000000000000000e+00,-2.000000000000000000e+00,1.000000000000000000e+01,1.100000000000000000e+01,-8.000000000000000000e+00,-8.000000000000000000e+00,9.000000000000000000e+00,-1.000000000000000000e+00,-2.915039062500000000e-01,-6.640625000000000000e-02,7.993774414062500000e-01,5.211181640625000000e-01
-2.000000000000000000e+00,-4.000000000000000000e+00,-6.500000000000000000e+01,-3.900000000000000000e+01,-1.200000000000000000e+01,-6.000000000000000000e+00,-1.100000000000000000e+01,-1.000000000000000000e+00,-2.911376953125000000e-01,-6.652832031250000000e-02,7.995605468750000000e-01,5.209960937500000000e-01
2.000000000000000000e+00,6.000000000000000000e+00,8.000000000000000000e+00,-1.200000000000000000e+01,-3.000000000000000000e+00,4.000000000000000000e+00,3.000000000000000000e+00,2.000000000000000000e+00,-2.911376953125000000e-01,-6.652832031250000000e-02,7.995605468750000000e-01,5.209960937500000000e-01
3.000000000000000000e+00,8.000000000000000000e+00,3.000000000000000000e+01,5.000000000000000000e+00,1.000000000000000000e+00,-3.000000000000000000e+00,-6.000000000000000000e+00,0.000000000000000000e+00,-2.912597656250000000e-01,-6.701660156250000000e-02,7.994384765625000000e-01,5.210571289062500000e-01
-1.000000000000000000e+00,-3.000000000000000000e+00,-4.400000000000000000e+01,-1.400000000000000000e+01,1.000000000000000000e+00,8.000000000000000000e+00,1.400000000000000000e+01,1.000000000000000000e+00,-2.912597656250000000e-01,-6.701660156250000000e-02,7.994384765625000000e-01,5.210571289062500000e-01
3.000000000000000000e+00,5.000000000000000000e+00,8.600000000000000000e+01,2.000000000000000000e+01,5.000000000000000000e+00,8.000000000000000000e+00,8.000000000000000000e+00,0.000000000000000000e+00,-2.912597656250000000e-01,-6.701660156250000000e-02,7.994384765625000000e-01,5.210571289062500000e-01
-2.000000000000000000e+00,-7.000000000000000000e+00,2.600000000000000000e+01,1.800000000000000000e+01,2.000000000000000000e+00,0.000000000000000000e+00,4.000000000000000000e+00,-2.000000000000000000e+00,-2.912597656250000000e-01,-6.701660156250000000e-02,7.994384765625000000e-01,5.210571289062500000e-01
-4.000000000000000000e+00,-1.000000000000000000e+01,-5.400000000000000000e+01,-2.900000000000000000e+01,-4.000000000000000000e+00,-3.000000000000000000e+00,-1.100000000000000000e+01,-1.000000000000000000e+00,-2.909545898437500000e-01,-6.713867187500000000e-02,7.993774414062500000e-01,5.213012695312500000e-01
0.000000000000000000e+00,1.100000000000000000e+01,5.000000000000000000e+01,2.000000000000000000e+01,7.000000000000000000e+00,3.000000000000000000e+00,0.000000000000000000e+00,0.000000000000000000e+00,-2.909545898437500000e-01,-6.713867187500000000e-02,7.993774414062500000e-01,5.213012695312500000e-01
-4.000000000000000000e+00,-1.700000000000000000e+01,-6.500000000000000000e+01,-2.800000000000000000e+01,-1.100000000000000000e+01,-2.000000000000000000e+00,-1.200000000000000000e+01,-5.000000000000000000e+00,-2.909545898437500000e-01,-6.713867187500000000e-02,7.993774414062500000e-01,5.213012695312500000e-01
1.000000000000000000e+00,3.000000000000000000e+00,-2.000000000000000000e+00,1.000000000000000000e+01,-8.000000000000000000e+00,-6.000000000000000000e+00,9.000000000000000000e+00,1.000000000000000000e+00,-2.909545898437500000e-01,-6.713867187500000000e-02,7.993774414062500000e-01,5.213012695312500000e-01
2.000000000000000000e+00,1.000000000000000000e+00,6.300000000000000000e+01,7.000000000000000000e+00,-2.000000000000000000e+00,-3.000000000000000000e+00,-4.000000000000000000e+00,0.000000000000000000e+00,-2.905273437500000000e-01,-6.732177734375000000e-02,7.996826171875000000e-01,5.210571289062500000e-01
-4.000000000000000000e+00,1.000000000000000000e+00,3.600000000000000000e+01,1.600000000000000000e+01,-3.000000000000000000e+00,4.000000000000000000e+00,-5.000000000000000000e+00,-3.000000000000000000e+00,-2.905273437500000000e-01,-6.732177734375000000e-02,7.996826171875000000e-01,5.210571289062500000e-01
-1.000000000000000000e+00,2.000000000000000000e+00,1.700000000000000000e+01,7.000000000000000000e+00,-1.000000000000000000e+00,-4.000000000000000000e+00,-2.000000000000000000e+00,-1.000000000000000000e+00,-2.905273437500000000e-01,-6.732177734375000000e-02,7.996826171875000000e-01,5.210571289062500000e-01
-1.000000000000000000e+00,-4.000000000000000000e+00,-8.000000000000000000e+00,-1.000000000000000000e+01,-9.000000000000000000e+00,-3.000000000000000000e+00,-3.000000000000000000e+00,-2.000000000000000000e+00,-2.905273437500000000e-01,-6.732177734375000000e-02,7.996826171875000000e-01,5.210571289062500000e-01
-3.000000000000000000e+00,-7.000000000000000000e+00,-9.100000000000000000e+01,-3.400000000000000000e+01,-5.000000000000000000e+00,-3.000000000000000000e+00,1.000000000000000000e+00,-1.000000000000000000e+00,-2.905883789062500000e-01,-6.793212890625000000e-02,7.999267578125000000e-01,5.205688476562500000e-01
3.000000000000000000e+00,3.000000000000000000e+00,2.800000000000000000e+01,-1.000000000000000000e+00,8.000000000000000000e+00,0.000000000000000000e+00,1.300000000000000000e+01,1.000000000000000000e+00,-2.905883789062500000e-01,-6.793212890625000000e-02,7.999267578125000000e-01,5.205688476562500000e-01
-3.000000000000000000e+00,-3.000000000000000000e+00,2.100000000000000000e+01,7.000000000000000000e+00,1.000000000000000000e+00,3.000000000000000000e+00,-1.000000000000000000e+00,-1.000000000000000000e+00,-2.905883789062500000e-01,-6.793212890625000000e-02,7.999267578125000000e-01,5.205688476562500000e-01
-5.000000000000000000e+00,-7.000000000000000000e+00,-2.000000000000000000e+01,-2.000000000000000000e+00,-1.000000000000000000e+01,-1.100000000000000000e+01,-1.800000000000000000e+01,-4.000000000000000000e+00,-2.905883789062500000e-01,-6.793212890625000000e-02,7.999267578125000000e-01,5.205688476562500000e-01
1.000000000000000000e+00,5.000000000000000000e+00,4.600000000000000000e+01,9.000000000000000000e+00,-4.000000000000000000e+00,9.000000000000000000e+00,1.300000000000000000e+01,-1.000000000000000000e+00,-2.908935546875000000e-01,-6.896972656250000000e-02,7.999877929687500000e-01,5.202026367187500000e-01
0.000000000000000000e+00,-5.000000000000000000e+00,-2.400000000000000000e+01,-1.300000000000000000e+01,-4.000000000000000000e+00,-6.000000000000000000e+00,-9.000000000000000000e+00,-1.000000000000000000e+00,-2.908935546875000000e-01,-6.896972656250000000e-02,7.999877929687500000e-01,5.202026367187500000e-01
0.000000000000000000e+00,-3.000000000000000000e+00,-4.000000000000000000e+00,6.000000000000000000e+00,-9.000000000000000000e+00,-1.000000000000000000e+01,8.000000000000000000e+00,-1.000000000000000000e+00,-2.908935546875000000e-01,-6.896972656250000000e-02,7.999877929687500000e-01,5.202026367187500000e-01
0.000000000000000000e+00,1.100000000000000000e+01,3.300000000000000000e+01,2.200000000000000000e+01,1.400000000000000000e+01,1.100000000000000000e+01,2.000000000000000000e+00,-1.000000000000000000e+00,-2.908935546875000000e-01,-6.896972656250000000e-02,7.999877929687500000e-01,5.202026367187500000e-01
2.000000000000000000e+00,-1.000000000000000000e+00,1.200000000000000000e+01,9.000000000000000000e+00,1.000000000000000000e+00,3.000000000000000000e+00,1.000000000000000000e+00,-2.000000000000000000e+00,-2.907714843750000000e-01,-6.878662109375000000e-02,7.999877929687500000e-01,5.202636718750000000e-01
-4.000000000000000000e+00,-4.000000000000000000e+00,-3.200000000000000000e+01,-1.100000000000000000e+01,1.000000000000000000e+00,-1.000000000000000000e+00,-2.000000000000000000e+00,-2.000000000000000000e+00,-2.907714843750000000e-01,-6.878662109375000000e-02,7.999877929687500000e-01,5.202636718750000000e-01
1.000000000000000000e+00,6.000000000000000000e+00,3.000000000000000000e+00,-3.000000000000000000e+00,7.000000000000000000e+00,2.000000000000000000e+00,3.000000000000000000e+00,2.000000000000000000e+00,-2.907714843750000000e-01,-6.878662109375000000e-02,7.999877929687500000e-01,5.202636718750000000e-01
0.000000000000000000e+00,1.000000000000000000e+00,5.000000000000000000e+01,3.000000000000000000e+00,0.000000000000000000e+00,-2.000000000000000000e+00,-2.000000000000000000e+00,0.000000000000000000e+00,-2.907714843750000000e-01,-6.878662109375000000e-02,7.999877929687500000e-01,5.202636718750000000e-01
-5.000000000000000000e+00,-1.300000000000000000e+01,-5.400000000000000000e+01,-1.600000000000000000e+01,-1.000000000000000000e+01,-1.100000000000000000e+01,-1.000000000000000000e+01,-4.000000000000000000e+00,-2.905273437500000000e-01,-6.835937500000000000e-02,7.999877929687500000e-01,5.205078125000000000e-01
1.000000000000000000e+00,2.000000000000000000e+00,1.000000000000000000e+01,1.000000000000000000e+00,0.000000000000000000e+00,-3.000000000000000000e+00,2.500000000000000000e+01,3.000000000000000000e+00,-2.905273437500000000e-01,-6.835937500000000000e-02,7.999877929687500000e-01,5.205078125000000000e-01
-1.100000000000000000e+01,-7.000000000000000000e+00,2.800000000000000000e+01,8.000000000000000000e+00,-1.300000000000000000e+01,-4.000000000000000000e+00,-2.100000000000000000e+01,-1.000000000000000000e+01,-2.905273437500000000e-01,-6.835937500000000000e-02,7.999877929687500000e-01,5.205078125000000000e-01
3.000000000000000000e+00,3.000000000000000000e+00,-9.000000000000000000e+00,-2.000000000000000000e+01,3.000000000000000000e+00,3.000000000000000000e+00,2.000000000000000000e+00,1.000000000000000000e+00,-2.905273437500000000e-01,-6.835937500000000000e-02,7.999877929687500000e-01,5.205078125000000000e-01
0.000000000000000000e+00,5.000000000000000000e+00,2.200000000000000000e+01,2.400000000000000000e+01,4.000000000000000000e+00,2.000000000000000000e+00,-1.000000000000000000e+00,0.000000000000000000e+00,-2.904663085937500000e-01,-6.829833984375000000e-02,7.999877929687500000e-01,5.205078125000000000e-01
-1.000000000000000000e+00,-2.000000000000000000e+00,0.000000000000000000e+00,1.000000000000000000e+00,-2.000000000000000000e+00,-4.000000000000000000e+00,-5.000000000000000000e+00,-2.000000000000000000e+00,-2.904663085937500000e-01,-6.829833984375000000e-02,7.999877929687500000e-01,5.205078125000000000e-01
0.000000000000000000e+00,-2.000000000000000000e+00,-1.100000000000000000e+01,1.000000000000000000e+00,7.000000000000000000e+00,-3.000000000000000000e+00,3.000000000000000000e+00,1.000000000000000000e+00,-2.904663085937500000e-01,-6.829833984375000000e-02,7.999877929687500000e-01,5.205078125000000000e-01
-2.000000000000000000e+00,-8.000000000000000000e+00,-1.600000000000000000e+01,-3.000000000000000000e+00,-3.000000000000000000e+00,0.000000000000000000e+00,0.000000000000000000e+00,-2.000000000000000000e+00,-2.904663085937500000e-01,-6.829833984375000000e-02,7.999877929687500000e-01,5.205078125000000000e-01
-1.000000000000000000e+00,1.000000000000000000e+00,-4.000000000000000000e+00,0.000000000000000000e+00,-1.000000000000000000e+00,1.000000000000000000e+00,0.000000000000000000e+00,0.000000000000000000e+00,-2.904052734375000000e-01,-6.872558593750000000e-02,8.001098632812500000e-01,5.202636718750000000e-01
-2.000000000000000000e+00,-3.000000000000000000e+00,-3.000000000000000000e+01,-2.400000000000000000e+01,-2.100000000000000000e+01,-1.200000000000000000e+01,-1.800000000000000000e+01,-3.000000000000000000e+00,-2.904052734375000000e-01,-6.872558593750000000e-02,8.001098632812500000e-01,5.202636718750000000e-01
3.000000000000000000e+00,-1.000000000000000000e+00,-8.700000000000000000e+01,1.500000000000000000e+01,2.000000000000000000e+01,1.200000000000000000e+01,6.000000000000000000e+00,3.000000000000000000e+00,-2.904052734375000000e-01,-6.872558593750000000e-02,8.001098632812500000e-01,5.202636718750000000e-01
-8.000000000000000000e+00,-1.000000000000000000e+01,1.900000000000000000e+01,8.000000000000000000e+00,-2.000000000000000000e+00,-3.000000000000000000e+00,0.000000000000000000e+00,-3.000000000000000000e+00,-2.904052734375000000e-01,-6.872558593750000000e-02,8.001098632812500000e-01,5.202636718750000000e-01
4.000000000000000000e+00,6.000000000000000000e+00,6.800000000000000000e+01,1.400000000000000000e+01,4.000000000000000000e+00,1.000000000000000000e+00,5.000000000000000000e+00,1.000000000000000000e+00,-2.903442382812500000e-01,-6.915283203125000000e-02,8.002929687500000000e-01,5.200195312500000000e-01
-4.000000000000000000e+00,-5.000000000000000000e+00,-2.900000000000000000e+01,-1.600000000000000000e+01,-1.100000000000000000e+01,3.000000000000000000e+00,-3.000000000000000000e+00,-1.000000000000000000e+00,-2.903442382812500000e-01,-6.915283203125000000e-02,8.002929687500000000e-01,5.200195312500000000e-01
-1.000000000000000000e+00,3.000000000000000000e+00,0.000000000000000000e+00,-1.600000000000000000e+01,-5.000000000000000000e+00,-9.000000000000000000e+00,-8.000000000000000000e+00,-1.000000000000000000e+00,-2.903442382812500000e-01,-6.915283203125000000e-02,8.002929687500000000e-01,5.200195312500000000e-01
-1.000000000000000000e+00,-3.000000000000000000e+00,-3.200000000000000000e+01,-1.500000000000000000e+01,-3.000000000000000000e+00,-5.000000000000000000e+00,-3.000000000000000000e+00,-1.000000000000000000e+00,-2.903442382812500000e-01,-6.915283203125000000e-02,8.002929687500000000e-01,5.200195312500000000e-01
-3.000000000000000000e+00,-2.000000000000000000e+00,-1.000000000000000000e+00,1.000000000000000000e+00,-5.000000000000000000e+00,0.000000000000000000e+00,6.000000000000000000e+00,-2.000000000000000000e+00,-2.903442382812500000e-01,-6.921386718750000000e-02,8.002319335937500000e-01,5.200195312500000000e-01
-1.000000000000000000e+00,-2.000000000000000000e+00,5.000000000000000000e+00,5.000000000000000000e+00,8.000000000000000000e+00,7.000000000000000000e+00,-2.000000000000000000e+00,-1.000000000000000000e+00,-2.903442382812500000e-01,-6.921386718750000000e-02,8.002319335937500000e-01,5.200195312500000000e-01
-2.000000000000000000e+00,-2.000000000000000000e+00,9.000000000000000000e+00,-1.000000000000000000e+00,-9.000000000000000000e+00,-7.000000000000000000e+00,-2.000000000000000000e+00,-1.000000000000000000e+00,-2.903442382812500000e-01,-6.921386718750000000e-02,8.002319335937500000e-01,5.200195312500000000e-01
3.000000000000000000e+00,5.000000000000000000e+00,-4.000000000000000000e+01,-3.400000000000000000e+01,1.500000000000000000e+01,1.500000000000000000e+01,1.000000000000000000e+01,5.000000000000000000e+00,-2.903442382812500000e-01,-6.921386718750000000e-02,8.002319335937500000e-01,5.200195312500000000e-01
3.000000000000000000e+00,1.200000000000000000e+01,1.270000000000000000e+02,5.200000000000000000e+01,2.000000000000000000e+00,-3.000000000000000000e+00,8.000000000000000000e+00,0.000000000000000000e+00,-2.901000976562500000e-01,-6.884765625000000000e-02,8.002929687500000000e-01,5.201416015625000000e-01
-1.000000000000000000e+01,-3.700000000000000000e+01,-9.800000000000000000e+01,-4.400000000000000000e+01,-7.000000000000000000e+00,-6.000000000000000000e+00,-1.400000000000000000e+01,-7.000000000000000000e+00,-2.901000976562500000e-01,-6.884765625000000000e-02,8.002929687500000000e-01,5.201416015625000000e-01
2.000000000000000000e+00,7.000000000000000000e+00,7.200000000000000000e+01,-2.500000000000000000e+01,-1.000000000000000000e+01,-6.000000000000000000e+00,2.000000000000000000e+00,-1.000000000000000000e+00,-2.901000976562500000e-01,-6.884765625000000000e-02,8.002929687500000000e-01,5.201416015625000000e-01
3.000000000000000000e+00,0.000000000000000000e+00,-3.500000000000000000e+01,2.000000000000000000e+00,-3.000000000000000000e+00,-2.000000000000000000e+00,-2.000000000000000000e+00,1.000000000000000000e+00,-2.901000976562500000e-01,-6.884765625000000000e-02,8.002929687500000000e-01,5.201416015625000000e-01
1.000000000000000000e+00,0.000000000000000000e+00,-7.000000000000000000e+00,-1.400000000000000000e+01,-7.000000000000000000e+00,-8.000000000000000000e+00,-6.000000000000000000e+00,1.000000000000000000e+00,-2.902832031250000000e-01,-6.909179687500000000e-02,8.003540039062500000e-01,5.199584960937500000e-01
2.000000000000000000e+00,7.000000000000000000e+00,1.800000000000000000e+01,1.600000000000000000e+01,9.000000000000000000e+00,6.000000000000000000e+00,8.000000000000000000e+00,3.000000000000000000e+00,-2.902832031250000000e-01,-6.909179687500000000e-02,8.003540039062500000e-01,5.199584960937500000e-01
2.000000000000000000e+00,1.000000000000000000e+00,-2.200000000000000000e+01,0.000000000000000000e+00,1.200000000000000000e+01,7.000000000000000000e+00,6.000000000000000000e+00,4.000000000000000000e+00,-2.902832031250000000e-01,-6.909179687500000000e-02,8.003540039062500000e-01,5.199584960937500000e-01
-1.000000000000000000e+00,0.000000000000000000e+00,2.300000000000000000e+01,1.300000000000000000e+01,-3.000000000000000000e+00,-6.000000000000000000e+00,-5.000000000000000000e+00,-3.000000000000000000e+00,-2.902832031250000000e-01,-6.909179687500000000e-02,8.003540039062500000e-01,5.199584960937500000e-01
-3.000000000000000000e+00,-3.000000000000000000e+00,-8.000000000000000000e+01,-2.500000000000000000e+01,3.000000000000000000e+00,-3.000000000000000000e+00,-7.000000000000000000e+00,-4.000000000000000000e+00,-2.899780273437500000e-01,-6.915283203125000000e-02,8.005371093750000000e-01,5.198364257812500000e-01
-4.000000000000000000e+00,-1.200000000000000000e+01,-3.900000000000000000e+01,0.000000000000000000e+00,-1.000000000000000000e+01,-3.000000000000000000e+00,-6.000000000000000000e+00,-2.000000000000000000e+00,-2.899780273437500000e-01,-6.915283203125000000e-02,8.005371093750000000e-01,5.198364257812500000e-01
-3.000000000000000000e+00,1.000000000000000000e+00,1.800000000000000000e+01,-3.000000000000000000e+00,-9.000000000000000000e+00,-2.000000000000000000e+00,1.000000000000000000e+00,-2.000000000000000000e+00,-2.899780273437500000e-01,-6.915283203125000000e-02,8.005371093750000000e-01,5.198364257812500000e-01
1.000000000000000000e+00,7.000000000000000000e+00,3.500000000000000000e+01,1.000000000000000000e+00,-2.000000000000000000e+00,1.000000000000000000e+00,1.000000000000000000e+00,1.000000000000000000e+00,-2.899780273437500000e-01,-6.915283203125000000e-02,8.005371093750000000e-01,5.198364257812500000e-01
-1.000000000000000000e+00,2.000000000000000000e+00,1.700000000000000000e+01,1.000000000000000000e+01,1.100000000000000000e+01,7.000000000000000000e+00,-9.000000000000000000e+00,-1.000000000000000000e+00,-2.897949218750000000e-01,-6.964111328125000000e-02,8.007812500000000000e-01,5.194702148437500000e-01
1.000000000000000000e+00,7.000000000000000000e+00,2.600000000000000000e+01,7.000000000000000000e+00,1.000000000000000000e+00,1.000000000000000000e+00,4.000000000000000000e+00,-1.000000000000000000e+00,-2.897949218750000000e-01,-6.964111328125000000e-02,8.007812500000000000e-01,5.194702148437500000e-01
-2.000000000000000000e+00,-4.000000000000000000e+00,-1.000000000000000000e+01,3.000000000000000000e+00,-1.000000000000000000e+00,-1.100000000000000000e+01,1.300000000000000000e+01,0.000000000000000000e+00,-2.897949218750000000e-01,-6.964111328125000000e-02,8.007812500000000000e-01,5.194702148437500000e-01
-2.000000000000000000e+00,-6.000000000000000000e+00,-2.900000000000000000e+01,-9.000000000000000000e+00,-5.000000000000000000e+00,-1.300000000000000000e+01,-3.200000000000000000e+01,-3.000000000000000000e+00,-2.897949218750000000e-01,-6.964111328125000000e-02,8.007812500000000000e-01,5.194702148437500000e-01
5.000000000000000000e+00,-1.000000000000000000e+00,1.000000000000000000e+00,7.000000000000000000e+00,9.000000000000000000e+00,4.200000000000000000e+01,6.000000000000000000e+01,8.000000000000000000e+00,-2.896728515625000000e-01,-6.945800781250000000e-02,8.010864257812500000e-01,5.191040039062500000e-01
-1.000000000000000000e+00,2.000000000000000000e+00,2.300000000000000000e+01,1.000000000000000000e+01,-1.000000000000000000e+00,-1.000000000000000000e+01,-1.000000000000000000e+01,-2.000000000000000000e+00,-2.896728515625000000e-01,-6.945800781250000000e-02,8.010864257812500000e-01,5.191040039062500000e-01
-1.000000000000000000e+00,8.000000000000000000e+00,5.200000000000000000e+01,2.900000000000000000e+01,0.000000000000000000e+00,2.000000000000000000e+00,4.000000000000000000e+00,-4.000000000000000000e+00,-2.896728515625000000e-01,-6.945800781250000000e-02,8.010864257812500000e-01,5.191040039062500000e-01
-2.000000000000000000e+00,-5.000000000000000000e+00,-3.500000000000000000e+01,-1.000000000000000000e+00,-7.000000000000000000e+00,-1.100000000000000000e+01,-6.000000000000000000e+00,-1.000000000000000000e+00,-2.896728515625000000e-01,-6.945800781250000000e-02,8.010864257812500000e-01,5.191040039062500000e-01
-3.000000000000000000e+00,-1.000000000000000000e+01,-9.000000000000000000e+01,-3.300000000000000000e+01,5.000000000000000000e+00,-6.000000000000000000e+00,-1.000000000000000000e+01,3.000000000000000000e+00,-2.901611328125000000e-01,-7.000732421875000000e-02,8.012084960937500000e-01,5.186157226562500000e-01
1.000000000000000000e+00,6.000000000000000000e+00,1.600000000000000000e+01,-2.000000000000000000e+00,5.000000000000000000e+00,8.000000000000000000e+00,6.000000000000000000e+00,2.000000000000000000e+00,-2.901611328125000000e-01,-7.000732421875000000e-02,8.012084960937500000e-01,5.186157226562500000e-01
-1.000000000000000000e+00,-1.000000000000000000e+00,-2.300000000000000000e+01,4.000000000000000000e+00,-8.000000000000000000e+00,-4.000000000000000000e+00,-8.000000000000000000e+00,-4.000000000000000000e+00,-2.901611328125000000e-01,-7.000732421875000000e-02,8.012084960937500000e-01,5.186157226562500000e-01
-1.000000000000000000e+00,-1.000000000000000000e+00,-1.600000000000000000e+01,-2.300000000000000000e+01,-8.000000000000000000e+00,-1.000000000000000000e+00,1.400000000000000000e+01,-1.000000000000000000e+00,-2.901611328125000000e-01,-7.000732421875000000e-02,8.012084960937500000e-01,5.186157226562500000e-01
-1.000000000000000000e+00,2.000000000000000000e+00,2.900000000000000000e+01,-4.000000000000000000e+00,-4.000000000000000000e+00,-9.000000000000000000e+00,-2.300000000000000000e+01,-6.000000000000000000e+00,-2.901611328125000000e-01,-6.964111328125000000e-02,8.012695312500000000e-01,5.184936523437500000e-01
1.000000000000000000e+00,6.000000000000000000e+00,4.500000000000000000e+01,5.000000000000000000e+00,-6.000000000000000000e+00,-1.000000000000000000e+00,3.000000000000000000e+00,-1.000000000000000000e+00,-2.901611328125000000e-01,-6.964111328125000000e-02,8.012695312500000000e-01,5.184936523437500000e-01
-1.000000000000000000e+00,-7.000000000000000000e+00,-2.000000000000000000e+00,1.400000000000000000e+01,8.000000000000000000e+00,1.000000000000000000e+00,-1.200000000000000000e+01,0.000000000000000000e+00,-2.901611328125000000e-01,-6.964111328125000000e-02,8.012695312500000000e-01,5.184936523437500000e-01
-1.000000000000000000e+00,-2.000000000000000000e+00,2.100000000000000000e+01,0.000000000000000000e+00,0.000000000000000000e+00,3.000000000000000000e+00,3.000000000000000000e+00,-4.000000000000000000e+00,-2.901611328125000000e-01,-6.964111328125000000e-02,8.012695312500000000e-01,5.184936523437500000e-01
-3.000000000000000000e+00,3.000000000000000000e+00,3.600000000000000000e+01,-1.000000000000000000e+01,-1.200000000000000000e+01,-1.100000000000000000e+01,-5.000000000000000000e+00,-2.000000000000000000e+00,-2.900390625000000000e-01,-6.964111328125000000e-02,8.014526367187500000e-01,5.183105468750000000e-01
2.000000000000000000e+00,4.000000000000000000e+00,2.000000000000000000e+01,3.000000000000000000e+00,7.000000000000000000e+00,-3.000000000000000000e+00,-3.000000000000000000e+00,0.000000000000000000e+00,-2.900390625000000000e-01,-6.964111328125000000e-02,8.014526367187500000e-01,5.183105468750000000e-01
0.000000000000000000e+00,9.000000000000000000e+00,2.700000000000000000e+01,8.000000000000000000e+00,7.000000000000000000e+00,7.000000000000000000e+00,1.000000000000000000e+00,0.000000000000000000e+00,-2.900390625000000000e-01,-6.964111328125000000e-02,8.014526367187500000e-01,5.183105468750000000e-01
-7.000000000000000000e+00,-2.700000000000000000e+01,-6.600000000000000000e+01,-8.000000000000000000e+00,-1.300000000000000000e+01,-5.000000000000000000e+00,0.000000000000000000e+00,-4.000000000000000000e+00,-2.900390625000000000e-01,-6.964111328125000000e-02,8.014526367187500000e-01,5.183105468750000000e-01
0.000000000000000000e+00,0.000000000000000000e+00,6.900000000000000000e+01,1.200000000000000000e+01,-3.000000000000000000e+00,-3.000000000000000000e+00,1.000000000000000000e+00,0.000000000000000000e+00,-2.900390625000000000e-01,-6.964111328125000000e-02,8.014526367187500000e-01,5.183105468750000000e-01
-3.000000000000000000e+00,4.000000000000000000e+00,4.100000000000000000e+01,1.500000000000000000e+01,6.000000000000000000e+00,-1.000000000000000000e+00,-7.000000000000000000e+00,-3.000000000000000000e+00,-2.900390625000000000e-01,-6.964111328125000000e-02,8.014526367187500000e-01,5.183105468750000000e-01
1.000000000000000000e+00,-2.000000000000000000e+00,-2.000000000000000000e+01,-1.600000000000000000e+01,-2.000000000000000000e+00,1.500000000000000000e+01,2.500000000000000000e+01,2.000000000000000000e+00,-2.900390625000000000e-01,-6.964111328125000000e-02,8.014526367187500000e-01,5.183105468750000000e-01
4.000000000000000000e+00,8.000000000000000000e+00,1.700000000000000000e+01,4.000000000000000000e+00,7.000000000000000000e+00,2.000000000000000000e+00,1.000000000000000000e+00,3.000000000000000000e+00,-2.900390625000000000e-01,-6.964111328125000000e-02,8.014526367187500000e-01,5.183105468750000000e-01
-2.000000000000000000e+00,-3.000000000000000000e+00,-3.500000000000000000e+01,0.000000000000000000e+00,1.000000000000000000e+00,-5.000000000000000000e+00,8.000000000000000000e+00,-1.000000000000000000e+00,-2.899780273437500000e-01,-6.964111328125000000e-02,8.014526367187500000e-01,5.183105468750000000e-01
-1.000000000000000000e+00,-2.000000000000000000e+00,-3.000000000000000000e+00,-7.000000000000000000e+00,-6.000000000000000000e+00,-6.000000000000000000e+00,-1.300000000000000000e+01,-2.000000000000000000e+00,-2.899780273437500000e-01,-6.964111328125000000e-02,8.014526367187500000e-01,5.183105468750000000e-01
-2.000000000000000000e+00,-3.000000000000000000e+00,4.500000000000000000e+01,1.400000000000000000e+01,-4.000000000000000000e+00,-6.000000000000000000e+00,-8.000000000000000000e+00,-2.000000000000000000e+00,-2.899780273437500000e-01,-6.964111328125000000e-02,8.014526367187500000e-01,5.183105468750000000e-01
-2.000000000000000000e+00,-1.000000000000000000e+00,-1.400000000000000000e+01,-1.100000000000000000e+01,0.000000000000000000e+00,0.000000000000000000e+00,-6.000000000000000000e+00,-2.000000000000000000e+00,-2.899780273437500000e-01,-6.964111328125000000e-02,8.014526367187500000e-01,5.183105468750000000e-01
-1.000000000000000000e+00,1.000000000000000000e+00,4.100000000000000000e+01,3.000000000000000000e+00,2.000000000000000000e+00,-1.000000000000000000e+00,5.000000000000000000e+00,0.000000000000000000e+00,-2.898559570312500000e-01,-6.933593750000000000e-02,8.016357421875000000e-01,5.181884765625000000e-01
-2.000000000000000000e+00,0.000000000000000000e+00,9.000000000000000000e+00,-8.000000000000000000e+00,-3.000000000000000000e+00,-1.000000000000000000e+00,5.000000000000000000e+00,1.000000000000000000e+00,-2.898559570312500000e-01,-6.933593750000000000e-02,8.016357421875000000e-01,5.181884765625000000e-01
-1.000000000000000000e+00,-3.000000000000000000e+00,1.200000000000000000e+01,5.000000000000000000e+00,1.000000000000000000e+00,1.000000000000000000e+00,-6.000000000000000000e+00,0.000000000000000000e+00,-2.898559570312500000e-01,-6.933593750000000000e-02,8.016357421875000000e-01,5.181884765625000000e-01
1.000000000000000000e+00,1.000000000000000000e+00,-3.700000000000000000e+01,-1.900000000000000000e+01,-2.000000000000000000e+00,0.000000000000000000e+00,2.000000000000000000e+00,-4.000000000000000000e+00,-2.898559570312500000e-01,-6.933593750000000000e-02,8.016357421875000000e-01,5.181884765625000000e-01
0.000000000000000000e+00,9.000000000000000000e+00,4.800000000000000000e+01,3.000000000000000000e+00,4.000000000000000000e+00,-1.000000000000000000e+00,-7.000000000000000000e+00,-2.000000000000000000e+00,-2.899169921875000000e-01,-6.933593750000000000e-02,8.018188476562500000e-01,5.178833007812500000e-01
2.000000000000000000e+00,-7.000000000000000000e+00,-6.400000000000000000e+01,-1.000000000000000000e+00,3.000000000000000000e+00,3.000000000000000000e+00,-1.000000000000000000e+00,1.000000000000000000e+00,-2.899169921875000000e-01,-6.933593750000000000e-02,8.018188476562500000e-01,5.178833007812500000e-01
-2.000000000000000000e+00,-2.000000000000000000e+00,3.700000000000000000e+01,-1.000000000000000000e+01,-5.000000000000000000e+00,-4.000000000000000000e+00,-5.000000000000000000e+00,-3.000000000000000000e+00,-2.899169921875000000e-01,-6.933593750000000000e-02,8.018188476562500000e-01,5.178833007812500000e-01
-2.000000000000000000e+00,2.000000000000000000e+00,1.200000000000000000e+01,8.000000000000000000e+00,-4.000000000000000000e+00,-1.000000000000000000e+00,2.000000000000000000e+00,-1.000000000000000000e+00,-2.899169921875000000e-01,-6.933593750000000000e-02,8.018188476562500000e-01,5.178833007812500000e-01
0.000000000000000000e+00,-7.000000000000000000e+00,-9.300000000000000000e+01,-1.200000000000000000e+01,2.000000000000000000e+00,3.000000000000000000e+00,-9.000000000000000000e+00,-1.000000000000000000e+00,-2.901611328125000000e-01,-6.988525390625000000e-02,8.018798828125000000e-01,5.175781250000000000e-01
-1.000000000000000000e+00,1.000000000000000000e+00,2.400000000000000000e+01,-3.000000000000000000e+00,9.000000000000000000e+00,1.000000000000000000e+00,-1.000000000000000000e+00,2.000000000000000000e+00,-2.901611328125000000e-01,-6.988525390625000000e-02,8.018798828125000000e-01,5.175781250000000000e-01
-1.000000000000000000e+00,-6.000000000000000000e+00,1.200000000000000000e+01,-7.000000000000000000e+00,-1.000000000000000000e+01,-2.000000000000000000e+00,4.000000000000000000e+00,1.000000000000000000e+00,-2.901611328125000000e-01,-6.988525390625000000e-02,8.018798828125000000e-01,5.175781250000000000e-01
-5.000000000000000000e+00,0.000000000000000000e+00,-2.200000000000000000e+01,-5.000000000000000000e+00,0.000000000000000000e+00,6.000000000000000000e+00,2.000000000000000000e+00,-3.000000000000000000e+00,-2.901611328125000000e-01,-6.988525390625000000e-02,8.018798828125000000e-01,5.175781250000000000e-01
-5.000000000000000000e+00,-6.000000000000000000e+00,-2.100000000000000000e+01,-2.400000000000000000e+01,-9.000000000000000000e+00,-1.000000000000000000e+01,-1.100000000000000000e+01,-5.000000000000000000e+00,-2.900390625000000000e-01,-7.019042968750000000e-02,8.019409179687500000e-01,5.175170898437500000e-01
1.000000000000000000e+00,0.000000000000000000e+00,6.000000000000000000e+00,9.000000000000000000e+00,-6.000000000000000000e+00,0.000000000000000000e+00,3.000000000000000000e+00,1.000000000000000000e+00,-2.900390625000000000e-01,-7.019042968750000000e-02,8.019409179687500000e-01,5.175170898437500000e-01
-2.000000000000000000e+00,0.000000000000000000e+00,-3.000000000000000000e+00,3.000000000000000000e+00,8.000000000000000000e+00,6.000000000000000000e+00,-8.000000000000000000e+00,-3.000000000000000000e+00,-2.900390625000000000e-01,-7.019042968750000000e-02,8.019409179687500000e-01,5.175170898437500000e-01
1.000000000000000000e+00,-2.000000000000000000e+00,-6.000000000000000000e+00,-1.000000000000000000e+01,-1.000000000000000000e+00,-2.000000000000000000e+00,0.000000000000000000e+00,-2.000000000000000000e+00,-2.900390625000000000e-01,-7.019042968750000000e-02,8.019409179687500000e-01,5.175170898437500000e-01
0.000000000000000000e+00,-1.000000000000000000e+00,-1.300000000000000000e+01,0.000000000000000000e+00,-5.000000000000000000e+00,-2.000000000000000000e+00,-1.400000000000000000e+01,-2.000000000000000000e+00,-2.897949218750000000e-01,-7.012939453125000000e-02,8.020019531250000000e-01,5.175170898437500000e-01
0.000000000000000000e+00,3.000000000000000000e+00,4.500000000000000000e+01,1.100000000000000000e+01,0.000000000000000000e+00,-7.000000000000000000e+00,-1.000000000000000000e+00,0.000000000000000000e+00,-2.897949218750000000e-01,-7.012939453125000000e-02,8.020019531250000000e-01,5.175170898437500000e-01
0.000000000000000000e+00,-3.000000000000000000e+00,-3.600000000000000000e+01,-2.400000000000000000e+01,-1.000000000000000000e+00,9.000000000000000000e+00,1.100000000000000000e+01,2.000000000000000000e+00,-2.897949218750000000e-01,-7.012939453125000000e-02,8.020019531250000000e-01,5.175170898437500000e-01
1.000000000000000000e+00,2.000000000000000000e+00,4.200000000000000000e+01,1.200000000000000000e+01,1.000000000000000000e+00,0.000000000000000000e+00,-4.000000000000000000e+00,1.000000000000000000e+00,-2.897949218750000000e-01,-7.012939453125000000e-02,8.020019531250000000e-01,5.175170898437500000e-01
1.000000000000000000e+00,0.000000000000000000e+00,0.000000000000000000e+00,6.000000000000000000e+00,2.000000000000000000e+00,1.000000000000000000e+00,0.000000000000000000e+00,1.000000000000000000e+00,-2.895507812500000000e-01,-7.006835937500000000e-02,8.021850585937500000e-01,5.173950195312500000e-01
2.000000000000000000e+00,5.000000000000000000e+00,1.700000000000000000e+01,6.000000000000000000e+00,4.000000000000000000e+00,-1.000000000000000000e+00,-2.000000000000000000e+00,-1.000000000000000000e+00,-2.895507812500000000e-01,-7.006835937500000000e-02,8.021850585937500000e-01,5.173950195312500000e-01
-6.000000000000000000e+00,-1.000000000000000000e+00,4.400000000000000000e+01,1.500000000000000000e+01,-2.000000000000000000e+00,-8.000000000000000000e+00,1.000000000000000000e+00,-3.000000000000000000e+00,-2.895507812500000000e-01,-7.006835937500000000e-02,8.021850585937500000e-01,5.173950195312500000e-01
1.000000000000000000e+00,5.000000000000000000e+00,1.600000000000000000e+01,1.400000000000000000e+01,5.000000000000000000e+00,0.000000000000000000e+00,-6.000000000000000000e+00,1.000000000000000000e+00,-2.895507812500000000e-01,-7.006835937500000000e-02,8.021850585937500000e-01,5.173950195312500000e-01
0.000000000000000000e+00,0.000000000000000000e+00,5.200000000000000000e+01,2.800000000000000000e+01,0.000000000000000000e+00,1.000000000000000000e+00,-3.000000000000000000e+00,0.000000000000000000e+00,-2.896118164062500000e-01,-7.031250000000000000e-02,8.023071289062500000e-01,5.171508789062500000e-01
-4.000000000000000000e+00,-8.000000000000000000e+00,-6.100000000000000000e+01,-1.800000000000000000e+01,-4.000000000000000000e+00,1.000000000000000000e+00,0.000000000000000000e+00,-2.000000000000000000e+00,-2.896118164062500000e-01,-7.031250000000000000e-02,8.023071289062500000e-01,5.171508789062500000e-01
2.000000000000000000e+00,0.000000000000000000e+00,3.000000000000000000e+00,-1.000000000000000000e+00,1.000000000000000000e+00,-1.000000000000000000e+00,4.000000000000000000e+00,1.000000000000000000e+00,-2.896118164062500000e-01,-7.031250000000000000e-02,8.023071289062500000e-01,5.171508789062500000e-01
-3.000000000000000000e+00,-7.000000000000000000e+00,-4.100000000000000000e+01,-1.600000000000000000e+01,-8.000000000000000000e+00,3.000000000000000000e+00,4.000000000000000000e+00,-2.000000000000000000e+00,-2.896118164062500000e-01,-7.031250000000000000e-02,8.023071289062500000e-01,5.171508789062500000e-01
