-3.000000000000000000e+00,1.000000000000000000e+00,5.000000000000000000e+00,2.000000000000000000e+00,8.000000000000000000e+00,0.000000000000000000e+00,1.000000000000000000e+01,1.000000000000000000e+00,-4.149169921875000000e-01,-2.905273437500000000e-02,8.655395507812500000e-01,2.789306640625000000e-01
-1.000000000000000000e+00,-1.000000000000000000e+00,2.100000000000000000e+01,-1.000000000000000000e+00,-2.000000000000000000e+00,-5.000000000000000000e+00,-6.000000000000000000e+00,-1.000000000000000000e+00,-4.149169921875000000e-01,-2.905273437500000000e-02,8.655395507812500000e-01,2.789306640625000000e-01
-1.000000000000000000e+00,3.000000000000000000e+00,1.000000000000000000e+01,2.000000000000000000e+00,1.000000000000000000e+00,-6.000000000000000000e+00,-1.600000000000000000e+01,-4.000000000000000000e+00,-4.133300781250000000e-01,-2.996826171875000000e-02,8.660888671875000000e-01,2.794799804687500000e-01
-2.000000000000000000e+00,1.000000000000000000e+00,2.300000000000000000e+01,7.000000000000000000e+00,1.000000000000000000e+00,1.200000000000000000e+01,2.900000000000000000e+01,4.000000000000000000e+00,-4.133300781250000000e-01,-2.996826171875000000e-02,8.660888671875000000e-01,2.794799804687500000e-01
2.000000000000000000e+00,-1.000000000000000000e+01,-2.100000000000000000e+01,-2.100000000000000000e+01,-9.000000000000000000e+00,1.000000000000000000e+00,-5.000000000000000000e+00,-1.000000000000000000e+00,-4.133300781250000000e-01,-2.996826171875000000e-02,8.660888671875000000e-01,2.794799804687500000e-01
-3.000000000000000000e+00,2.000000000000000000e+00,1.300000000000000000e+01,1.700000000000000000e+01,7.000000000000000000e+00,-9.000000000000000000e+00,-3.000000000000000000e+01,-3.000000000000000000e+00,-4.133300781250000000e-01,-2.996826171875000000e-02,8.660888671875000000e-01,2.794799804687500000e-01
-2.000000000000000000e+00,-4.000000000000000000e+00,-7.000000000000000000e+00,1.000000000000000000e+00,-4.000000000000000000e+00,2.000000000000000000e+01,9.000000000000000000e+00,0.000000000000000000e+00,-4.118041992187500000e-01,-3.106689453125000000e-02,8.666381835937500000e-01,2.799072265625000000e-01
1.000000000000000000e+00,1.000000000000000000e+00,-1.600000000000000000e+01,9.000000000000000000e+00,-7.000000000000000000e+00,-1.600000000000000000e+01,8.000000000000000000e+00,0.000000000000000000e+00,-4.118041992187500000e-01,-3.106689453125000000e-02,8.666381835937500000e-01,2.799072265625000000e-01
0.000000000000000000e+00,3.000000000000000000e+00,5.000000000000000000e+00,-3.300000000000000000e+01,-1.100000000000000000e+01,-3.000000000000000000e+00,-1.600000000000000000e+01,-3.000000000000000000e+00,-4.118041992187500000e-01,-3.106689453125000000e-02,8.666381835937500000e-01,2.799072265625000000e-01
3.000000000000000000e+00,-6.000000000000000000e+00,2.000000000000000000e+00,8.000000000000000000e+00,1.300000000000000000e+01,3.000000000000000000e+00,1.000000000000000000e+00,-5.000000000000000000e+00,-4.118041992187500000e-01,-3.106689453125000000e-02,8.666381835937500000e-01,2.799072265625000000e-01
-1.800000000000000000e+01,-2.000000000000000000e+00,1.000000000000000000e+00,-9.000000000000000000e+00,-7.000000000000000000e+00,-1.100000000000000000e+01,-1.600000000000000000e+01,0.000000000000000000e+00,-4.104614257812500000e-01,-3.265380859375000000e-02,8.671264648437500000e-01,2.801513671875000000e-01
-2.000000000000000000e+00,0.000000000000000000e+00,-1.000000000000000000e+00,3.000000000000000000e+00,-7.000000000000000000e+00,-1.000000000000000000e+00,-7.000000000000000000e+00,0.000000000000000000e+00,-4.104614257812500000e-01,-3.265380859375000000e-02,8.671264648437500000e-01,2.801513671875000000e-01
-2.000000000000000000e+00,8.000000000000000000e+00,2.600000000000000000e+01,5.600000000000000000e+01,3.300000000000000000e+01,1.600000000000000000e+01,3.200000000000000000e+01,5.000000000000000000e+00,-4.104614257812500000e-01,-3.265380859375000000e-02,8.671264648437500000e-01,2.801513671875000000e-01
-1.000000000000000000e+00,-2.000000000000000000e+01,-7.900000000000000000e+01,-2.500000000000000000e+01,-1.800000000000000000e+01,-1.100000000000000000e+01,-9.000000000000000000e+00,-3.000000000000000000e+00,-4.104614257812500000e-01,-3.265380859375000000e-02,8.671264648437500000e-01,2.801513671875000000e-01
1.300000000000000000e+01,1.000000000000000000e+00,6.000000000000000000e+00,-1.500000000000000000e+01,1.400000000000000000e+01,4.000000000000000000e+00,4.000000000000000000e+00,3.000000000000000000e+00,-4.095458984375000000e-01,-3.387451171875000000e-02,8.673706054687500000e-01,2.805786132812500000e-01
-6.000000000000000000e+00,-5.000000000000000000e+00,-1.400000000000000000e+01,-1.300000000000000000e+01,0.000000000000000000e+00,-3.000000000000000000e+00,-1.400000000000000000e+01,-5.000000000000000000e+00,-4.095458984375000000e-01,-3.387451171875000000e-02,8.673706054687500000e-01,2.805786132812500000e-01
-2.000000000000000000e+00,3.000000000000000000e+00,-6.000000000000000000e+00,-7.000000000000000000e+00,-1.600000000000000000e+01,-1.800000000000000000e+01,-1.800000000000000000e+01,-1.000000000000000000e+00,-4.095458984375000000e-01,-3.387451171875000000e-02,8.673706054687500000e-01,2.805786132812500000e-01
-8.000000000000000000e+00,7.000000000000000000e+00,4.900000000000000000e+01,4.000000000000000000e+00,-2.400000000000000000e+01,-2.000000000000000000e+00,-5.000000000000000000e+00,-1.000000000000000000e+00,-4.095458984375000000e-01,-3.387451171875000000e-02,8.673706054687500000e-01,2.805786132812500000e-01
5.000000000000000000e+00,1.000000000000000000e+00,-9.000000000000000000e+00,9.000000000000000000e+00,1.400000000000000000e+01,7.000000000000000000e+00,5.000000000000000000e+00,1.000000000000000000e+00,-4.086914062500000000e-01,-3.491210937500000000e-02,8.675537109375000000e-01,2.811889648437500000e-01
2.000000000000000000e+00,0.000000000000000000e+00,-2.400000000000000000e+01,-1.000000000000000000e+01,1.100000000000000000e+01,0.000000000000000000e+00,-1.000000000000000000e+01,-2.000000000000000000e+00,-4.086914062500000000e-01,-3.491210937500000000e-02,8.675537109375000000e-01,2.811889648437500000e-01
-5.000000000000000000e+00,-1.600000000000000000e+01,-2.000000000000000000e+01,-5.000000000000000000e+00,-4.000000000000000000e+00,6.000000000000000000e+00,1.900000000000000000e+01,1.000000000000000000e+00,-4.086914062500000000e-01,-3.491210937500000000e-02,8.675537109375000000e-01,2.811889648437500000e-01
-1.000000000000000000e+00,6.000000000000000000e+00,1.100000000000000000e+01,-1.000000000000000000e+00,-1.500000000000000000e+01,-2.000000000000000000e+00,1.900000000000000000e+01,0.000000000000000000e+00,-4.086914062500000000e-01,-3.491210937500000000e-02,8.675537109375000000e-01,2.811889648437500000e-01
-3.000000000000000000e+00,-3.000000000000000000e+00,-1.000000000000000000e+01,-2.000000000000000000e+00,-2.500000000000000000e+01,-4.000000000000000000e+00,-2.000000000000000000e+00,-4.000000000000000000e+00,-4.079589843750000000e-01,-3.594970703125000000e-02,8.677368164062500000e-01,2.815551757812500000e-01
6.000000000000000000e+00,6.000000000000000000e+00,2.400000000000000000e+01,6.000000000000000000e+00,1.400000000000000000e+01,-6.000000000000000000e+00,-3.300000000000000000e+01,-4.000000000000000000e+00,-4.079589843750000000e-01,-3.594970703125000000e-02,8.677368164062500000e-01,2.815551757812500000e-01
-2.000000000000000000e+00,-6.000000000000000000e+00,-1.300000000000000000e+01,1.800000000000000000e+01,1.300000000000000000e+01,2.000000000000000000e+00,7.000000000000000000e+00,-1.000000000000000000e+00,-4.072875976562500000e-01,-3.649902343750000000e-02,8.679199218750000000e-01,2.818603515625000000e-01
3.000000000000000000e+00,2.000000000000000000e+00,1.000000000000000000e+01,0.000000000000000000e+00,8.000000000000000000e+00,-1.200000000000000000e+01,-1.100000000000000000e+01,-2.000000000000000000e+00,-4.072875976562500000e-01,-3.649902343750000000e-02,8.679199218750000000e-01,2.818603515625000000e-01
1.000000000000000000e+00,-1.000000000000000000e+00,-1.400000000000000000e+01,-7.000000000000000000e+00,-5.000000000000000000e+00,1.500000000000000000e+01,6.000000000000000000e+00,2.000000000000000000e+00,-4.072875976562500000e-01,-3.649902343750000000e-02,8.679199218750000000e-01,2.818603515625000000e-01
-3.000000000000000000e+00,-2.000000000000000000e+00,8.000000000000000000e+00,3.000000000000000000e+00,1.000000000000000000e+00,-1.100000000000000000e+01,-2.200000000000000000e+01,-2.000000000000000000e+00,-4.072875976562500000e-01,-3.649902343750000000e-02,8.679199218750000000e-01,2.818603515625000000e-01
0.000000000000000000e+00,-1.000000000000000000e+00,7.000000000000000000e+00,-9.000000000000000000e+00,-9.000000000000000000e+00,2.000000000000000000e+00,0.000000000000000000e+00,-5.000000000000000000e+00,-4.066772460937500000e-01,-3.692626953125000000e-02,8.681030273437500000e-01,2.821044921875000000e-01
2.000000000000000000e+00,8.000000000000000000e+00,1.800000000000000000e+01,1.000000000000000000e+01,3.000000000000000000e+00,4.000000000000000000e+00,1.000000000000000000e+01,4.000000000000000000e+00,-4.066772460937500000e-01,-3.692626953125000000e-02,8.681030273437500000e-01,2.821044921875000000e-01
-3.000000000000000000e+00,1.000000000000000000e+00,-3.800000000000000000e+01,-3.400000000000000000e+01,-7.000000000000000000e+00,1.000000000000000000e+01,6.000000000000000000e+01,2.000000000000000000e+00,-4.066772460937500000e-01,-3.692626953125000000e-02,8.681030273437500000e-01,2.821044921875000000e-01
-9.000000000000000000e+00,-1.000000000000000000e+00,4.600000000000000000e+01,3.800000000000000000e+01,1.300000000000000000e+01,6.000000000000000000e+00,-3.800000000000000000e+01,-1.000000000000000000e+00,-4.066772460937500000e-01,-3.692626953125000000e-02,8.681030273437500000e-01,2.821044921875000000e-01
5.000000000000000000e+00,-8.000000000000000000e+00,-8.300000000000000000e+01,-3.000000000000000000e+00,2.100000000000000000e+01,3.000000000000000000e+00,3.000000000000000000e+00,-1.000000000000000000e+00,-4.061279296875000000e-01,-3.735351562500000000e-02,8.682861328125000000e-01,2.822265625000000000e-01
-4.000000000000000000e+00,2.000000000000000000e+00,2.200000000000000000e+01,9.000000000000000000e+00,0.000000000000000000e+00,-2.000000000000000000e+00,0.000000000000000000e+00,-1.000000000000000000e+00,-4.061279296875000000e-01,-3.735351562500000000e-02,8.682861328125000000e-01,2.822265625000000000e-01
-2.000000000000000000e+00,-1.000000000000000000e+00,1.000000000000000000e+01,-5.000000000000000000e+00,-1.000000000000000000e+01,-1.700000000000000000e+01,-2.000000000000000000e+01,0.000000000000000000e+00,-4.061279296875000000e-01,-3.735351562500000000e-02,8.682861328125000000e-01,2.822265625000000000e-01
-5.000000000000000000e+00,-5.000000000000000000e+00,-8.000000000000000000e+00,-3.000000000000000000e+00,-3.000000000000000000e+00,1.000000000000000000e+00,3.300000000000000000e+01,3.000000000000000000e+00,-4.061279296875000000e-01,-3.735351562500000000e-02,8.682861328125000000e-01,2.822265625000000000e-01
-3.000000000000000000e+00,4.000000000000000000e+00,1.300000000000000000e+01,-2.200000000000000000e+01,-2.300000000000000000e+01,-1.400000000000000000e+01,-1.200000000000000000e+01,-1.000000000000000000e+00,-4.055786132812500000e-01,-3.790283203125000000e-02,8.685302734375000000e-01,2.822265625000000000e-01
5.000000000000000000e+00,2.000000000000000000e+00,1.300000000000000000e+01,3.500000000000000000e+01,3.200000000000000000e+01,1.200000000000000000e+01,8.000000000000000000e+00,-2.000000000000000000e+00,-4.055786132812500000e-01,-3.790283203125000000e-02,8.685302734375000000e-01,2.822265625000000000e-01
3.000000000000000000e+00,-1.000000000000000000e+01,-2.100000000000000000e+01,8.000000000000000000e+00,4.000000000000000000e+00,-2.000000000000000000e+00,-1.500000000000000000e+01,-2.000000000000000000e+00,-4.055786132812500000e-01,-3.790283203125000000e-02,8.685302734375000000e-01,2.822265625000000000e-01
-1.100000000000000000e+01,-4.000000000000000000e+00,-2.100000000000000000e+01,2.100000000000000000e+01,1.100000000000000000e+01,1.000000000000000000e+00,7.000000000000000000e+00,-1.000000000000000000e+00,-4.055786132812500000e-01,-3.790283203125000000e-02,8.685302734375000000e-01,2.822265625000000000e-01
4.000000000000000000e+00,3.000000000000000000e+00,9.000000000000000000e+00,-5.000000000000000000e+00,-5.000000000000000000e+00,2.000000000000000000e+00,-1.000000000000000000e+01,-3.000000000000000000e+00,-4.049682617187500000e-01,-3.771972656250000000e-02,8.688354492187500000e-01,2.821655273437500000e-01
-1.000000000000000000e+00,2.000000000000000000e+00,-1.200000000000000000e+01,-2.600000000000000000e+01,-1.700000000000000000e+01,-1.200000000000000000e+01,-1.000000000000000000e+01,-4.000000000000000000e+00,-4.049682617187500000e-01,-3.771972656250000000e-02,8.688354492187500000e-01,2.821655273437500000e-01
-2.000000000000000000e+00,4.000000000000000000e+00,2.500000000000000000e+01,-8.000000000000000000e+00,-3.000000000000000000e+00,-8.000000000000000000e+00,-2.800000000000000000e+01,-3.000000000000000000e+00,-4.049682617187500000e-01,-3.771972656250000000e-02,8.688354492187500000e-01,2.821655273437500000e-01
3.000000000000000000e+00,-4.000000000000000000e+00,5.400000000000000000e+01,0.000000000000000000e+00,3.000000000000000000e+00,1.100000000000000000e+01,2.900000000000000000e+01,0.000000000000000000e+00,-4.049682617187500000e-01,-3.771972656250000000e-02,8.688354492187500000e-01,2.821655273437500000e-01
-9.000000000000000000e+00,-1.500000000000000000e+01,-6.000000000000000000e+01,-2.400000000000000000e+01,-3.000000000000000000e+00,7.000000000000000000e+00,4.500000000000000000e+01,2.000000000000000000e+00,-4.044189453125000000e-01,-3.741455078125000000e-02,8.691406250000000000e-01,2.821044921875000000e-01
-5.000000000000000000e+00,-1.300000000000000000e+01,-1.000000000000000000e+00,-1.300000000000000000e+01,-1.100000000000000000e+01,1.000000000000000000e+00,-1.800000000000000000e+01,-2.000000000000000000e+00,-4.044189453125000000e-01,-3.741455078125000000e-02,8.691406250000000000e-01,2.821044921875000000e-01
-1.000000000000000000e+00,0.000000000000000000e+00,3.000000000000000000e+00,1.900000000000000000e+01,8.000000000000000000e+00,-1.000000000000000000e+01,-1.300000000000000000e+01,-4.000000000000000000e+00,-4.044189453125000000e-01,-3.741455078125000000e-02,8.691406250000000000e-01,2.821044921875000000e-01
3.000000000000000000e+00,6.000000000000000000e+00,7.000000000000000000e+00,-1.900000000000000000e+01,-2.000000000000000000e+01,-4.000000000000000000e+00,-3.000000000000000000e+00,0.000000000000000000e+00,-4.044189453125000000e-01,-3.741455078125000000e-02,8.691406250000000000e-01,2.821044921875000000e-01
-3.000000000000000000e+00,7.000000000000000000e+00,3.300000000000000000e+01,9.000000000000000000e+00,-8.000000000000000000e+00,-1.200000000000000000e+01,-1.900000000000000000e+01,-2.000000000000000000e+00,-4.037475585937500000e-01,-3.717041015625000000e-02,8.694458007812500000e-01,2.822265625000000000e-01
4.000000000000000000e+00,0.000000000000000000e+00,-2.600000000000000000e+01,-2.400000000000000000e+01,-7.000000000000000000e+00,9.000000000000000000e+00,2.600000000000000000e+01,4.000000000000000000e+00,-4.037475585937500000e-01,-3.717041015625000000e-02,8.694458007812500000e-01,2.822265625000000000e-01
4.000000000000000000e+00,0.000000000000000000e+00,3.200000000000000000e+01,7.000000000000000000e+00,-6.000000000000000000e+00,9.000000000000000000e+00,1.400000000000000000e+01,3.000000000000000000e+00,-4.037475585937500000e-01,-3.717041015625000000e-02,8.694458007812500000e-01,2.822265625000000000e-01
-6.000000000000000000e+00,5.000000000000000000e+00,-5.000000000000000000e+00,-1.700000000000000000e+01,-1.100000000000000000e+01,-4.000000000000000000e+00,-2.000000000000000000e+00,-3.000000000000000000e+00,-4.037475585937500000e-01,-3.717041015625000000e-02,8.694458007812500000e-01,2.822265625000000000e-01
3.000000000000000000e+00,-2.000000000000000000e+00,-9.000000000000000000e+00,1.700000000000000000e+01,1.500000000000000000e+01,6.000000000000000000e+00,-8.000000000000000000e+00,1.000000000000000000e+00,-4.031982421875000000e-01,-3.680419921875000000e-02,8.696289062500000000e-01,2.825317382812500000e-01
3.000000000000000000e+00,3.000000000000000000e+00,-4.000000000000000000e+00,1.000000000000000000e+01,-1.100000000000000000e+01,-6.000000000000000000e+00,-5.000000000000000000e+00,-3.000000000000000000e+00,-4.031982421875000000e-01,-3.680419921875000000e-02,8.696289062500000000e-01,2.825317382812500000e-01
-1.000000000000000000e+00,-7.000000000000000000e+00,-1.500000000000000000e+01,-1.900000000000000000e+01,-5.000000000000000000e+00,-1.500000000000000000e+01,-3.100000000000000000e+01,-6.000000000000000000e+00,-4.031982421875000000e-01,-3.680419921875000000e-02,8.696289062500000000e-01,2.825317382812500000e-01
-3.000000000000000000e+00,2.000000000000000000e+00,-5.000000000000000000e+00,1.900000000000000000e+01,-3.200000000000000000e+01,-1.500000000000000000e+01,1.600000000000000000e+01,-2.000000000000000000e+00,-4.031982421875000000e-01,-3.680419921875000000e-02,8.696289062500000000e-01,2.825317382812500000e-01
2.000000000000000000e+00,8.000000000000000000e+00,1.800000000000000000e+01,1.200000000000000000e+01,3.600000000000000000e+01,8.000000000000000000e+00,-3.400000000000000000e+01,-5.000000000000000000e+00,-4.027099609375000000e-01,-3.637695312500000000e-02,8.696899414062500000e-01,2.830200195312500000e-01
-1.000000000000000000e+00,-1.400000000000000000e+01,-6.400000000000000000e+01,-2.500000000000000000e+01,1.200000000000000000e+01,1.200000000000000000e+01,-1.000000000000000000e+00,2.000000000000000000e+00,-4.027099609375000000e-01,-3.637695312500000000e-02,8.696899414062500000e-01,2.830200195312500000e-01
-2.000000000000000000e+00,-3.000000000000000000e+00,0.000000000000000000e+00,2.400000000000000000e+01,9.000000000000000000e+00,0.000000000000000000e+00,8.000000000000000000e+00,0.000000000000000000e+00,-4.027099609375000000e-01,-3.637695312500000000e-02,8.696899414062500000e-01,2.830200195312500000e-01
-2.000000000000000000e+00,-3.000000000000000000e+00,-2.700000000000000000e+01,-1.300000000000000000e+01,-6.000000000000000000e+00,-4.000000000000000000e+00,-1.300000000000000000e+01,-3.000000000000000000e+00,-4.027099609375000000e-01,-3.637695312500000000e-02,8.696899414062500000e-01,2.830200195312500000e-01
-3.000000000000000000e+00,0.000000000000000000e+00,3.000000000000000000e+01,-1.200000000000000000e+01,-2.100000000000000000e+01,-2.000000000000000000e+01,-2.300000000000000000e+01,-6.000000000000000000e+00,-4.023437500000000000e-01,-3.649902343750000000e-02,8.696899414062500000e-01,2.835083007812500000e-01
-2.000000000000000000e+00,2.000000000000000000e+00,2.700000000000000000e+01,9.000000000000000000e+00,4.000000000000000000e+00,0.000000000000000000e+00,1.600000000000000000e+01,1.000000000000000000e+00,-4.023437500000000000e-01,-3.649902343750000000e-02,8.696899414062500000e-01,2.835083007812500000e-01
1.000000000000000000e+00,5.000000000000000000e+00,5.000000000000000000e+00,4.000000000000000000e+00,-3.000000000000000000e+00,7.000000000000000000e+00,-2.000000000000000000e+00,-1.000000000000000000e+00,-4.023437500000000000e-01,-3.649902343750000000e-02,8.696899414062500000e-01,2.835083007812500000e-01
2.000000000000000000e+00,0.000000000000000000e+00,-7.000000000000000000e+00,-1.400000000000000000e+01,1.000000000000000000e+01,-1.200000000000000000e+01,0.000000000000000000e+00,-1.000000000000000000e+00,-4.023437500000000000e-01,-3.649902343750000000e-02,8.696899414062500000e-01,2.835083007812500000e-01
-5.000000000000000000e+00,-1.000000000000000000e+01,1.500000000000000000e+01,-2.000000000000000000e+00,-1.500000000000000000e+01,1.200000000000000000e+01,3.200000000000000000e+01,4.000000000000000000e+00,-4.019165039062500000e-01,-3.637695312500000000e-02,8.697509765625000000e-01,2.839965820312500000e-01
4.000000000000000000e+00,1.000000000000000000e+00,7.000000000000000000e+00,1.400000000000000000e+01,8.000000000000000000e+00,2.300000000000000000e+01,1.200000000000000000e+01,4.000000000000000000e+00,-4.019165039062500000e-01,-3.637695312500000000e-02,8.697509765625000000e-01,2.839965820312500000e-01
-1.200000000000000000e+01,-3.000000000000000000e+00,1.900000000000000000e+01,1.400000000000000000e+01,1.100000000000000000e+01,1.000000000000000000e+00,1.800000000000000000e+01,-2.000000000000000000e+00,-4.019165039062500000e-01,-3.637695312500000000e-02,8.697509765625000000e-01,2.839965820312500000e-01
4.000000000000000000e+00,-1.300000000000000000e+01,-4.000000000000000000e+01,-1.800000000000000000e+01,5.000000000000000000e+00,-1.000000000000000000e+00,-2.500000000000000000e+01,2.000000000000000000e+00,-4.019165039062500000e-01,-3.637695312500000000e-02,8.697509765625000000e-01,2.839965820312500000e-01
0.000000000000000000e+00,0.000000000000000000e+00,-2.000000000000000000e+01,-7.000000000000000000e+00,-6.000000000000000000e+00,-4.000000000000000000e+00,1.000000000000000000e+01,0.000000000000000000e+00,-4.019165039062500000e-01,-3.601074218750000000e-02,8.695678710937500000e-01,2.844238281250000000e-01
-1.000000000000000000e+00,5.000000000000000000e+00,4.000000000000000000e+00,-4.000000000000000000e+00,-6.000000000000000000e+00,-8.000000000000000000e+00,-8.000000000000000000e+00,-2.000000000000000000e+00,-4.019165039062500000e-01,-3.601074218750000000e-02,8.695678710937500000e-01,2.844238281250000000e-01
1.000000000000000000e+00,3.000000000000000000e+00,7.000000000000000000e+00,-7.000000000000000000e+00,-7.000000000000000000e+00,-1.000000000000000000e+01,-7.000000000000000000e+00,-4.000000000000000000e+00,-4.019165039062500000e-01,-3.601074218750000000e-02,8.695678710937500000e-01,2.844238281250000000e-01
-1.000000000000000000e+00,2.000000000000000000e+00,1.200000000000000000e+01,2.000000000000000000e+01,8.000000000000000000e+00,5.000000000000000000e+00,1.500000000000000000e+01,4.000000000000000000e+00,-4.019165039062500000e-01,-3.601074218750000000e-02,8.695678710937500000e-01,2.844238281250000000e-01
-6.000000000000000000e+00,-3.000000000000000000e+00,2.900000000000000000e+01,-7.000000000000000000e+00,-1.900000000000000000e+01,-1.400000000000000000e+01,-5.300000000000000000e+01,-8.000000000000000000e+00,-4.021606445312500000e-01,-3.503417968750000000e-02,8.692626953125000000e-01,2.851562500000000000e-01
3.000000000000000000e+00,-7.000000000000000000e+00,-5.900000000000000000e+01,1.100000000000000000e+01,1.700000000000000000e+01,-1.000000000000000000e+00,1.600000000000000000e+01,4.000000000000000000e+00,-4.021606445312500000e-01,-3.503417968750000000e-02,8.692626953125000000e-01,2.851562500000000000e-01
6.000000000000000000e+00,4.000000000000000000e+00,-1.000000000000000000e+00,1.600000000000000000e+01,-2.000000000000000000e+00,1.000000000000000000e+01,8.000000000000000000e+00,-2.000000000000000000e+00,-4.021606445312500000e-01,-3.503417968750000000e-02,8.692626953125000000e-01,2.851562500000000000e-01
0.000000000000000000e+00,-2.000000000000000000e+00,-1.000000000000000000e+00,-1.300000000000000000e+01,9.000000000000000000e+00,6.000000000000000000e+00,-6.000000000000000000e+00,0.000000000000000000e+00,-4.021606445312500000e-01,-3.503417968750000000e-02,8.692626953125000000e-01,2.851562500000000000e-01
-4.000000000000000000e+00,-2.000000000000000000e+00,-1.100000000000000000e+01,1.000000000000000000e+01,-2.000000000000000000e+00,-8.000000000000000000e+00,2.000000000000000000e+00,0.000000000000000000e+00,-4.026489257812500000e-01,-3.375244140625000000e-02,8.688964843750000000e-01,2.857666015625000000e-01
-6.000000000000000000e+00,3.000000000000000000e+00,2.000000000000000000e+01,-4.300000000000000000e+01,-2.800000000000000000e+01,-2.000000000000000000e+00,9.000000000000000000e+00,-1.000000000000000000e+00,-4.026489257812500000e-01,-3.375244140625000000e-02,8.688964843750000000e-01,2.857666015625000000e-01
1.000000000000000000e+00,-1.000000000000000000e+00,-4.000000000000000000e+00,4.000000000000000000e+00,-7.000000000000000000e+00,-8.000000000000000000e+00,-1.700000000000000000e+01,-2.000000000000000000e+00,-4.026489257812500000e-01,-3.375244140625000000e-02,8.688964843750000000e-01,2.857666015625000000e-01
-1.000000000000000000e+00,1.000000000000000000e+00,-6.000000000000000000e+00,1.000000000000000000e+00,1.600000000000000000e+01,6.000000000000000000e+00,6.000000000000000000e+00,-1.000000000000000000e+00,-4.026489257812500000e-01,-3.375244140625000000e-02,8.688964843750000000e-01,2.857666015625000000e-01
3.000000000000000000e+00,2.100000000000000000e+01,6.500000000000000000e+01,2.200000000000000000e+01,5.000000000000000000e+00,-1.200000000000000000e+01,1.200000000000000000e+01,0.000000000000000000e+00,-4.031372070312500000e-01,-3.314208984375000000e-02,8.685302734375000000e-01,2.862548828125000000e-01
3.000000000000000000e+00,-1.800000000000000000e+01,-4.100000000000000000e+01,-1.300000000000000000e+01,1.300000000000000000e+01,3.300000000000000000e+01,-4.000000000000000000e+00,-1.000000000000000000e+00,-4.031372070312500000e-01,-3.314208984375000000e-02,8.685302734375000000e-01,2.862548828125000000e-01
-6.000000000000000000e+00,-1.400000000000000000e+01,-3.000000000000000000e+00,-3.000000000000000000e+00,-3.000000000000000000e+00,-8.000000000000000000e+00,4.000000000000000000e+00,0.000000000000000000e+00,-4.031372070312500000e-01,-3.314208984375000000e-02,8.685302734375000000e-01,2.862548828125000000e-01
-5.000000000000000000e+00,-1.600000000000000000e+01,-4.500000000000000000e+01,-3.300000000000000000e+01,-2.800000000000000000e+01,-8.000000000000000000e+00,-8.000000000000000000e+00,-3.000000000000000000e+00,-4.031372070312500000e-01,-3.314208984375000000e-02,8.685302734375000000e-01,2.862548828125000000e-01
-2.000000000000000000e+00,-2.000000000000000000e+00,-1.900000000000000000e+01,9.000000000000000000e+00,-5.000000000000000000e+00,2.000000000000000000e+00,2.100000000000000000e+01,1.000000000000000000e+00,-4.037475585937500000e-01,-3.338623046875000000e-02,8.681640625000000000e-01,2.865600585937500000e-01
-4.000000000000000000e+00,1.300000000000000000e+01,4.000000000000000000e+01,1.100000000000000000e+01,4.000000000000000000e+00,-3.000000000000000000e+01,-5.000000000000000000e+00,-6.000000000000000000e+00,-4.037475585937500000e-01,-3.338623046875000000e-02,8.681640625000000000e-01,2.865600585937500000e-01
0.000000000000000000e+00,2.000000000000000000e+00,2.100000000000000000e+01,0.000000000000000000e+00,-1.000000000000000000e+00,-3.000000000000000000e+00,-5.300000000000000000e+01,0.000000000000000000e+00,-4.037475585937500000e-01,-3.338623046875000000e-02,8.681640625000000000e-01,2.865600585937500000e-01
0.000000000000000000e+00,-4.000000000000000000e+00,-3.900000000000000000e+01,-1.400000000000000000e+01,-3.000000000000000000e+00,1.400000000000000000e+01,2.800000000000000000e+01,4.000000000000000000e+00,-4.037475585937500000e-01,-3.338623046875000000e-02,8.681640625000000000e-01,2.865600585937500000e-01
0.000000000000000000e+00,4.000000000000000000e+00,2.200000000000000000e+01,1.900000000000000000e+01,1.900000000000000000e+01,5.000000000000000000e+00,-9.000000000000000000e+00,-4.000000000000000000e+00,-4.041137695312500000e-01,-3.253173828125000000e-02,8.678588867187500000e-01,2.870483398437500000e-01
0.000000000000000000e+00,-2.100000000000000000e+01,-1.000000000000000000e+01,-1.000000000000000000e+00,-7.000000000000000000e+00,-9.000000000000000000e+00,4.000000000000000000e+00,1.000000000000000000e+00,-4.041137695312500000e-01,-3.253173828125000000e-02,8.678588867187500000e-01,2.870483398437500000e-01
5.000000000000000000e+00,2.000000000000000000e+00,-2.100000000000000000e+01,-1.400000000000000000e+01,-2.000000000000000000e+00,-4.000000000000000000e+00,-6.000000000000000000e+00,-1.000000000000000000e+00,-4.041137695312500000e-01,-3.253173828125000000e-02,8.678588867187500000e-01,2.870483398437500000e-01
-6.000000000000000000e+00,2.000000000000000000e+00,3.200000000000000000e+01,1.800000000000000000e+01,-2.000000000000000000e+00,-1.300000000000000000e+01,-1.000000000000000000e+00,-3.000000000000000000e+00,-4.041137695312500000e-01,-3.253173828125000000e-02,8.678588867187500000e-01,2.870483398437500000e-01
1.000000000000000000e+00,0.000000000000000000e+00,-1.500000000000000000e+01,-2.000000000000000000e+00,-9.000000000000000000e+00,1.000000000000000000e+00,5.000000000000000000e+00,1.000000000000000000e+00,-4.048461914062500000e-01,-3.167724609375000000e-02,8.673706054687500000e-01,2.875976562500000000e-01
-8.000000000000000000e+00,-2.000000000000000000e+00,0.000000000000000000e+00,2.600000000000000000e+01,0.000000000000000000e+00,5.000000000000000000e+00,-2.000000000000000000e+01,-6.000000000000000000e+00,-4.048461914062500000e-01,-3.167724609375000000e-02,8.673706054687500000e-01,2.875976562500000000e-01
7.000000000000000000e+00,1.000000000000000000e+01,2.900000000000000000e+01,2.600000000000000000e+01,6.000000000000000000e+00,-1.000000000000000000e+00,9.000000000000000000e+00,3.000000000000000000e+00,-4.048461914062500000e-01,-3.167724609375000000e-02,8.673706054687500000e-01,2.875976562500000000e-01
4.000000000000000000e+00,-6.000000000000000000e+00,-3.700000000000000000e+01,-1.400000000000000000e+01,-7.000000000000000000e+00,1.000000000000000000e+00,-1.000000000000000000e+01,-2.000000000000000000e+00,-4.048461914062500000e-01,-3.167724609375000000e-02,8.673706054687500000e-01,2.875976562500000000e-01
-3.000000000000000000e+00,-1.200000000000000000e+01,-4.000000000000000000e+00,-3.400000000000000000e+01,-7.000000000000000000e+00,1.100000000000000000e+01,1.000000000000000000e+01,1.000000000000000000e+00,-4.054565429687500000e-01,-3.039550781250000000e-02,8.669433593750000000e-01,2.882080078125000000e-01
-5.000000000000000000e+00,2.000000000000000000e+00,3.600000000000000000e+01,1.500000000000000000e+01,8.000000000000000000e+00,-9.000000000000000000e+00,-2.100000000000000000e+01,-4.000000000000000000e+00,-4.054565429687500000e-01,-3.039550781250000000e-02,8.669433593750000000e-01,2.882080078125000000e-01
-5.000000000000000000e+00,-4.000000000000000000e+00,-1.600000000000000000e+01,-1.700000000000000000e+01,3.000000000000000000e+00,4.000000000000000000e+00,1.200000000000000000e+01,-1.000000000000000000e+00,-4.054565429687500000e-01,-3.039550781250000000e-02,8.669433593750000000e-01,2.882080078125000000e-01
7.000000000000000000e+00,1.200000000000000000e+01,1.500000000000000000e+01,4.900000000000000000e+01,5.000000000000000000e+00,-8.000000000000000000e+00,-1.900000000000000000e+01,-6.000000000000000000e+00,-4.054565429687500000e-01,-3.039550781250000000e-02,8.669433593750000000e-01,2.882080078125000000e-01
-7.000000000000000000e+00,-3.000000000000000000e+00,-2.300000000000000000e+01,-1.600000000000000000e+01,-3.000000000000000000e+00,8.000000000000000000e+00,1.800000000000000000e+01,6.000000000000000000e+00,-4.058837890625000000e-01,-2.911376953125000000e-02,8.666381835937500000e-01,2.886352539062500000e-01
-5.000000000000000000e+00,-7.000000000000000000e+00,1.300000000000000000e+01,-3.000000000000000000e+00,6.000000000000000000e+00,-2.000000000000000000e+00,-1.000000000000000000e+00,-3.000000000000000000e+00,-4.058837890625000000e-01,-2.911376953125000000e-02,8.666381835937500000e-01,2.886352539062500000e-01
-1.000000000000000000e+00,-4.000000000000000000e+00,-1.000000000000000000e+00,-1.200000000000000000e+01,-8.000000000000000000e+00,-3.000000000000000000e+00,2.000000000000000000e+01,-1.000000000000000000e+00,-4.058837890625000000e-01,-2.911376953125000000e-02,8.666381835937500000e-01,2.886352539062500000e-01
2.000000000000000000e+00,4.000000000000000000e+00,2.300000000000000000e+01,-4.200000000000000000e+01,-3.000000000000000000e+01,-1.000000000000000000e+01,-1.100000000000000000e+01,1.000000000000000000e+00,-4.058837890625000000e-01,-2.911376953125000000e-02,8.666381835937500000e-01,2.886352539062500000e-01
5.000000000000000000e+00,1.000000000000000000e+00,-1.400000000000000000e+01,1.600000000000000000e+01,3.200000000000000000e+01,2.000000000000000000e+00,-2.500000000000000000e+01,-3.000000000000000000e+00,-4.060668945312500000e-01,-2.838134765625000000e-02,8.664550781250000000e-01,2.890014648437500000e-01
-2.000000000000000000e+00,5.000000000000000000e+00,1.900000000000000000e+01,3.000000000000000000e+00,8.000000000000000000e+00,-8.000000000000000000e+00,-1.000000000000000000e+01,-2.000000000000000000e+00,-4.060668945312500000e-01,-2.838134765625000000e-02,8.664550781250000000e-01,2.890014648437500000e-01
4.000000000000000000e+00,-8.000000000000000000e+00,-3.400000000000000000e+01,3.000000000000000000e+00,-2.000000000000000000e+00,1.600000000000000000e+01,2.500000000000000000e+01,3.000000000000000000e+00,-4.060668945312500000e-01,-2.838134765625000000e-02,8.664550781250000000e-01,2.890014648437500000e-01
-1.000000000000000000e+00,-2.000000000000000000e+00,4.000000000000000000e+00,1.300000000000000000e+01,9.000000000000000000e+00,-3.000000000000000000e+00,1.000000000000000000e+00,-3.000000000000000000e+00,-4.060668945312500000e-01,-2.838134765625000000e-02,8.664550781250000000e-01,2.890014648437500000e-01
4.000000000000000000e+00,-1.000000000000000000e+00,-2.000000000000000000e+01,-3.000000000000000000e+01,-2.700000000000000000e+01,-1.900000000000000000e+01,-9.000000000000000000e+00,0.000000000000000000e+00,-4.060058593750000000e-01,-2.838134765625000000e-02,8.663330078125000000e-01,2.894287109375000000e-01
-4.000000000000000000e+00,7.000000000000000000e+00,3.000000000000000000e+01,-9.000000000000000000e+00,-4.000000000000000000e+00,4.000000000000000000e+00,-7.000000000000000000e+00,-4.000000000000000000e+00,-4.060058593750000000e-01,-2.838134765625000000e-02,8.663330078125000000e-01,2.894287109375000000e-01
-4.000000000000000000e+00,-2.000000000000000000e+00,1.100000000000000000e+01,-6.000000000000000000e+00,0.000000000000000000e+00,-1.400000000000000000e+01,-8.000000000000000000e+00,0.000000000000000000e+00,-4.060058593750000000e-01,-2.838134765625000000e-02,8.663330078125000000e-01,2.894287109375000000e-01
-6.000000000000000000e+00,-1.100000000000000000e+01,-4.100000000000000000e+01,-1.800000000000000000e+01,-1.000000000000000000e+00,1.700000000000000000e+01,7.000000000000000000e+00,-2.000000000000000000e+00,-4.060058593750000000e-01,-2.838134765625000000e-02,8.663330078125000000e-01,2.894287109375000000e-01
2.000000000000000000e+00,0.000000000000000000e+00,2.000000000000000000e+00,-9.000000000000000000e+00,-7.000000000000000000e+00,7.000000000000000000e+00,2.000000000000000000e+00,1.000000000000000000e+00,-4.058837890625000000e-01,-2.868652343750000000e-02,8.662719726562500000e-01,2.897949218750000000e-01
-3.000000000000000000e+00,-4.000000000000000000e+00,-9.000000000000000000e+00,-6.000000000000000000e+00,9.000000000000000000e+00,2.000000000000000000e+00,1.000000000000000000e+00,-1.000000000000000000e+00,-4.058837890625000000e-01,-2.868652343750000000e-02,8.662719726562500000e-01,2.897949218750000000e-01
-1.000000000000000000e+00,0.000000000000000000e+00,1.100000000000000000e+01,2.600000000000000000e+01,1.400000000000000000e+01,-8.000000000000000000e+00,4.000000000000000000e+00,0.000000000000000000e+00,-4.058837890625000000e-01,-2.868652343750000000e-02,8.662719726562500000e-01,2.897949218750000000e-01
6.000000000000000000e+00,8.000000000000000000e+00,3.700000000000000000e+01,8.000000000000000000e+00,6.000000000000000000e+00,-7.000000000000000000e+00,-2.200000000000000000e+01,-3.000000000000000000e+00,-4.058837890625000000e-01,-2.868652343750000000e-02,8.662719726562500000e-01,2.897949218750000000e-01
3.000000000000000000e+00,1.000000000000000000e+00,-1.400000000000000000e+01,-8.000000000000000000e+00,-1.300000000000000000e+01,5.000000000000000000e+00,4.000000000000000000e+00,2.000000000000000000e+00,-4.057006835937500000e-01,-2.868652343750000000e-02,8.661499023437500000e-01,2.903442382812500000e-01
9.000000000000000000e+00,8.000000000000000000e+00,5.000000000000000000e+00,-1.900000000000000000e+01,-1.200000000000000000e+01,-1.000000000000000000e+00,2.800000000000000000e+01,4.000000000000000000e+00,-4.057006835937500000e-01,-2.868652343750000000e-02,8.661499023437500000e-01,2.903442382812500000e-01
-5.000000000000000000e+00,2.000000000000000000e+00,-3.000000000000000000e+00,-6.000000000000000000e+00,5.000000000000000000e+00,6.000000000000000000e+00,-5.000000000000000000e+00,-1.000000000000000000e+00,-4.057006835937500000e-01,-2.868652343750000000e-02,8.661499023437500000e-01,2.903442382812500000e-01
-1.000000000000000000e+00,-1.200000000000000000e+01,-6.000000000000000000e+00,1.400000000000000000e+01,-7.000000000000000000e+00,-5.000000000000000000e+00,-6.000000000000000000e+00,-1.000000000000000000e+00,-4.057006835937500000e-01,-2.868652343750000000e-02,8.661499023437500000e-01,2.903442382812500000e-01
-4.000000000000000000e+00,2.000000000000000000e+00,3.000000000000000000e+01,4.500000000000000000e+01,1.400000000000000000e+01,1.000000000000000000e+00,-3.000000000000000000e+00,-3.000000000000000000e+00,-4.057006835937500000e-01,-2.838134765625000000e-02,8.659667968750000000e-01,2.910766601562500000e-01
0.000000000000000000e+00,-1.000000000000000000e+00,-2.000000000000000000e+01,-3.300000000000000000e+01,-2.100000000000000000e+01,-1.700000000000000000e+01,-7.000000000000000000e+00,-2.000000000000000000e+00,-4.057006835937500000e-01,-2.838134765625000000e-02,8.659667968750000000e-01,2.910766601562500000e-01
-1.000000000000000000e+00,1.000000000000000000e+00,-6.000000000000000000e+00,-4.000000000000000000e+00,-1.500000000000000000e+01,1.000000000000000000e+00,-1.700000000000000000e+01,0.000000000000000000e+00,-4.057006835937500000e-01,-2.838134765625000000e-02,8.659667968750000000e-01,2.910766601562500000e-01
1.000000000000000000e+00,7.000000000000000000e+00,3.300000000000000000e+01,-4.000000000000000000e+00,1.000000000000000000e+00,8.000000000000000000e+00,1.200000000000000000e+01,0.000000000000000000e+00,-4.057006835937500000e-01,-2.838134765625000000e-02,8.659667968750000000e-01,2.910766601562500000e-01
4.000000000000000000e+00,-1.000000000000000000e+00,6.000000000000000000e+00,-6.000000000000000000e+00,4.000000000000000000e+00,-3.000000000000000000e+00,3.000000000000000000e+00,0.000000000000000000e+00,-4.058227539062500000e-01,-2.801513671875000000e-02,8.657836914062500000e-01,2.914428710937500000e-01
2.000000000000000000e+00,-2.000000000000000000e+00,-2.000000000000000000e+00,4.200000000000000000e+01,2.200000000000000000e+01,7.000000000000000000e+00,1.100000000000000000e+01,4.000000000000000000e+00,-4.058227539062500000e-01,-2.801513671875000000e-02,8.657836914062500000e-01,2.914428710937500000e-01
-8.000000000000000000e+00,0.000000000000000000e+00,6.000000000000000000e+00,-1.000000000000000000e+01,-6.000000000000000000e+00,9.000000000000000000e+00,2.400000000000000000e+01,-3.000000000000000000e+00,-4.058227539062500000e-01,-2.801513671875000000e-02,8.657836914062500000e-01,2.914428710937500000e-01
0.000000000000000000e+00,2.000000000000000000e+00,1.300000000000000000e+01,7.000000000000000000e+00,1.100000000000000000e+01,-1.000000000000000000e+00,-1.900000000000000000e+01,3.000000000000000000e+00,-4.058227539062500000e-01,-2.801513671875000000e-02,8.657836914062500000e-01,2.914428710937500000e-01
-1.000000000000000000e+01,-5.000000000000000000e+00,6.000000000000000000e+00,-1.400000000000000000e+01,-2.600000000000000000e+01,-7.000000000000000000e+00,-1.000000000000000000e+00,-5.000000000000000000e+00,-4.057617187500000000e-01,-2.783203125000000000e-02,8.656616210937500000e-01,2.918090820312500000e-01
-7.000000000000000000e+00,0.000000000000000000e+00,-1.500000000000000000e+01,-1.000000000000000000e+01,-4.000000000000000000e+00,-9.000000000000000000e+00,-8.000000000000000000e+00,-2.000000000000000000e+00,-4.057617187500000000e-01,-2.783203125000000000e-02,8.656616210937500000e-01,2.918090820312500000e-01
6.000000000000000000e+00,-2.000000000000000000e+00,-2.200000000000000000e+01,3.400000000000000000e+01,3.000000000000000000e+00,6.000000000000000000e+00,-3.000000000000000000e+00,-1.000000000000000000e+00,-4.057617187500000000e-01,-2.783203125000000000e-02,8.656616210937500000e-01,2.918090820312500000e-01
1.100000000000000000e+01,7.000000000000000000e+00,3.700000000000000000e+01,-8.000000000000000000e+00,-4.000000000000000000e+00,-1.300000000000000000e+01,1.500000000000000000e+01,0.000000000000000000e+00,-4.057617187500000000e-01,-2.783203125000000000e-02,8.656616210937500000e-01,2.918090820312500000e-01
7.000000000000000000e+00,2.000000000000000000e+00,-2.000000000000000000e+01,2.300000000000000000e+01,9.000000000000000000e+00,2.000000000000000000e+01,2.600000000000000000e+01,3.000000000000000000e+00,-4.059448242187500000e-01,-2.752685546875000000e-02,8.655395507812500000e-01,2.919921875000000000e-01
0.000000000000000000e+00,-2.000000000000000000e+00,-2.200000000000000000e+01,-8.000000000000000000e+00,-6.000000000000000000e+00,1.000000000000000000e+00,2.000000000000000000e+01,2.000000000000000000e+00,-4.059448242187500000e-01,-2.752685546875000000e-02,8.655395507812500000e-01,2.919921875000000000e-01
-1.200000000000000000e+01,-1.400000000000000000e+01,-1.300000000000000000e+01,-1.800000000000000000e+01,-4.000000000000000000e+00,-1.000000000000000000e+01,-5.500000000000000000e+01,-1.000000000000000000e+01,-4.059448242187500000e-01,-2.752685546875000000e-02,8.655395507812500000e-01,2.919921875000000000e-01
-9.000000000000000000e+00,6.000000000000000000e+00,4.100000000000000000e+01,2.100000000000000000e+01,-1.000000000000000000e+00,3.000000000000000000e+00,3.000000000000000000e+01,0.000000000000000000e+00,-4.059448242187500000e-01,-2.752685546875000000e-02,8.655395507812500000e-01,2.919921875000000000e-01
-4.000000000000000000e+00,-7.000000000000000000e+00,-3.200000000000000000e+01,-2.000000000000000000e+01,-1.000000000000000000e+00,-1.600000000000000000e+01,8.000000000000000000e+00,-2.000000000000000000e+00,-4.063110351562500000e-01,-2.734375000000000000e-02,8.652954101562500000e-01,2.921142578125000000e-01
8.000000000000000000e+00,-1.000000000000000000e+00,-6.000000000000000000e+00,1.200000000000000000e+01,-5.000000000000000000e+00,1.900000000000000000e+01,1.300000000000000000e+01,0.000000000000000000e+00,-4.063110351562500000e-01,-2.734375000000000000e-02,8.652954101562500000e-01,2.921142578125000000e-01
-6.000000000000000000e+00,5.000000000000000000e+00,-2.000000000000000000e+00,-4.200000000000000000e+01,-1.200000000000000000e+01,-5.000000000000000000e+00,-1.000000000000000000e+00,3.000000000000000000e+00,-4.063110351562500000e-01,-2.734375000000000000e-02,8.652954101562500000e-01,2.921142578125000000e-01
2.000000000000000000e+00,-3.000000000000000000e+00,2.500000000000000000e+01,3.500000000000000000e+01,2.600000000000000000e+01,8.000000000000000000e+00,2.000000000000000000e+00,-1.000000000000000000e+00,-4.063110351562500000e-01,-2.734375000000000000e-02,8.652954101562500000e-01,2.921142578125000000e-01
-4.000000000000000000e+00,-8.000000000000000000e+00,-8.400000000000000000e+01,-3.300000000000000000e+01,-5.000000000000000000e+00,-1.400000000000000000e+01,-1.400000000000000000e+01,-2.000000000000000000e+00,-4.065551757812500000e-01,-2.679443359375000000e-02,8.651733398437500000e-01,2.922973632812500000e-01
0.000000000000000000e+00,1.000000000000000000e+01,2.900000000000000000e+01,3.300000000000000000e+01,-1.100000000000000000e+01,-7.000000000000000000e+00,-2.000000000000000000e+00,-2.000000000000000000e+00,-4.065551757812500000e-01,-2.679443359375000000e-02,8.651733398437500000e-01,2.922973632812500000e-01
3.000000000000000000e+00,6.000000000000000000e+00,3.000000000000000000e+00,-2.400000000000000000e+01,-8.000000000000000000e+00,-3.000000000000000000e+00,9.000000000000000000e+00,-4.000000000000000000e+00,-4.065551757812500000e-01,-2.679443359375000000e-02,8.651733398437500000e-01,2.922973632812500000e-01
-4.000000000000000000e+00,-4.000000000000000000e+00,-3.000000000000000000e+00,-3.100000000000000000e+01,0.000000000000000000e+00,7.000000000000000000e+00,6.000000000000000000e+00,1.000000000000000000e+00,-4.065551757812500000e-01,-2.679443359375000000e-02,8.651733398437500000e-01,2.922973632812500000e-01
-4.000000000000000000e+00,0.000000000000000000e+00,1.900000000000000000e+01,6.500000000000000000e+01,-7.000000000000000000e+00,-4.000000000000000000e+00,0.000000000000000000e+00,-1.000000000000000000e+00,-4.068603515625000000e-01,-2.618408203125000000e-02,8.649902343750000000e-01,2.924194335937500000e-01
-3.000000000000000000e+00,-2.000000000000000000e+00,-1.200000000000000000e+01,-3.400000000000000000e+01,9.000000000000000000e+00,-2.000000000000000000e+00,-1.900000000000000000e+01,-2.000000000000000000e+00,-4.068603515625000000e-01,-2.618408203125000000e-02,8.649902343750000000e-01,2.924194335937500000e-01
3.000000000000000000e+00,-1.000000000000000000e+00,1.400000000000000000e+01,2.000000000000000000e+00,3.000000000000000000e+00,-1.000000000000000000e+00,-9.000000000000000000e+00,-3.000000000000000000e+00,-4.068603515625000000e-01,-2.618408203125000000e-02,8.649902343750000000e-01,2.924194335937500000e-01
-1.000000000000000000e+00,0.000000000000000000e+00,-2.200000000000000000e+01,-8.000000000000000000e+00,-1.000000000000000000e+00,-2.000000000000000000e+00,8.000000000000000000e+00,0.000000000000000000e+00,-4.068603515625000000e-01,-2.618408203125000000e-02,8.649902343750000000e-01,2.924194335937500000e-01
1.000000000000000000e+00,-1.000000000000000000e+00,7.000000000000000000e+00,-1.700000000000000000e+01,-2.000000000000000000e+00,0.000000000000000000e+00,-4.000000000000000000e+01,-6.000000000000000000e+00,-4.071044921875000000e-01,-2.581787109375000000e-02,8.649291992187500000e-01,2.924194335937500000e-01
-1.400000000000000000e+01,-1.000000000000000000e+00,-3.000000000000000000e+00,5.000000000000000000e+00,-1.400000000000000000e+01,-1.800000000000000000e+01,-8.000000000000000000e+00,-7.000000000000000000e+00,-4.071044921875000000e-01,-2.581787109375000000e-02,8.649291992187500000e-01,2.924194335937500000e-01
4.000000000000000000e+00,-1.000000000000000000e+00,2.100000000000000000e+01,9.000000000000000000e+00,1.900000000000000000e+01,1.000000000000000000e+00,1.000000000000000000e+00,6.000000000000000000e+00,-4.071044921875000000e-01,-2.581787109375000000e-02,8.649291992187500000e-01,2.924194335937500000e-01
5.000000000000000000e+00,1.000000000000000000e+00,-8.000000000000000000e+00,-1.300000000000000000e+01,-1.200000000000000000e+01,2.600000000000000000e+01,2.300000000000000000e+01,4.000000000000000000e+00,-4.071044921875000000e-01,-2.581787109375000000e-02,8.649291992187500000e-01,2.924194335937500000e-01
-3.000000000000000000e+00,-1.200000000000000000e+01,-1.000000000000000000e+00,-2.000000000000000000e+00,0.000000000000000000e+00,-1.200000000000000000e+01,-3.000000000000000000e+00,-1.000000000000000000e+00,-4.073486328125000000e-01,-2.520751953125000000e-02,8.648071289062500000e-01,2.923583984375000000e-01
-7.000000000000000000e+00,-2.000000000000000000e+00,2.000000000000000000e+00,2.300000000000000000e+01,0.000000000000000000e+00,1.000000000000000000e+00,-3.000000000000000000e+00,-4.000000000000000000e+00,-4.073486328125000000e-01,-2.520751953125000000e-02,8.648071289062500000e-01,2.923583984375000000e-01
0.000000000000000000e+00,5.000000000000000000e+00,-2.000000000000000000e+00,4.000000000000000000e+00,-2.000000000000000000e+00,-1.000000000000000000e+01,-9.000000000000000000e+00,0.000000000000000000e+00,-4.073486328125000000e-01,-2.520751953125000000e-02,8.648071289062500000e-01,2.923583984375000000e-01
-5.000000000000000000e+00,-6.000000000000000000e+00,-5.000000000000000000e+00,-1.000000000000000000e+00,-4.000000000000000000e+00,-1.200000000000000000e+01,-1.500000000000000000e+01,-3.000000000000000000e+00,-4.073486328125000000e-01,-2.520751953125000000e-02,8.648071289062500000e-01,2.923583984375000000e-01
-3.000000000000000000e+00,-4.000000000000000000e+00,-2.000000000000000000e+00,-1.400000000000000000e+01,0.000000000000000000e+00,9.000000000000000000e+00,2.000000000000000000e+00,-2.000000000000000000e+00,-4.077758789062500000e-01,-2.490234375000000000e-02,8.646240234375000000e-01,2.924804687500000000e-01
7.000000000000000000e+00,1.000000000000000000e+01,3.400000000000000000e+01,-2.200000000000000000e+01,-1.200000000000000000e+01,-1.200000000000000000e+01,-5.000000000000000000e+00,0.000000000000000000e+00,-4.077758789062500000e-01,-2.490234375000000000e-02,8.646240234375000000e-01,2.924804687500000000e-01
-3.000000000000000000e+00,-5.000000000000000000e+00,-1.000000000000000000e+01,1.000000000000000000e+00,-9.000000000000000000e+00,-6.000000000000000000e+00,1.700000000000000000e+01,2.000000000000000000e+00,-4.077758789062500000e-01,-2.490234375000000000e-02,8.646240234375000000e-01,2.924804687500000000e-01
-3.000000000000000000e+00,0.000000000000000000e+00,-2.200000000000000000e+01,7.000000000000000000e+00,1.000000000000000000e+01,1.000000000000000000e+00,-4.000000000000000000e+00,-3.000000000000000000e+00,-4.077758789062500000e-01,-2.490234375000000000e-02,8.646240234375000000e-01,2.924804687500000000e-01
2.000000000000000000e+00,6.000000000000000000e+00,3.600000000000000000e+01,4.000000000000000000e+00,-1.000000000000000000e+00,4.000000000000000000e+00,1.200000000000000000e+01,2.000000000000000000e+00,-4.080200195312500000e-01,-2.459716796875000000e-02,8.645019531250000000e-01,2.924194335937500000e-01
-6.000000000000000000e+00,-4.000000000000000000e+00,-1.000000000000000000e+01,6.000000000000000000e+00,2.300000000000000000e+01,6.000000000000000000e+00,2.100000000000000000e+01,2.000000000000000000e+00,-4.080200195312500000e-01,-2.459716796875000000e-02,8.645019531250000000e-01,2.924194335937500000e-01
4.000000000000000000e+00,-4.000000000000000000e+00,1.500000000000000000e+01,-5.000000000000000000e+00,-5.000000000000000000e+00,-2.000000000000000000e+00,-1.600000000000000000e+01,-4.000000000000000000e+00,-4.080200195312500000e-01,-2.459716796875000000e-02,8.645019531250000000e-01,2.924194335937500000e-01
4.000000000000000000e+00,-1.000000000000000000e+00,-3.200000000000000000e+01,-4.000000000000000000e+00,2.000000000000000000e+00,1.000000000000000000e+01,1.400000000000000000e+01,2.000000000000000000e+00,-4.080200195312500000e-01,-2.459716796875000000e-02,8.645019531250000000e-01,2.924194335937500000e-01
0.000000000000000000e+00,5.000000000000000000e+00,1.500000000000000000e+01,-1.400000000000000000e+01,-1.200000000000000000e+01,-5.000000000000000000e+00,-6.000000000000000000e+00,0.000000000000000000e+00,-4.083251953125000000e-01,-2.471923828125000000e-02,8.643798828125000000e-01,2.923583984375000000e-01
-1.000000000000000000e+00,-1.100000000000000000e+01,-4.700000000000000000e+01,-3.200000000000000000e+01,-2.500000000000000000e+01,-9.000000000000000000e+00,-1.100000000000000000e+01,-3.000000000000000000e+00,-4.083251953125000000e-01,-2.471923828125000000e-02,8.643798828125000000e-01,2.923583984375000000e-01
-6.000000000000000000e+00,-1.000000000000000000e+00,1.000000000000000000e+01,3.600000000000000000e+01,1.700000000000000000e+01,1.200000000000000000e+01,2.100000000000000000e+01,0.000000000000000000e+00,-4.083251953125000000e-01,-2.471923828125000000e-02,8.643798828125000000e-01,2.923583984375000000e-01
-4.000000000000000000e+00,1.000000000000000000e+00,-2.000000000000000000e+00,-8.000000000000000000e+00,1.000000000000000000e+01,-1.600000000000000000e+01,-2.100000000000000000e+01,-4.000000000000000000e+00,-4.083251953125000000e-01,-2.471923828125000000e-02,8.643798828125000000e-01,2.923583984375000000e-01
4.000000000000000000e+00,-3.000000000000000000e+00,-3.700000000000000000e+01,-1.400000000000000000e+01,-3.000000000000000000e+00,-2.200000000000000000e+01,-3.000000000000000000e+00,3.000000000000000000e+00,-4.085083007812500000e-01,-2.471923828125000000e-02,8.643798828125000000e-01,2.921142578125000000e-01
6.000000000000000000e+00,1.000000000000000000e+00,1.600000000000000000e+01,3.500000000000000000e+01,-2.000000000000000000e+00,3.200000000000000000e+01,1.000000000000000000e+01,5.000000000000000000e+00,-4.085083007812500000e-01,-2.471923828125000000e-02,8.643798828125000000e-01,2.921142578125000000e-01
-2.000000000000000000e+00,0.000000000000000000e+00,1.000000000000000000e+00,-2.100000000000000000e+01,-7.000000000000000000e+00,0.000000000000000000e+00,0.000000000000000000e+00,-1.000000000000000000e+00,-4.085083007812500000e-01,-2.471923828125000000e-02,8.643798828125000000e-01,2.921142578125000000e-01
-1.500000000000000000e+01,1.000000000000000000e+00,1.400000000000000000e+01,7.000000000000000000e+00,-5.000000000000000000e+00,-7.000000000000000000e+00,-1.100000000000000000e+01,-6.000000000000000000e+00,-4.085083007812500000e-01,-2.471923828125000000e-02,8.643798828125000000e-01,2.921142578125000000e-01
2.000000000000000000e+00,4.000000000000000000e+00,1.200000000000000000e+01,-1.100000000000000000e+01,5.000000000000000000e+00,-1.100000000000000000e+01,3.100000000000000000e+01,1.000000000000000000e+00,-4.086303710937500000e-01,-2.465820312500000000e-02,8.643798828125000000e-01,2.919311523437500000e-01
4.000000000000000000e+00,-3.000000000000000000e+00,7.000000000000000000e+00,2.000000000000000000e+01,4.000000000000000000e+00,6.000000000000000000e+00,0.000000000000000000e+00,2.000000000000000000e+00,-4.086303710937500000e-01,-2.465820312500000000e-02,8.643798828125000000e-01,2.919311523437500000e-01
5.000000000000000000e+00,-1.000000000000000000e+00,-3.600000000000000000e+01,1.400000000000000000e+01,-1.000000000000000000e+01,-1.300000000000000000e+01,-2.200000000000000000e+01,-3.000000000000000000e+00,-4.086303710937500000e-01,-2.465820312500000000e-02,8.643798828125000000e-01,2.919311523437500000e-01
-9.000000000000000000e+00,-6.000000000000000000e+00,4.000000000000000000e+00,5.000000000000000000e+00,6.000000000000000000e+00,9.000000000000000000e+00,-1.400000000000000000e+01,-4.000000000000000000e+00,-4.086303710937500000e-01,-2.465820312500000000e-02,8.643798828125000000e-01,2.919311523437500000e-01
-4.000000000000000000e+00,-2.000000000000000000e+00,2.000000000000000000e+00,1.500000000000000000e+01,8.000000000000000000e+00,1.000000000000000000e+01,3.100000000000000000e+01,4.000000000000000000e+00,-4.088745117187500000e-01,-2.447509765625000000e-02,8.643798828125000000e-01,2.915649414062500000e-01
2.000000000000000000e+00,6.000000000000000000e+00,4.000000000000000000e+01,-2.600000000000000000e+01,-1.300000000000000000e+01,-7.000000000000000000e+00,-8.000000000000000000e+00,-3.000000000000000000e+00,-4.088745117187500000e-01,-2.447509765625000000e-02,8.643798828125000000e-01,2.915649414062500000e-01
-2.000000000000000000e+00,-2.000000000000000000e+00,-3.000000000000000000e+00,3.000000000000000000e+00,1.400000000000000000e+01,2.000000000000000000e+01,2.000000000000000000e+01,0.000000000000000000e+00,-4.088745117187500000e-01,-2.447509765625000000e-02,8.643798828125000000e-01,2.915649414062500000e-01
4.000000000000000000e+00,2.000000000000000000e+00,-9.000000000000000000e+00,-1.000000000000000000e+01,-1.000000000000000000e+01,-1.100000000000000000e+01,-7.000000000000000000e+00,-1.000000000000000000e+00,-4.088745117187500000e-01,-2.447509765625000000e-02,8.643798828125000000e-01,2.915649414062500000e-01
-9.000000000000000000e+00,-5.000000000000000000e+00,3.400000000000000000e+01,0.000000000000000000e+00,-3.000000000000000000e+00,1.000000000000000000e+00,-2.400000000000000000e+01,-4.000000000000000000e+00,-4.093627929687500000e-01,-2.429199218750000000e-02,8.643188476562500000e-01,2.911987304687500000e-01
-4.000000000000000000e+00,-3.000000000000000000e+00,-4.800000000000000000e+01,-2.000000000000000000e+01,0.000000000000000000e+00,-2.000000000000000000e+01,-1.900000000000000000e+01,-4.000000000000000000e+00,-4.093627929687500000e-01,-2.429199218750000000e-02,8.643188476562500000e-01,2.911987304687500000e-01
8.000000000000000000e+00,2.000000000000000000e+00,2.000000000000000000e+00,4.000000000000000000e+00,-3.000000000000000000e+00,1.000000000000000000e+01,1.000000000000000000e+01,5.000000000000000000e+00,-4.093627929687500000e-01,-2.429199218750000000e-02,8.643188476562500000e-01,2.911987304687500000e-01
3.000000000000000000e+00,-1.000000000000000000e+00,-9.000000000000000000e+00,5.000000000000000000e+00,-9.000000000000000000e+00,-2.000000000000000000e+00,5.000000000000000000e+00,0.000000000000000000e+00,-4.093627929687500000e-01,-2.429199218750000000e-02,8.643188476562500000e-01,2.911987304687500000e-01
-3.000000000000000000e+00,-1.100000000000000000e+01,-2.000000000000000000e+01,2.000000000000000000e+00,1.400000000000000000e+01,6.000000000000000000e+00,-6.000000000000000000e+00,-1.000000000000000000e+00,-4.097290039062500000e-01,-2.392578125000000000e-02,8.642578125000000000e-01,2.908325195312500000e-01
-3.000000000000000000e+00,6.000000000000000000e+00,2.100000000000000000e+01,9.000000000000000000e+00,8.000000000000000000e+00,-6.000000000000000000e+00,-2.100000000000000000e+01,-2.000000000000000000e+00,-4.097290039062500000e-01,-2.392578125000000000e-02,8.642578125000000000e-01,2.908325195312500000e-01
-8.000000000000000000e+00,-2.000000000000000000e+00,1.600000000000000000e+01,-6.000000000000000000e+00,-6.000000000000000000e+00,-3.000000000000000000e+00,4.000000000000000000e+00,-2.000000000000000000e+00,-4.097290039062500000e-01,-2.392578125000000000e-02,8.642578125000000000e-01,2.908325195312500000e-01
3.000000000000000000e+00,-9.000000000000000000e+00,-4.800000000000000000e+01,2.200000000000000000e+01,6.000000000000000000e+00,3.000000000000000000e+00,-5.000000000000000000e+00,0.000000000000000000e+00,-4.097290039062500000e-01,-2.392578125000000000e-02,8.642578125000000000e-01,2.908325195312500000e-01
1.000000000000000000e+01,-5.000000000000000000e+00,1.000000000000000000e+00,1.200000000000000000e+01,1.000000000000000000e+00,1.000000000000000000e+00,1.300000000000000000e+01,0.000000000000000000e+00,-4.100952148437500000e-01,-2.349853515625000000e-02,8.641357421875000000e-01,2.905883789062500000e-01
2.000000000000000000e+00,-3.000000000000000000e+00,-8.000000000000000000e+00,-8.000000000000000000e+00,-1.000000000000000000e+00,-1.500000000000000000e+01,-7.000000000000000000e+00,-3.000000000000000000e+00,-4.100952148437500000e-01,-2.349853515625000000e-02,8.641357421875000000e-01,2.905883789062500000e-01
-6.000000000000000000e+00,5.000000000000000000e+00,-1.500000000000000000e+01,-2.000000000000000000e+00,8.000000000000000000e+00,6.000000000000000000e+00,6.000000000000000000e+00,-1.000000000000000000e+00,-4.100952148437500000e-01,-2.349853515625000000e-02,8.641357421875000000e-01,2.905883789062500000e-01
-1.000000000000000000e+00,2.000000000000000000e+00,4.700000000000000000e+01,-8.000000000000000000e+00,-1.000000000000000000e+01,1.000000000000000000e+00,-5.000000000000000000e+00,1.000000000000000000e+00,-4.100952148437500000e-01,-2.349853515625000000e-02,8.641357421875000000e-01,2.905883789062500000e-01
-1.000000000000000000e+00,4.000000000000000000e+00,4.000000000000000000e+00,-6.000000000000000000e+00,1.000000000000000000e+00,-1.000000000000000000e+00,1.200000000000000000e+01,0.000000000000000000e+00,-4.103393554687500000e-01,-2.362060546875000000e-02,8.641357421875000000e-01,2.903442382812500000e-01
-2.000000000000000000e+00,-9.000000000000000000e+00,-1.000000000000000000e+01,-2.000000000000000000e+00,-5.000000000000000000e+00,-8.000000000000000000e+00,-2.400000000000000000e+01,-7.000000000000000000e+00,-4.103393554687500000e-01,-2.362060546875000000e-02,8.641357421875000000e-01,2.903442382812500000e-01
1.000000000000000000e+00,2.000000000000000000e+00,2.000000000000000000e+01,-3.000000000000000000e+00,-5.000000000000000000e+00,-3.000000000000000000e+00,1.500000000000000000e+01,1.000000000000000000e+00,-4.103393554687500000e-01,-2.362060546875000000e-02,8.641357421875000000e-01,2.903442382812500000e-01
-1.000000000000000000e+00,-1.200000000000000000e+01,-4.100000000000000000e+01,-1.800000000000000000e+01,-2.000000000000000000e+00,1.100000000000000000e+01,1.600000000000000000e+01,5.000000000000000000e+00,-4.103393554687500000e-01,-2.362060546875000000e-02,8.641357421875000000e-01,2.903442382812500000e-01
1.000000000000000000e+00,6.000000000000000000e+00,8.000000000000000000e+00,1.400000000000000000e+01,-2.000000000000000000e+00,0.000000000000000000e+00,-2.900000000000000000e+01,-5.000000000000000000e+00,-4.106445312500000000e-01,-2.386474609375000000e-02,8.641357421875000000e-01,2.899169921875000000e-01
1.300000000000000000e+01,5.000000000000000000e+00,9.000000000000000000e+00,5.000000000000000000e+00,7.000000000000000000e+00,1.000000000000000000e+00,-2.000000000000000000e+01,-2.000000000000000000e+00,-4.106445312500000000e-01,-2.386474609375000000e-02,8.641357421875000000e-01,2.899169921875000000e-01
-1.400000000000000000e+01,-1.000000000000000000e+00,-4.000000000000000000e+00,-4.000000000000000000e+00,-1.000000000000000000e+01,-8.000000000000000000e+00,-1.200000000000000000e+01,-4.000000000000000000e+00,-4.106445312500000000e-01,-2.386474609375000000e-02,8.641357421875000000e-01,2.899169921875000000e-01
-1.000000000000000000e+00,-4.000000000000000000e+00,-1.000000000000000000e+00,-5.000000000000000000e+00,3.000000000000000000e+00,-6.000000000000000000e+00,5.000000000000000000e+00,-3.000000000000000000e+00,-4.106445312500000000e-01,-2.386474609375000000e-02,8.641357421875000000e-01,2.899169921875000000e-01
-3.000000000000000000e+00,1.000000000000000000e+00,0.000000000000000000e+00,-5.000000000000000000e+00,-4.000000000000000000e+00,-1.000000000000000000e+00,-2.000000000000000000e+00,-4.000000000000000000e+00,-4.109497070312500000e-01,-2.416992187500000000e-02,8.640136718750000000e-01,2.896728515625000000e-01
-7.000000000000000000e+00,3.000000000000000000e+00,-2.100000000000000000e+01,-5.300000000000000000e+01,-1.800000000000000000e+01,1.500000000000000000e+01,3.900000000000000000e+01,6.000000000000000000e+00,-4.109497070312500000e-01,-2.416992187500000000e-02,8.640136718750000000e-01,2.896728515625000000e-01
1.000000000000000000e+00,-2.000000000000000000e+00,4.900000000000000000e+01,7.700000000000000000e+01,1.600000000000000000e+01,-8.000000000000000000e+00,-2.000000000000000000e+00,-3.000000000000000000e+00,-4.109497070312500000e-01,-2.416992187500000000e-02,8.640136718750000000e-01,2.896728515625000000e-01
4.000000000000000000e+00,-7.000000000000000000e+00,-1.100000000000000000e+01,6.000000000000000000e+00,-4.000000000000000000e+00,-9.000000000000000000e+00,-1.800000000000000000e+01,-1.000000000000000000e+00,-4.109497070312500000e-01,-2.416992187500000000e-02,8.640136718750000000e-01,2.896728515625000000e-01
-3.000000000000000000e+00,-1.000000000000000000e+00,1.000000000000000000e+01,-1.000000000000000000e+01,-4.000000000000000000e+00,-2.000000000000000000e+00,-6.000000000000000000e+00,-3.000000000000000000e+00,-4.111938476562500000e-01,-2.416992187500000000e-02,8.639526367187500000e-01,2.896118164062500000e-01
-4.000000000000000000e+00,1.000000000000000000e+00,-3.000000000000000000e+00,0.000000000000000000e+00,3.000000000000000000e+00,1.000000000000000000e+00,-1.000000000000000000e+00,-2.000000000000000000e+00,-4.111938476562500000e-01,-2.416992187500000000e-02,8.639526367187500000e-01,2.896118164062500000e-01
2.000000000000000000e+00,-2.000000000000000000e+00,-1.400000000000000000e+01,-3.200000000000000000e+01,-1.200000000000000000e+01,-3.000000000000000000e+00,7.000000000000000000e+00,-1.000000000000000000e+00,-4.111938476562500000e-01,-2.416992187500000000e-02,8.639526367187500000e-01,2.896118164062500000e-01
-2.000000000000000000e+00,1.000000000000000000e+01,6.000000000000000000e+00,3.000000000000000000e+00,-6.000000000000000000e+00,-4.000000000000000000e+00,-4.000000000000000000e+00,-1.000000000000000000e+00,-4.111938476562500000e-01,-2.416992187500000000e-02,8.639526367187500000e-01,2.896118164062500000e-01
-2.000000000000000000e+00,6.000000000000000000e+00,3.800000000000000000e+01,-8.000000000000000000e+00,-6.000000000000000000e+00,-8.000000000000000000e+00,-3.100000000000000000e+01,-4.000000000000000000e+00,-4.111938476562500000e-01,-2.416992187500000000e-02,8.639526367187500000e-01,2.896118164062500000e-01
-1.000000000000000000e+00,-2.000000000000000000e+01,-3.100000000000000000e+01,-2.000000000000000000e+01,-1.900000000000000000e+01,-3.000000000000000000e+00,2.700000000000000000e+01,3.000000000000000000e+00,-4.111938476562500000e-01,-2.416992187500000000e-02,8.639526367187500000e-01,2.896118164062500000e-01
8.000000000000000000e+00,-2.000000000000000000e+00,-2.900000000000000000e+01,1.100000000000000000e+01,1.500000000000000000e+01,4.000000000000000000e+00,-2.300000000000000000e+01,1.000000000000000000e+00,-4.111938476562500000e-01,-2.416992187500000000e-02,8.639526367187500000e-01,2.896118164062500000e-01
-6.000000000000000000e+00,3.000000000000000000e+00,-9.000000000000000000e+00,-8.000000000000000000e+00,-6.000000000000000000e+00,1.000000000000000000e+00,-1.200000000000000000e+01,-5.000000000000000000e+00,-4.111938476562500000e-01,-2.416992187500000000e-02,8.639526367187500000e-01,2.896118164062500000e-01
-2.000000000000000000e+00,2.000000000000000000e+00,-2.000000000000000000e+00,-7.000000000000000000e+00,-4.000000000000000000e+00,1.000000000000000000e+00,2.000000000000000000e+00,0.000000000000000000e+00,-4.113159179687500000e-01,-2.447509765625000000e-02,8.640747070312500000e-01,2.891235351562500000e-01
-8.000000000000000000e+00,0.000000000000000000e+00,2.700000000000000000e+01,1.200000000000000000e+01,0.000000000000000000e+00,-1.000000000000000000e+01,-2.000000000000000000e+00,-1.000000000000000000e+00,-4.113159179687500000e-01,-2.447509765625000000e-02,8.640747070312500000e-01,2.891235351562500000e-01
1.000000000000000000e+00,-1.000000000000000000e+00,-1.800000000000000000e+01,-2.600000000000000000e+01,-1.200000000000000000e+01,-7.000000000000000000e+00,1.000000000000000000e+00,-1.000000000000000000e+00,-4.113159179687500000e-01,-2.447509765625000000e-02,8.640747070312500000e-01,2.891235351562500000e-01
0.000000000000000000e+00,5.000000000000000000e+00,3.600000000000000000e+01,-3.000000000000000000e+00,-1.000000000000000000e+00,-2.000000000000000000e+01,-9.000000000000000000e+00,-3.000000000000000000e+00,-4.113159179687500000e-01,-2.447509765625000000e-02,8.640747070312500000e-01,2.891235351562500000e-01
-1.000000000000000000e+00,-1.100000000000000000e+01,-3.800000000000000000e+01,4.000000000000000000e+00,1.000000000000000000e+01,2.400000000000000000e+01,1.200000000000000000e+01,-2.000000000000000000e+00,-4.111938476562500000e-01,-2.465820312500000000e-02,8.641357421875000000e-01,2.889404296875000000e-01
-2.000000000000000000e+00,-2.000000000000000000e+00,-5.000000000000000000e+00,6.000000000000000000e+00,9.000000000000000000e+00,-2.000000000000000000e+00,-1.600000000000000000e+01,2.000000000000000000e+00,-4.111938476562500000e-01,-2.465820312500000000e-02,8.641357421875000000e-01,2.889404296875000000e-01
1.000000000000000000e+00,-8.000000000000000000e+00,6.000000000000000000e+00,-1.300000000000000000e+01,-2.000000000000000000e+00,0.000000000000000000e+00,0.000000000000000000e+00,-1.000000000000000000e+00,-4.111938476562500000e-01,-2.465820312500000000e-02,8.641357421875000000e-01,2.889404296875000000e-01
1.000000000000000000e+00,4.000000000000000000e+00,-1.000000000000000000e+00,-1.000000000000000000e+00,-1.000000000000000000e+01,-8.000000000000000000e+00,2.000000000000000000e+00,-2.000000000000000000e+00,-4.111938476562500000e-01,-2.465820312500000000e-02,8.641357421875000000e-01,2.889404296875000000e-01
-4.000000000000000000e+00,1.000000000000000000e+00,-9.000000000000000000e+00,1.000000000000000000e+00,-1.100000000000000000e+01,-2.000000000000000000e+00,-2.700000000000000000e+01,-7.000000000000000000e+00,-4.112548828125000000e-01,-2.453613281250000000e-02,8.641967773437500000e-01,2.888183593750000000e-01
1.000000000000000000e+00,5.000000000000000000e+00,1.200000000000000000e+01,6.000000000000000000e+00,1.400000000000000000e+01,1.300000000000000000e+01,2.900000000000000000e+01,4.000000000000000000e+00,-4.112548828125000000e-01,-2.453613281250000000e-02,8.641967773437500000e-01,2.888183593750000000e-01
5.000000000000000000e+00,-7.000000000000000000e+00,-2.300000000000000000e+01,-3.000000000000000000e+00,-8.000000000000000000e+00,-9.000000000000000000e+00,-2.600000000000000000e+01,-1.000000000000000000e+00,-4.112548828125000000e-01,-2.453613281250000000e-02,8.641967773437500000e-01,2.888183593750000000e-01
-1.400000000000000000e+01,-8.000000000000000000e+00,-3.100000000000000000e+01,-3.300000000000000000e+01,-4.000000000000000000e+00,-2.000000000000000000e+00,6.000000000000000000e+00,-2.000000000000000000e+00,-4.112548828125000000e-01,-2.453613281250000000e-02,8.641967773437500000e-01,2.888183593750000000e-01
-2.000000000000000000e+00,-3.000000000000000000e+00,4.000000000000000000e+00,2.000000000000000000e+01,-3.000000000000000000e+00,-2.000000000000000000e+00,1.200000000000000000e+01,0.000000000000000000e+00,-4.112548828125000000e-01,-2.410888671875000000e-02,8.642578125000000000e-01,2.886962890625000000e-01
0.000000000000000000e+00,-1.000000000000000000e+00,5.000000000000000000e+00,8.000000000000000000e+00,2.500000000000000000e+01,5.000000000000000000e+00,-9.000000000000000000e+00,-2.000000000000000000e+00,-4.112548828125000000e-01,-2.410888671875000000e-02,8.642578125000000000e-01,2.886962890625000000e-01
-6.000000000000000000e+00,6.000000000000000000e+00,-2.100000000000000000e+01,-3.900000000000000000e+01,-2.000000000000000000e+01,-1.100000000000000000e+01,-4.000000000000000000e+00,-3.000000000000000000e+00,-4.112548828125000000e-01,-2.410888671875000000e-02,8.642578125000000000e-01,2.886962890625000000e-01
2.000000000000000000e+00,-3.000000000000000000e+00,1.600000000000000000e+01,4.600000000000000000e+01,1.700000000000000000e+01,9.000000000000000000e+00,1.100000000000000000e+01,1.000000000000000000e+00,-4.112548828125000000e-01,-2.410888671875000000e-02,8.642578125000000000e-01,2.886962890625000000e-01
5.000000000000000000e+00,3.000000000000000000e+00,-5.000000000000000000e+00,-1.300000000000000000e+01,1.200000000000000000e+01,2.000000000000000000e+00,7.000000000000000000e+00,3.000000000000000000e+00,-4.113769531250000000e-01,-2.410888671875000000e-02,8.643188476562500000e-01,2.883300781250000000e-01
6.000000000000000000e+00,-4.000000000000000000e+00,8.000000000000000000e+00,1.200000000000000000e+01,-4.000000000000000000e+00,-6.000000000000000000e+00,-1.100000000000000000e+01,-3.000000000000000000e+00,-4.113769531250000000e-01,-2.410888671875000000e-02,8.643188476562500000e-01,2.883300781250000000e-01
1.000000000000000000e+00,-1.000000000000000000e+00,9.000000000000000000e+00,-1.800000000000000000e+01,2.000000000000000000e+00,7.000000000000000000e+00,1.800000000000000000e+01,0.000000000000000000e+00,-4.113769531250000000e-01,-2.410888671875000000e-02,8.643188476562500000e-01,2.883300781250000000e-01
2.000000000000000000e+00,0.000000000000000000e+00,-2.000000000000000000e+00,-1.000000000000000000e+00,-1.300000000000000000e+01,-1.200000000000000000e+01,-9.000000000000000000e+00,-1.000000000000000000e+00,-4.113769531250000000e-01,-2.410888671875000000e-02,8.643188476562500000e-01,2.883300781250000000e-01
-5.000000000000000000e+00,-1.000000000000000000e+00,2.000000000000000000e+00,-4.000000000000000000e+00,1.000000000000000000e+00,1.100000000000000000e+01,6.000000000000000000e+00,2.000000000000000000e+00,-4.114990234375000000e-01,-2.453613281250000000e-02,8.643188476562500000e-01,2.880249023437500000e-01
0.000000000000000000e+00,3.000000000000000000e+00,2.800000000000000000e+01,0.000000000000000000e+00,-4.000000000000000000e+00,0.000000000000000000e+00,1.000000000000000000e+00,-2.000000000000000000e+00,-4.114990234375000000e-01,-2.453613281250000000e-02,8.643188476562500000e-01,2.880249023437500000e-01
-9.000000000000000000e+00,-8.000000000000000000e+00,-8.600000000000000000e+01,-5.000000000000000000e+00,-3.000000000000000000e+00,-1.600000000000000000e+01,-4.200000000000000000e+01,-1.000000000000000000e+01,-4.114990234375000000e-01,-2.453613281250000000e-02,8.643188476562500000e-01,2.880249023437500000e-01
1.300000000000000000e+01,8.000000000000000000e+00,4.100000000000000000e+01,-4.600000000000000000e+01,-7.000000000000000000e+00,6.000000000000000000e+00,-9.000000000000000000e+00,3.000000000000000000e+00,-4.114990234375000000e-01,-2.453613281250000000e-02,8.643188476562500000e-01,2.880249023437500000e-01
-3.000000000000000000e+00,-8.000000000000000000e+00,-3.700000000000000000e+01,3.500000000000000000e+01,-2.000000000000000000e+00,5.000000000000000000e+00,-3.000000000000000000e+00,-1.000000000000000000e+00,-4.114379882812500000e-01,-2.484130859375000000e-02,8.644409179687500000e-01,2.877807617187500000e-01
-5.000000000000000000e+00,-9.000000000000000000e+00,-2.500000000000000000e+01,-1.200000000000000000e+01,1.000000000000000000e+00,-3.000000000000000000e+00,1.400000000000000000e+01,-1.000000000000000000e+00,-4.114379882812500000e-01,-2.484130859375000000e-02,8.644409179687500000e-01,2.877807617187500000e-01
-2.000000000000000000e+00,0.000000000000000000e+00,3.300000000000000000e+01,1.600000000000000000e+01,1.300000000000000000e+01,7.000000000000000000e+00,-4.000000000000000000e+00,-4.000000000000000000e+00,-4.114379882812500000e-01,-2.484130859375000000e-02,8.644409179687500000e-01,2.877807617187500000e-01
-2.000000000000000000e+00,1.000000000000000000e+00,-9.000000000000000000e+00,7.000000000000000000e+00,1.000000000000000000e+01,-7.000000000000000000e+00,-3.000000000000000000e+00,-1.000000000000000000e+00,-4.114379882812500000e-01,-2.484130859375000000e-02,8.644409179687500000e-01,2.877807617187500000e-01
0.000000000000000000e+00,4.000000000000000000e+00,3.100000000000000000e+01,1.000000000000000000e+00,-4.000000000000000000e+00,-1.200000000000000000e+01,-1.400000000000000000e+01,3.000000000000000000e+00,-4.116821289062500000e-01,-2.484130859375000000e-02,8.643188476562500000e-01,2.877807617187500000e-01
0.000000000000000000e+00,3.000000000000000000e+00,-5.800000000000000000e+01,-8.000000000000000000e+00,-1.200000000000000000e+01,-6.000000000000000000e+00,5.000000000000000000e+00,-2.000000000000000000e+00,-4.116821289062500000e-01,-2.484130859375000000e-02,8.643188476562500000e-01,2.877807617187500000e-01
-2.000000000000000000e+00,-6.000000000000000000e+00,4.000000000000000000e+00,-2.600000000000000000e+01,-3.000000000000000000e+00,1.700000000000000000e+01,1.800000000000000000e+01,3.000000000000000000e+00,-4.116821289062500000e-01,-2.484130859375000000e-02,8.643188476562500000e-01,2.877807617187500000e-01
-1.000000000000000000e+00,6.000000000000000000e+00,8.000000000000000000e+00,4.400000000000000000e+01,2.200000000000000000e+01,1.300000000000000000e+01,-8.000000000000000000e+00,0.000000000000000000e+00,-4.116821289062500000e-01,-2.484130859375000000e-02,8.643188476562500000e-01,2.877807617187500000e-01
1.000000000000000000e+00,-7.000000000000000000e+00,7.000000000000000000e+00,-2.500000000000000000e+01,-1.100000000000000000e+01,-4.000000000000000000e+00,2.000000000000000000e+00,-1.000000000000000000e+00,-4.118652343750000000e-01,-2.484130859375000000e-02,8.642578125000000000e-01,2.877807617187500000e-01
-3.000000000000000000e+00,3.000000000000000000e+00,2.100000000000000000e+01,3.600000000000000000e+01,-8.000000000000000000e+00,-7.000000000000000000e+00,-7.000000000000000000e+00,-1.000000000000000000e+00,-4.118652343750000000e-01,-2.484130859375000000e-02,8.642578125000000000e-01,2.877807617187500000e-01
4.000000000000000000e+00,-1.000000000000000000e+00,1.400000000000000000e+01,3.000000000000000000e+00,1.400000000000000000e+01,-3.000000000000000000e+00,3.000000000000000000e+00,0.000000000000000000e+00,-4.118652343750000000e-01,-2.484130859375000000e-02,8.642578125000000000e-01,2.877807617187500000e-01
1.000000000000000000e+00,-2.000000000000000000e+00,-1.800000000000000000e+01,-2.400000000000000000e+01,-1.200000000000000000e+01,2.000000000000000000e+00,4.000000000000000000e+01,3.000000000000000000e+00,-4.118652343750000000e-01,-2.484130859375000000e-02,8.642578125000000000e-01,2.877807617187500000e-01
-6.000000000000000000e+00,5.000000000000000000e+00,2.900000000000000000e+01,2.200000000000000000e+01,-2.000000000000000000e+00,-7.000000000000000000e+00,-2.600000000000000000e+01,-5.000000000000000000e+00,-4.119873046875000000e-01,-2.484130859375000000e-02,8.641967773437500000e-01,2.877197265625000000e-01
3.000000000000000000e+00,1.000000000000000000e+00,-4.000000000000000000e+01,-3.000000000000000000e+01,-2.200000000000000000e+01,-3.000000000000000000e+00,-1.000000000000000000e+00,-1.000000000000000000e+00,-4.119873046875000000e-01,-2.484130859375000000e-02,8.641967773437500000e-01,2.877197265625000000e-01
