-4.800000000000000000e+01,-1.900000000000000000e+01,-8.000000000000000000e+00,-7.000000000000000000e+00,-3.000000000000000000e+00,-2.000000000000000000e+00,-2.000000000000000000e+00,-2.000000000000000000e+00,3.851318359375000000e-01,1.630249023437500000e-01,-9.082031250000000000e-01,1.770019531250000000e-02
-1.400000000000000000e+01,-6.000000000000000000e+00,1.800000000000000000e+01,8.000000000000000000e+00,2.000000000000000000e+00,-2.000000000000000000e+00,-5.000000000000000000e+00,-2.000000000000000000e+00,3.851318359375000000e-01,1.630249023437500000e-01,-9.082031250000000000e-01,1.770019531250000000e-02
-9.000000000000000000e+00,-9.000000000000000000e+00,-2.100000000000000000e+01,-2.300000000000000000e+01,-1.000000000000000000e+01,0.000000000000000000e+00,5.000000000000000000e+00,-2.000000000000000000e+00,3.851318359375000000e-01,1.625366210937500000e-01,-9.082641601562500000e-01,1.763916015625000000e-02
-3.000000000000000000e+00,-1.300000000000000000e+01,-1.000000000000000000e+01,1.700000000000000000e+01,4.000000000000000000e+00,-1.000000000000000000e+00,3.000000000000000000e+00,0.000000000000000000e+00,3.851318359375000000e-01,1.625366210937500000e-01,-9.082641601562500000e-01,1.763916015625000000e-02
2.000000000000000000e+01,1.100000000000000000e+01,1.500000000000000000e+01,-2.000000000000000000e+00,3.000000000000000000e+00,2.000000000000000000e+00,0.000000000000000000e+00,2.000000000000000000e+00,3.851318359375000000e-01,1.625366210937500000e-01,-9.082641601562500000e-01,1.763916015625000000e-02
5.000000000000000000e+00,5.000000000000000000e+00,1.300000000000000000e+01,9.000000000000000000e+00,5.000000000000000000e+00,1.000000000000000000e+00,-2.000000000000000000e+00,0.000000000000000000e+00,3.851318359375000000e-01,1.625366210937500000e-01,-9.082641601562500000e-01,1.763916015625000000e-02
2.000000000000000000e+00,-9.000000000000000000e+00,7.000000000000000000e+00,2.000000000000000000e+00,2.000000000000000000e+00,0.000000000000000000e+00,-3.000000000000000000e+00,1.000000000000000000e+00,3.850708007812500000e-01,1.619873046875000000e-01,-9.083862304687500000e-01,1.757812500000000000e-02
-3.000000000000000000e+00,1.100000000000000000e+01,2.000000000000000000e+00,-5.000000000000000000e+00,-5.000000000000000000e+00,-1.000000000000000000e+00,-1.000000000000000000e+00,2.000000000000000000e+00,3.850708007812500000e-01,1.619873046875000000e-01,-9.083862304687500000e-01,1.757812500000000000e-02
3.000000000000000000e+00,-1.000000000000000000e+01,1.000000000000000000e+00,5.000000000000000000e+00,-5.000000000000000000e+00,-1.000000000000000000e+00,0.000000000000000000e+00,-2.000000000000000000e+00,3.850708007812500000e-01,1.619873046875000000e-01,-9.083862304687500000e-01,1.757812500000000000e-02
-1.000000000000000000e+01,-1.000000000000000000e+01,5.000000000000000000e+00,-1.100000000000000000e+01,-5.000000000000000000e+00,-4.000000000000000000e+00,-5.000000000000000000e+00,-3.000000000000000000e+00,3.850708007812500000e-01,1.619873046875000000e-01,-9.083862304687500000e-01,1.757812500000000000e-02
1.000000000000000000e+01,1.000000000000000000e+01,-2.600000000000000000e+01,1.000000000000000000e+00,-4.000000000000000000e+00,1.000000000000000000e+00,-4.000000000000000000e+00,-2.000000000000000000e+00,3.848266601562500000e-01,1.616210937500000000e-01,-9.085693359375000000e-01,1.776123046875000000e-02
-6.000000000000000000e+00,-1.900000000000000000e+01,0.000000000000000000e+00,-9.000000000000000000e+00,-8.000000000000000000e+00,-6.000000000000000000e+00,-4.000000000000000000e+00,-3.000000000000000000e+00,3.848266601562500000e-01,1.616210937500000000e-01,-9.085693359375000000e-01,1.776123046875000000e-02
7.000000000000000000e+00,1.000000000000000000e+01,1.000000000000000000e+00,3.000000000000000000e+00,2.000000000000000000e+00,2.000000000000000000e+00,0.000000000000000000e+00,-1.000000000000000000e+00,3.848266601562500000e-01,1.616210937500000000e-01,-9.085693359375000000e-01,1.776123046875000000e-02
1.000000000000000000e+00,2.000000000000000000e+00,-1.500000000000000000e+01,4.000000000000000000e+00,8.000000000000000000e+00,3.000000000000000000e+00,1.000000000000000000e+00,2.000000000000000000e+00,3.848266601562500000e-01,1.616210937500000000e-01,-9.085693359375000000e-01,1.776123046875000000e-02
1.000000000000000000e+00,1.000000000000000000e+00,8.000000000000000000e+00,1.200000000000000000e+01,1.000000000000000000e+00,-5.000000000000000000e+00,-7.000000000000000000e+00,0.000000000000000000e+00,3.843383789062500000e-01,1.616210937500000000e-01,-9.087524414062500000e-01,1.794433593750000000e-02
6.000000000000000000e+00,6.000000000000000000e+00,-1.300000000000000000e+01,-1.800000000000000000e+01,0.000000000000000000e+00,-1.000000000000000000e+00,1.000000000000000000e+00,1.000000000000000000e+00,3.843383789062500000e-01,1.616210937500000000e-01,-9.087524414062500000e-01,1.794433593750000000e-02
2.000000000000000000e+00,7.000000000000000000e+00,5.000000000000000000e+00,-7.000000000000000000e+00,-3.000000000000000000e+00,-1.000000000000000000e+00,2.000000000000000000e+00,-1.000000000000000000e+00,3.843383789062500000e-01,1.616210937500000000e-01,-9.087524414062500000e-01,1.794433593750000000e-02
-2.000000000000000000e+00,-5.000000000000000000e+00,-1.100000000000000000e+01,-1.000000000000000000e+01,-8.000000000000000000e+00,-3.000000000000000000e+00,-2.000000000000000000e+00,-1.000000000000000000e+00,3.843383789062500000e-01,1.616210937500000000e-01,-9.087524414062500000e-01,1.794433593750000000e-02
-4.000000000000000000e+00,-1.400000000000000000e+01,6.000000000000000000e+00,2.000000000000000000e+00,-3.000000000000000000e+00,1.000000000000000000e+00,1.000000000000000000e+00,0.000000000000000000e+00,3.836669921875000000e-01,1.618652343750000000e-01,-9.089965820312500000e-01,1.788330078125000000e-02
-2.000000000000000000e+00,0.000000000000000000e+00,7.000000000000000000e+00,9.000000000000000000e+00,3.000000000000000000e+00,3.000000000000000000e+00,-4.000000000000000000e+00,0.000000000000000000e+00,3.836669921875000000e-01,1.618652343750000000e-01,-9.089965820312500000e-01,1.788330078125000000e-02
1.800000000000000000e+01,-6.000000000000000000e+00,-1.000000000000000000e+00,-1.300000000000000000e+01,-1.200000000000000000e+01,-4.000000000000000000e+00,7.000000000000000000e+00,0.000000000000000000e+00,3.836669921875000000e-01,1.618652343750000000e-01,-9.089965820312500000e-01,1.788330078125000000e-02
-1.800000000000000000e+01,-3.000000000000000000e+00,-3.500000000000000000e+01,4.000000000000000000e+00,1.000000000000000000e+01,2.000000000000000000e+00,-1.100000000000000000e+01,-8.000000000000000000e+00,3.836669921875000000e-01,1.618652343750000000e-01,-9.089965820312500000e-01,1.788330078125000000e-02
6.000000000000000000e+00,1.200000000000000000e+01,1.600000000000000000e+01,-9.000000000000000000e+00,-9.000000000000000000e+00,-4.000000000000000000e+00,-4.000000000000000000e+00,-1.000000000000000000e+00,3.832397460937500000e-01,1.618041992187500000e-01,-9.092407226562500000e-01,1.727294921875000000e-02
-2.000000000000000000e+00,1.000000000000000000e+00,1.900000000000000000e+01,1.300000000000000000e+01,5.000000000000000000e+00,-2.000000000000000000e+00,-1.000000000000000000e+00,-1.000000000000000000e+00,3.832397460937500000e-01,1.618041992187500000e-01,-9.092407226562500000e-01,1.727294921875000000e-02
9.000000000000000000e+00,1.600000000000000000e+01,-1.500000000000000000e+01,2.000000000000000000e+00,3.000000000000000000e+00,1.000000000000000000e+00,4.000000000000000000e+00,0.000000000000000000e+00,3.832397460937500000e-01,1.618041992187500000e-01,-9.092407226562500000e-01,1.727294921875000000e-02
4.000000000000000000e+00,-1.600000000000000000e+01,-5.000000000000000000e+00,-8.000000000000000000e+00,-8.000000000000000000e+00,-5.000000000000000000e+00,2.000000000000000000e+00,0.000000000000000000e+00,3.832397460937500000e-01,1.618041992187500000e-01,-9.092407226562500000e-01,1.727294921875000000e-02
-1.500000000000000000e+01,-1.600000000000000000e+01,-5.000000000000000000e+00,-4.000000000000000000e+00,-3.000000000000000000e+00,-1.000000000000000000e+00,-2.000000000000000000e+00,-4.000000000000000000e+00,3.827514648437500000e-01,1.608886718750000000e-01,-9.096069335937500000e-01,1.672363281250000000e-02
-6.000000000000000000e+00,-2.400000000000000000e+01,-7.000000000000000000e+00,-5.000000000000000000e+00,-9.000000000000000000e+00,-1.000000000000000000e+00,-3.000000000000000000e+00,-2.000000000000000000e+00,3.827514648437500000e-01,1.608886718750000000e-01,-9.096069335937500000e-01,1.672363281250000000e-02
-2.000000000000000000e+00,1.200000000000000000e+01,1.700000000000000000e+01,-5.000000000000000000e+00,2.000000000000000000e+00,0.000000000000000000e+00,-7.000000000000000000e+00,-1.000000000000000000e+00,3.827514648437500000e-01,1.608886718750000000e-01,-9.096069335937500000e-01,1.672363281250000000e-02
0.000000000000000000e+00,6.000000000000000000e+00,-7.000000000000000000e+00,-5.000000000000000000e+00,-2.000000000000000000e+00,1.000000000000000000e+00,2.000000000000000000e+00,-1.000000000000000000e+00,3.827514648437500000e-01,1.608886718750000000e-01,-9.096069335937500000e-01,1.672363281250000000e-02
1.000000000000000000e+00,-6.000000000000000000e+00,5.000000000000000000e+00,4.000000000000000000e+00,2.000000000000000000e+00,-1.000000000000000000e+00,0.000000000000000000e+00,-1.000000000000000000e+00,3.822021484375000000e-01,1.613159179687500000e-01,-9.097290039062500000e-01,1.611328125000000000e-02
-1.000000000000000000e+00,-1.000000000000000000e+01,-3.000000000000000000e+00,-5.000000000000000000e+00,-3.000000000000000000e+00,-1.000000000000000000e+00,2.000000000000000000e+00,0.000000000000000000e+00,3.822021484375000000e-01,1.613159179687500000e-01,-9.097290039062500000e-01,1.611328125000000000e-02
-7.000000000000000000e+00,5.000000000000000000e+00,7.000000000000000000e+00,4.000000000000000000e+00,1.000000000000000000e+00,1.000000000000000000e+00,-2.000000000000000000e+00,-1.000000000000000000e+00,3.822021484375000000e-01,1.613159179687500000e-01,-9.097290039062500000e-01,1.611328125000000000e-02
6.000000000000000000e+00,-1.000000000000000000e+00,1.000000000000000000e+00,-6.000000000000000000e+00,-7.000000000000000000e+00,-5.000000000000000000e+00,2.000000000000000000e+00,0.000000000000000000e+00,3.822021484375000000e-01,1.613159179687500000e-01,-9.097290039062500000e-01,1.611328125000000000e-02
1.200000000000000000e+01,1.000000000000000000e+01,-8.000000000000000000e+00,0.000000000000000000e+00,1.000000000000000000e+00,1.000000000000000000e+00,1.000000000000000000e+00,1.000000000000000000e+00,3.817749023437500000e-01,1.613769531250000000e-01,-9.099731445312500000e-01,1.507568359375000000e-02
1.300000000000000000e+01,1.500000000000000000e+01,1.000000000000000000e+00,2.000000000000000000e+00,6.000000000000000000e+00,4.000000000000000000e+00,-2.000000000000000000e+00,-1.000000000000000000e+00,3.817749023437500000e-01,1.613769531250000000e-01,-9.099731445312500000e-01,1.507568359375000000e-02
-3.200000000000000000e+01,-1.500000000000000000e+01,1.700000000000000000e+01,3.000000000000000000e+00,1.000000000000000000e+00,1.000000000000000000e+00,3.000000000000000000e+00,2.000000000000000000e+00,3.817749023437500000e-01,1.613769531250000000e-01,-9.099731445312500000e-01,1.507568359375000000e-02
-4.000000000000000000e+00,-1.100000000000000000e+01,-2.400000000000000000e+01,-4.000000000000000000e+00,-7.000000000000000000e+00,-4.000000000000000000e+00,-5.000000000000000000e+00,-5.000000000000000000e+00,3.817749023437500000e-01,1.613769531250000000e-01,-9.099731445312500000e-01,1.507568359375000000e-02
-1.600000000000000000e+01,2.000000000000000000e+00,0.000000000000000000e+00,0.000000000000000000e+00,1.000000000000000000e+00,-3.000000000000000000e+00,-2.000000000000000000e+00,-3.000000000000000000e+00,3.814086914062500000e-01,1.612548828125000000e-01,-9.100952148437500000e-01,1.428222656250000000e-02
-5.000000000000000000e+00,-2.000000000000000000e+00,0.000000000000000000e+00,1.000000000000000000e+00,0.000000000000000000e+00,0.000000000000000000e+00,2.000000000000000000e+00,-2.000000000000000000e+00,3.814086914062500000e-01,1.612548828125000000e-01,-9.100952148437500000e-01,1.428222656250000000e-02
8.000000000000000000e+00,-1.100000000000000000e+01,-9.000000000000000000e+00,-6.000000000000000000e+00,-1.000000000000000000e+00,-4.000000000000000000e+00,-1.000000000000000000e+01,-2.000000000000000000e+00,3.814086914062500000e-01,1.612548828125000000e-01,-9.100952148437500000e-01,1.428222656250000000e-02
5.000000000000000000e+00,1.000000000000000000e+01,2.700000000000000000e+01,2.000000000000000000e+00,-1.000000000000000000e+00,5.000000000000000000e+00,1.200000000000000000e+01,5.000000000000000000e+00,3.814086914062500000e-01,1.612548828125000000e-01,-9.100952148437500000e-01,1.428222656250000000e-02
1.300000000000000000e+01,1.000000000000000000e+00,-1.100000000000000000e+01,4.000000000000000000e+00,2.000000000000000000e+00,3.000000000000000000e+00,4.000000000000000000e+00,0.000000000000000000e+00,3.811645507812500000e-01,1.620483398437500000e-01,-9.100952148437500000e-01,1.397705078125000000e-02
-1.100000000000000000e+01,-3.000000000000000000e+00,-6.000000000000000000e+00,-8.000000000000000000e+00,-7.000000000000000000e+00,-2.000000000000000000e+00,-2.000000000000000000e+00,-2.000000000000000000e+00,3.811645507812500000e-01,1.620483398437500000e-01,-9.100952148437500000e-01,1.397705078125000000e-02
1.000000000000000000e+00,1.000000000000000000e+00,-1.700000000000000000e+01,2.000000000000000000e+00,6.000000000000000000e+00,1.000000000000000000e+00,1.000000000000000000e+00,0.000000000000000000e+00,3.811645507812500000e-01,1.620483398437500000e-01,-9.100952148437500000e-01,1.397705078125000000e-02
5.000000000000000000e+00,3.000000000000000000e+00,5.000000000000000000e+00,2.000000000000000000e+00,-3.000000000000000000e+00,1.000000000000000000e+00,-4.000000000000000000e+00,-1.000000000000000000e+00,3.811645507812500000e-01,1.620483398437500000e-01,-9.100952148437500000e-01,1.397705078125000000e-02
0.000000000000000000e+00,-1.600000000000000000e+01,5.000000000000000000e+00,-5.000000000000000000e+00,-2.000000000000000000e+00,-4.000000000000000000e+00,-4.000000000000000000e+00,0.000000000000000000e+00,3.810424804687500000e-01,1.627197265625000000e-01,-9.100341796875000000e-01,1.324462890625000000e-02
1.000000000000000000e+00,-3.000000000000000000e+00,1.500000000000000000e+01,-1.000000000000000000e+00,-5.000000000000000000e+00,-3.000000000000000000e+00,0.000000000000000000e+00,0.000000000000000000e+00,3.810424804687500000e-01,1.627197265625000000e-01,-9.100341796875000000e-01,1.324462890625000000e-02
-3.000000000000000000e+00,-1.000000000000000000e+01,-5.700000000000000000e+01,1.000000000000000000e+00,2.000000000000000000e+00,3.000000000000000000e+00,-7.000000000000000000e+00,-2.000000000000000000e+00,3.810424804687500000e-01,1.627197265625000000e-01,-9.100341796875000000e-01,1.324462890625000000e-02
-1.000000000000000000e+00,-2.000000000000000000e+00,1.000000000000000000e+00,5.000000000000000000e+00,3.000000000000000000e+00,2.000000000000000000e+00,2.000000000000000000e+01,1.000000000000000000e+00,3.810424804687500000e-01,1.627197265625000000e-01,-9.100341796875000000e-01,1.324462890625000000e-02
1.000000000000000000e+00,1.200000000000000000e+01,1.600000000000000000e+01,1.100000000000000000e+01,-1.000000000000000000e+00,-5.000000000000000000e+00,-3.000000000000000000e+00,-1.000000000000000000e+00,3.810424804687500000e-01,1.626586914062500000e-01,-9.100952148437500000e-01,1.232910156250000000e-02
-1.100000000000000000e+01,-1.000000000000000000e+00,-1.200000000000000000e+01,-1.100000000000000000e+01,6.000000000000000000e+00,2.000000000000000000e+00,4.000000000000000000e+00,0.000000000000000000e+00,3.810424804687500000e-01,1.626586914062500000e-01,-9.100952148437500000e-01,1.232910156250000000e-02
0.000000000000000000e+00,5.000000000000000000e+00,1.100000000000000000e+01,-5.000000000000000000e+00,-3.000000000000000000e+00,-2.000000000000000000e+00,-4.000000000000000000e+00,1.000000000000000000e+00,3.810424804687500000e-01,1.626586914062500000e-01,-9.100952148437500000e-01,1.232910156250000000e-02
1.600000000000000000e+01,9.000000000000000000e+00,5.000000000000000000e+00,-1.000000000000000000e+00,-2.000000000000000000e+00,0.000000000000000000e+00,-8.000000000000000000e+00,-1.000000000000000000e+00,3.810424804687500000e-01,1.626586914062500000e-01,-9.100952148437500000e-01,1.232910156250000000e-02
-2.900000000000000000e+01,-7.000000000000000000e+00,-1.000000000000000000e+01,-6.000000000000000000e+00,1.000000000000000000e+00,2.000000000000000000e+00,-2.000000000000000000e+00,-1.000000000000000000e+00,3.809204101562500000e-01,1.624755859375000000e-01,-9.101562500000000000e-01,1.147460937500000000e-02
-4.000000000000000000e+00,-8.000000000000000000e+00,6.000000000000000000e+00,0.000000000000000000e+00,-8.000000000000000000e+00,-1.000000000000000000e+00,3.000000000000000000e+00,-4.000000000000000000e+00,3.809204101562500000e-01,1.624755859375000000e-01,-9.101562500000000000e-01,1.147460937500000000e-02
2.000000000000000000e+00,2.000000000000000000e+00,-2.000000000000000000e+00,7.000000000000000000e+00,0.000000000000000000e+00,-2.000000000000000000e+00,0.000000000000000000e+00,-4.000000000000000000e+00,3.809204101562500000e-01,1.624755859375000000e-01,-9.101562500000000000e-01,1.147460937500000000e-02
8.000000000000000000e+00,1.000000000000000000e+00,-1.000000000000000000e+00,3.000000000000000000e+00,5.000000000000000000e+00,1.000000000000000000e+00,-5.000000000000000000e+00,0.000000000000000000e+00,3.809204101562500000e-01,1.624755859375000000e-01,-9.101562500000000000e-01,1.147460937500000000e-02
1.900000000000000000e+01,2.100000000000000000e+01,6.000000000000000000e+00,0.000000000000000000e+00,-3.000000000000000000e+00,0.000000000000000000e+00,5.000000000000000000e+00,3.000000000000000000e+00,3.807373046875000000e-01,1.624755859375000000e-01,-9.102783203125000000e-01,1.055908203125000000e-02
-3.800000000000000000e+01,-2.000000000000000000e+01,-1.100000000000000000e+01,-2.000000000000000000e+00,-3.000000000000000000e+00,-3.000000000000000000e+00,-1.200000000000000000e+01,-6.000000000000000000e+00,3.807373046875000000e-01,1.624755859375000000e-01,-9.102783203125000000e-01,1.055908203125000000e-02
-3.000000000000000000e+00,-1.000000000000000000e+01,2.200000000000000000e+01,-8.000000000000000000e+00,-6.000000000000000000e+00,-4.000000000000000000e+00,5.000000000000000000e+00,-1.000000000000000000e+00,3.807373046875000000e-01,1.624755859375000000e-01,-9.102783203125000000e-01,1.055908203125000000e-02
-7.000000000000000000e+00,-3.000000000000000000e+00,8.000000000000000000e+00,1.000000000000000000e+00,-3.000000000000000000e+00,-3.000000000000000000e+00,1.000000000000000000e+00,0.000000000000000000e+00,3.807373046875000000e-01,1.624755859375000000e-01,-9.102783203125000000e-01,1.055908203125000000e-02
1.200000000000000000e+01,1.000000000000000000e+01,-1.000000000000000000e+00,3.000000000000000000e+00,3.000000000000000000e+00,1.000000000000000000e+00,-3.000000000000000000e+00,-2.000000000000000000e+00,3.804321289062500000e-01,1.620483398437500000e-01,-9.104614257812500000e-01,9.643554687500000000e-03
1.300000000000000000e+01,-6.000000000000000000e+00,-3.000000000000000000e+00,2.000000000000000000e+00,3.000000000000000000e+00,3.000000000000000000e+00,-1.000000000000000000e+00,1.000000000000000000e+00,3.804321289062500000e-01,1.620483398437500000e-01,-9.104614257812500000e-01,9.643554687500000000e-03
7.000000000000000000e+00,1.500000000000000000e+01,-9.000000000000000000e+00,3.000000000000000000e+00,2.000000000000000000e+00,2.000000000000000000e+00,0.000000000000000000e+00,-1.000000000000000000e+00,3.804321289062500000e-01,1.620483398437500000e-01,-9.104614257812500000e-01,9.643554687500000000e-03
0.000000000000000000e+00,4.000000000000000000e+00,3.100000000000000000e+01,4.000000000000000000e+00,-1.000000000000000000e+00,-2.000000000000000000e+00,-5.000000000000000000e+00,1.000000000000000000e+00,3.804321289062500000e-01,1.620483398437500000e-01,-9.104614257812500000e-01,9.643554687500000000e-03
-2.600000000000000000e+01,-2.700000000000000000e+01,-1.400000000000000000e+01,-1.100000000000000000e+01,-8.000000000000000000e+00,-1.000000000000000000e+00,-2.000000000000000000e+00,-7.000000000000000000e+00,3.796386718750000000e-01,1.618041992187500000e-01,-9.108276367187500000e-01,8.789062500000000000e-03
1.000000000000000000e+00,5.000000000000000000e+00,-2.000000000000000000e+01,1.000000000000000000e+00,2.000000000000000000e+00,4.000000000000000000e+00,4.000000000000000000e+00,0.000000000000000000e+00,3.796386718750000000e-01,1.618041992187500000e-01,-9.108276367187500000e-01,8.789062500000000000e-03
-1.000000000000000000e+00,-4.000000000000000000e+00,2.100000000000000000e+01,5.000000000000000000e+00,1.000000000000000000e+00,-4.000000000000000000e+00,-7.000000000000000000e+00,-2.000000000000000000e+00,3.796386718750000000e-01,1.618041992187500000e-01,-9.108276367187500000e-01,8.789062500000000000e-03
1.000000000000000000e+00,9.000000000000000000e+00,-2.000000000000000000e+00,0.000000000000000000e+00,-1.000000000000000000e+00,1.000000000000000000e+00,2.000000000000000000e+00,2.000000000000000000e+00,3.796386718750000000e-01,1.618041992187500000e-01,-9.108276367187500000e-01,8.789062500000000000e-03
1.000000000000000000e+01,1.000000000000000000e+01,1.000000000000000000e+00,-4.000000000000000000e+00,-2.000000000000000000e+00,-3.000000000000000000e+00,-1.000000000000000000e+00,1.000000000000000000e+00,3.783569335937500000e-01,1.618041992187500000e-01,-9.113769531250000000e-01,8.117675781250000000e-03
2.000000000000000000e+00,-7.000000000000000000e+00,-3.000000000000000000e+00,-1.000000000000000000e+00,-1.000000000000000000e+00,-3.000000000000000000e+00,-2.000000000000000000e+00,-2.000000000000000000e+00,3.783569335937500000e-01,1.618041992187500000e-01,-9.113769531250000000e-01,8.117675781250000000e-03
1.300000000000000000e+01,1.100000000000000000e+01,1.400000000000000000e+01,-3.000000000000000000e+00,-9.000000000000000000e+00,-3.000000000000000000e+00,1.000000000000000000e+00,1.000000000000000000e+00,3.783569335937500000e-01,1.618041992187500000e-01,-9.113769531250000000e-01,8.117675781250000000e-03
-2.500000000000000000e+01,-9.000000000000000000e+00,-2.200000000000000000e+01,4.000000000000000000e+00,-6.000000000000000000e+00,-5.000000000000000000e+00,-9.000000000000000000e+00,-6.000000000000000000e+00,3.783569335937500000e-01,1.618041992187500000e-01,-9.113769531250000000e-01,8.117675781250000000e-03
-7.000000000000000000e+00,-2.100000000000000000e+01,-1.700000000000000000e+01,-1.800000000000000000e+01,6.000000000000000000e+00,1.000000000000000000e+00,-2.000000000000000000e+00,-1.000000000000000000e+00,3.768310546875000000e-01,1.625976562500000000e-01,-9.118652343750000000e-01,7.507324218750000000e-03
2.000000000000000000e+00,9.000000000000000000e+00,9.000000000000000000e+00,0.000000000000000000e+00,1.000000000000000000e+00,-2.000000000000000000e+00,0.000000000000000000e+00,1.000000000000000000e+00,3.768310546875000000e-01,1.625976562500000000e-01,-9.118652343750000000e-01,7.507324218750000000e-03
6.000000000000000000e+00,-1.000000000000000000e+01,1.600000000000000000e+01,-1.000000000000000000e+00,-1.000000000000000000e+00,-1.000000000000000000e+00,2.000000000000000000e+00,0.000000000000000000e+00,3.768310546875000000e-01,1.625976562500000000e-01,-9.118652343750000000e-01,7.507324218750000000e-03
6.000000000000000000e+00,-1.000000000000000000e+00,-3.900000000000000000e+01,-1.100000000000000000e+01,-2.000000000000000000e+00,-6.000000000000000000e+00,-9.000000000000000000e+00,-1.000000000000000000e+00,3.768310546875000000e-01,1.625976562500000000e-01,-9.118652343750000000e-01,7.507324218750000000e-03
-9.000000000000000000e+00,-1.000000000000000000e+00,1.700000000000000000e+01,1.300000000000000000e+01,-1.000000000000000000e+00,0.000000000000000000e+00,9.000000000000000000e+00,-3.000000000000000000e+00,3.751831054687500000e-01,1.633911132812500000e-01,-9.124145507812500000e-01,6.225585937500000000e-03
3.000000000000000000e+00,4.000000000000000000e+00,7.000000000000000000e+00,4.000000000000000000e+00,-2.000000000000000000e+00,-2.000000000000000000e+00,0.000000000000000000e+00,-1.000000000000000000e+00,3.751831054687500000e-01,1.633911132812500000e-01,-9.124145507812500000e-01,6.225585937500000000e-03
0.000000000000000000e+00,8.000000000000000000e+00,-8.000000000000000000e+00,-2.000000000000000000e+00,1.000000000000000000e+00,-2.000000000000000000e+00,-5.000000000000000000e+00,-4.000000000000000000e+00,3.751831054687500000e-01,1.633911132812500000e-01,-9.124145507812500000e-01,6.225585937500000000e-03
6.000000000000000000e+00,-2.000000000000000000e+00,-3.000000000000000000e+00,-3.000000000000000000e+00,1.000000000000000000e+00,1.000000000000000000e+00,-2.000000000000000000e+00,0.000000000000000000e+00,3.751831054687500000e-01,1.633911132812500000e-01,-9.124145507812500000e-01,6.225585937500000000e-03
-2.400000000000000000e+01,-2.400000000000000000e+01,-7.000000000000000000e+00,-2.000000000000000000e+00,-1.000000000000000000e+00,-2.000000000000000000e+00,-1.000000000000000000e+00,0.000000000000000000e+00,3.735351562500000000e-01,1.633911132812500000e-01,-9.131469726562500000e-01,4.638671875000000000e-03
2.000000000000000000e+00,2.100000000000000000e+01,-1.000000000000000000e+00,-2.000000000000000000e+00,0.000000000000000000e+00,-1.000000000000000000e+00,-1.000000000000000000e+00,3.000000000000000000e+00,3.735351562500000000e-01,1.633911132812500000e-01,-9.131469726562500000e-01,4.638671875000000000e-03
1.000000000000000000e+00,7.000000000000000000e+00,-4.000000000000000000e+00,-1.000000000000000000e+00,-3.000000000000000000e+00,0.000000000000000000e+00,4.000000000000000000e+00,-1.000000000000000000e+00,3.735351562500000000e-01,1.633911132812500000e-01,-9.131469726562500000e-01,4.638671875000000000e-03
-5.000000000000000000e+00,-1.600000000000000000e+01,-2.000000000000000000e+00,-2.000000000000000000e+00,1.000000000000000000e+00,-1.000000000000000000e+00,-5.000000000000000000e+00,-1.000000000000000000e+00,3.735351562500000000e-01,1.633911132812500000e-01,-9.131469726562500000e-01,4.638671875000000000e-03
-3.000000000000000000e+00,1.300000000000000000e+01,1.000000000000000000e+00,-5.000000000000000000e+00,-5.000000000000000000e+00,-4.000000000000000000e+00,-3.000000000000000000e+00,0.000000000000000000e+00,3.719482421875000000e-01,1.638183593750000000e-01,-9.136962890625000000e-01,3.112792968750000000e-03
3.000000000000000000e+00,-1.500000000000000000e+01,0.000000000000000000e+00,-3.000000000000000000e+00,-1.000000000000000000e+00,-6.000000000000000000e+00,-5.000000000000000000e+00,-5.000000000000000000e+00,3.719482421875000000e-01,1.638183593750000000e-01,-9.136962890625000000e-01,3.112792968750000000e-03
-7.000000000000000000e+00,2.000000000000000000e+00,-2.000000000000000000e+00,-6.000000000000000000e+00,-4.000000000000000000e+00,-1.000000000000000000e+00,4.000000000000000000e+00,-1.000000000000000000e+00,3.719482421875000000e-01,1.638183593750000000e-01,-9.136962890625000000e-01,3.112792968750000000e-03
6.000000000000000000e+00,1.200000000000000000e+01,6.000000000000000000e+00,3.000000000000000000e+00,2.000000000000000000e+00,3.000000000000000000e+00,3.000000000000000000e+00,-1.000000000000000000e+00,3.719482421875000000e-01,1.638183593750000000e-01,-9.136962890625000000e-01,3.112792968750000000e-03
2.500000000000000000e+01,1.200000000000000000e+01,5.000000000000000000e+00,5.000000000000000000e+00,3.000000000000000000e+00,1.000000000000000000e+00,0.000000000000000000e+00,2.000000000000000000e+00,3.705444335937500000e-01,1.643676757812500000e-01,-9.141235351562500000e-01,1.708984375000000000e-03
-3.200000000000000000e+01,-1.400000000000000000e+01,-1.100000000000000000e+01,-1.000000000000000000e+00,-2.000000000000000000e+00,0.000000000000000000e+00,0.000000000000000000e+00,-4.000000000000000000e+00,3.705444335937500000e-01,1.643676757812500000e-01,-9.141235351562500000e-01,1.708984375000000000e-03
-1.200000000000000000e+01,-5.000000000000000000e+00,2.200000000000000000e+01,6.000000000000000000e+00,3.000000000000000000e+00,-3.000000000000000000e+00,-8.000000000000000000e+00,-1.000000000000000000e+00,3.705444335937500000e-01,1.643676757812500000e-01,-9.141235351562500000e-01,1.708984375000000000e-03
1.400000000000000000e+01,-2.300000000000000000e+01,-1.500000000000000000e+01,-1.900000000000000000e+01,-8.000000000000000000e+00,-1.000000000000000000e+00,4.000000000000000000e+00,-3.000000000000000000e+00,3.705444335937500000e-01,1.643676757812500000e-01,-9.141235351562500000e-01,1.708984375000000000e-03
0.000000000000000000e+00,-1.000000000000000000e+00,2.000000000000000000e+00,3.000000000000000000e+00,-4.000000000000000000e+00,-3.000000000000000000e+00,-6.000000000000000000e+00,-5.000000000000000000e+00,3.693237304687500000e-01,1.651000976562500000e-01,-9.145507812500000000e-01,7.324218750000000000e-04
9.000000000000000000e+00,1.500000000000000000e+01,1.900000000000000000e+01,5.000000000000000000e+00,3.000000000000000000e+00,1.000000000000000000e+00,1.000000000000000000e+00,2.000000000000000000e+00,3.693237304687500000e-01,1.651000976562500000e-01,-9.145507812500000000e-01,7.324218750000000000e-04
6.000000000000000000e+00,2.000000000000000000e+00,1.000000000000000000e+00,5.000000000000000000e+00,3.000000000000000000e+00,2.000000000000000000e+00,1.000000000000000000e+00,2.000000000000000000e+00,3.693237304687500000e-01,1.651000976562500000e-01,-9.145507812500000000e-01,7.324218750000000000e-04
-2.000000000000000000e+01,3.000000000000000000e+00,8.000000000000000000e+00,5.000000000000000000e+00,0.000000000000000000e+00,-2.000000000000000000e+00,-8.000000000000000000e+00,0.000000000000000000e+00,3.693237304687500000e-01,1.651000976562500000e-01,-9.145507812500000000e-01,7.324218750000000000e-04
1.900000000000000000e+01,1.000000000000000000e+01,-7.000000000000000000e+00,-1.000000000000000000e+00,1.000000000000000000e+00,3.000000000000000000e+00,6.000000000000000000e+00,3.000000000000000000e+00,3.681640625000000000e-01,1.660156250000000000e-01,-9.147949218750000000e-01,0.000000000000000000e+00
-2.000000000000000000e+00,-1.300000000000000000e+01,9.000000000000000000e+00,-6.000000000000000000e+00,-6.000000000000000000e+00,-4.000000000000000000e+00,-2.000000000000000000e+00,-4.000000000000000000e+00,3.681640625000000000e-01,1.660156250000000000e-01,-9.147949218750000000e-01,0.000000000000000000e+00
-9.000000000000000000e+00,-1.400000000000000000e+01,-5.000000000000000000e+00,-8.000000000000000000e+00,-1.000000000000000000e+00,0.000000000000000000e+00,1.000000000000000000e+00,0.000000000000000000e+00,3.681640625000000000e-01,1.660156250000000000e-01,-9.147949218750000000e-01,0.000000000000000000e+00
1.200000000000000000e+01,1.000000000000000000e+01,2.000000000000000000e+00,-1.000000000000000000e+00,-2.000000000000000000e+00,0.000000000000000000e+00,1.000000000000000000e+00,-1.000000000000000000e+00,3.681640625000000000e-01,1.660156250000000000e-01,-9.147949218750000000e-01,0.000000000000000000e+00
-1.500000000000000000e+01,-3.000000000000000000e+00,0.000000000000000000e+00,-4.000000000000000000e+00,-1.000000000000000000e+01,-2.000000000000000000e+00,-5.000000000000000000e+00,-3.000000000000000000e+00,3.670654296875000000e-01,1.669921875000000000e-01,-9.151000976562500000e-01,-6.103515625000000000e-04
-4.000000000000000000e+00,0.000000000000000000e+00,-9.000000000000000000e+00,3.000000000000000000e+00,8.000000000000000000e+00,4.000000000000000000e+00,-1.000000000000000000e+00,0.000000000000000000e+00,3.670654296875000000e-01,1.669921875000000000e-01,-9.151000976562500000e-01,-6.103515625000000000e-04
0.000000000000000000e+00,0.000000000000000000e+00,-1.300000000000000000e+01,1.100000000000000000e+01,1.000000000000000000e+01,5.000000000000000000e+00,6.000000000000000000e+00,1.000000000000000000e+00,3.670654296875000000e-01,1.669921875000000000e-01,-9.151000976562500000e-01,-6.103515625000000000e-04
-1.100000000000000000e+01,1.400000000000000000e+01,2.600000000000000000e+01,8.000000000000000000e+00,3.000000000000000000e+00,-2.000000000000000000e+00,0.000000000000000000e+00,0.000000000000000000e+00,3.670654296875000000e-01,1.669921875000000000e-01,-9.151000976562500000e-01,-6.103515625000000000e-04
4.000000000000000000e+00,-1.100000000000000000e+01,-3.900000000000000000e+01,-1.100000000000000000e+01,-3.000000000000000000e+00,0.000000000000000000e+00,1.000000000000000000e+00,-1.000000000000000000e+00,3.658447265625000000e-01,1.674194335937500000e-01,-9.154663085937500000e-01,-1.525878906250000000e-03
3.000000000000000000e+00,-6.000000000000000000e+00,7.000000000000000000e+00,-7.000000000000000000e+00,-1.100000000000000000e+01,-2.000000000000000000e+00,-4.000000000000000000e+00,0.000000000000000000e+00,3.658447265625000000e-01,1.674194335937500000e-01,-9.154663085937500000e-01,-1.525878906250000000e-03
-1.100000000000000000e+01,3.000000000000000000e+00,-2.600000000000000000e+01,-6.000000000000000000e+00,-7.000000000000000000e+00,-6.000000000000000000e+00,0.000000000000000000e+00,-1.000000000000000000e+00,3.658447265625000000e-01,1.674194335937500000e-01,-9.154663085937500000e-01,-1.525878906250000000e-03
1.400000000000000000e+01,-2.800000000000000000e+01,8.000000000000000000e+00,1.000000000000000000e+00,1.000000000000000000e+00,-2.000000000000000000e+00,0.000000000000000000e+00,-3.000000000000000000e+00,3.658447265625000000e-01,1.674194335937500000e-01,-9.154663085937500000e-01,-1.525878906250000000e-03
-3.000000000000000000e+00,0.000000000000000000e+00,-2.400000000000000000e+01,-4.000000000000000000e+00,3.000000000000000000e+00,2.000000000000000000e+00,1.000000000000000000e+00,-2.000000000000000000e+00,3.646240234375000000e-01,1.681518554687500000e-01,-9.158325195312500000e-01,-2.319335937500000000e-03
1.000000000000000000e+00,-1.000000000000000000e+00,-5.000000000000000000e+00,6.000000000000000000e+00,0.000000000000000000e+00,-2.000000000000000000e+00,-3.000000000000000000e+00,-2.000000000000000000e+00,3.646240234375000000e-01,1.681518554687500000e-01,-9.158325195312500000e-01,-2.319335937500000000e-03
1.100000000000000000e+01,7.000000000000000000e+00,-1.000000000000000000e+00,-6.000000000000000000e+00,1.000000000000000000e+00,0.000000000000000000e+00,0.000000000000000000e+00,1.000000000000000000e+00,3.646240234375000000e-01,1.681518554687500000e-01,-9.158325195312500000e-01,-2.319335937500000000e-03
9.000000000000000000e+00,9.000000000000000000e+00,-9.000000000000000000e+00,-4.000000000000000000e+00,-3.000000000000000000e+00,-3.000000000000000000e+00,-2.000000000000000000e+00,2.000000000000000000e+00,3.646240234375000000e-01,1.681518554687500000e-01,-9.158325195312500000e-01,-2.319335937500000000e-03
-1.700000000000000000e+01,-1.100000000000000000e+01,1.700000000000000000e+01,4.000000000000000000e+00,1.000000000000000000e+00,-3.000000000000000000e+00,-7.000000000000000000e+00,0.000000000000000000e+00,3.637695312500000000e-01,1.687011718750000000e-01,-9.160766601562500000e-01,-2.929687500000000000e-03
-3.000000000000000000e+00,7.000000000000000000e+00,-1.300000000000000000e+01,0.000000000000000000e+00,3.000000000000000000e+00,-1.000000000000000000e+00,3.000000000000000000e+00,0.000000000000000000e+00,3.637695312500000000e-01,1.687011718750000000e-01,-9.160766601562500000e-01,-2.929687500000000000e-03
-2.000000000000000000e+00,-2.400000000000000000e+01,-1.000000000000000000e+00,-1.000000000000000000e+00,-2.000000000000000000e+00,0.000000000000000000e+00,0.000000000000000000e+00,-4.000000000000000000e+00,3.637695312500000000e-01,1.687011718750000000e-01,-9.160766601562500000e-01,-2.929687500000000000e-03
1.000000000000000000e+00,1.400000000000000000e+01,4.000000000000000000e+00,-1.000000000000000000e+00,-3.000000000000000000e+00,1.000000000000000000e+00,3.000000000000000000e+00,-1.000000000000000000e+00,3.637695312500000000e-01,1.687011718750000000e-01,-9.160766601562500000e-01,-2.929687500000000000e-03
7.000000000000000000e+00,-4.000000000000000000e+00,-1.600000000000000000e+01,-5.000000000000000000e+00,-3.000000000000000000e+00,-1.000000000000000000e+00,-3.000000000000000000e+00,0.000000000000000000e+00,3.629150390625000000e-01,1.690673828125000000e-01,-9.163818359375000000e-01,-3.417968750000000000e-03
8.000000000000000000e+00,6.000000000000000000e+00,-1.500000000000000000e+01,-2.000000000000000000e+00,-5.000000000000000000e+00,-4.000000000000000000e+00,-1.000000000000000000e+00,1.000000000000000000e+00,3.629150390625000000e-01,1.690673828125000000e-01,-9.163818359375000000e-01,-3.417968750000000000e-03
-3.000000000000000000e+00,3.000000000000000000e+00,5.000000000000000000e+00,4.000000000000000000e+00,0.000000000000000000e+00,-1.000000000000000000e+00,-5.000000000000000000e+00,1.000000000000000000e+00,3.629150390625000000e-01,1.690673828125000000e-01,-9.163818359375000000e-01,-3.417968750000000000e-03
-1.000000000000000000e+00,3.000000000000000000e+00,7.000000000000000000e+00,-4.000000000000000000e+00,-6.000000000000000000e+00,-1.000000000000000000e+00,1.000000000000000000e+00,-1.000000000000000000e+00,3.629150390625000000e-01,1.690673828125000000e-01,-9.163818359375000000e-01,-3.417968750000000000e-03
2.000000000000000000e+00,-1.100000000000000000e+01,-1.500000000000000000e+01,6.000000000000000000e+00,5.000000000000000000e+00,-1.000000000000000000e+00,1.000000000000000000e+00,-2.000000000000000000e+00,3.621826171875000000e-01,1.693725585937500000e-01,-9.166259765625000000e-01,-3.723144531250000000e-03
-1.800000000000000000e+01,-1.400000000000000000e+01,-7.000000000000000000e+00,2.000000000000000000e+00,-3.000000000000000000e+00,-3.000000000000000000e+00,0.000000000000000000e+00,-2.000000000000000000e+00,3.621826171875000000e-01,1.693725585937500000e-01,-9.166259765625000000e-01,-3.723144531250000000e-03
-1.000000000000000000e+00,3.000000000000000000e+00,-9.000000000000000000e+00,-1.500000000000000000e+01,0.000000000000000000e+00,1.000000000000000000e+00,3.000000000000000000e+00,-1.000000000000000000e+00,3.621826171875000000e-01,1.693725585937500000e-01,-9.166259765625000000e-01,-3.723144531250000000e-03
-5.000000000000000000e+00,-4.000000000000000000e+00,2.000000000000000000e+00,4.000000000000000000e+00,-1.000000000000000000e+00,-1.000000000000000000e+00,0.000000000000000000e+00,0.000000000000000000e+00,3.621826171875000000e-01,1.693725585937500000e-01,-9.166259765625000000e-01,-3.723144531250000000e-03
1.400000000000000000e+01,2.000000000000000000e+01,2.400000000000000000e+01,2.000000000000000000e+00,0.000000000000000000e+00,1.000000000000000000e+00,-1.000000000000000000e+00,2.000000000000000000e+00,3.616333007812500000e-01,1.698608398437500000e-01,-9.166870117187500000e-01,-4.272460937500000000e-03
7.000000000000000000e+00,1.700000000000000000e+01,1.500000000000000000e+01,-1.000000000000000000e+00,0.000000000000000000e+00,-2.000000000000000000e+00,1.000000000000000000e+00,-2.000000000000000000e+00,3.616333007812500000e-01,1.698608398437500000e-01,-9.166870117187500000e-01,-4.272460937500000000e-03
-1.000000000000000000e+00,-2.400000000000000000e+01,-3.200000000000000000e+01,3.000000000000000000e+00,-6.000000000000000000e+00,-6.000000000000000000e+00,-5.000000000000000000e+00,-1.000000000000000000e+00,3.616333007812500000e-01,1.698608398437500000e-01,-9.166870117187500000e-01,-4.272460937500000000e-03
0.000000000000000000e+00,7.000000000000000000e+00,6.000000000000000000e+00,-2.000000000000000000e+00,6.000000000000000000e+00,3.000000000000000000e+00,2.000000000000000000e+00,2.000000000000000000e+00,3.616333007812500000e-01,1.698608398437500000e-01,-9.166870117187500000e-01,-4.272460937500000000e-03
-2.100000000000000000e+01,-3.400000000000000000e+01,-5.000000000000000000e+00,-1.000000000000000000e+00,-2.000000000000000000e+00,-6.000000000000000000e+00,-2.000000000000000000e+00,-5.000000000000000000e+00,3.610839843750000000e-01,1.701049804687500000e-01,-9.168701171875000000e-01,-4.760742187500000000e-03
3.000000000000000000e+00,3.000000000000000000e+00,-5.000000000000000000e+00,-4.000000000000000000e+00,2.000000000000000000e+00,0.000000000000000000e+00,-2.000000000000000000e+00,0.000000000000000000e+00,3.610839843750000000e-01,1.701049804687500000e-01,-9.168701171875000000e-01,-4.760742187500000000e-03
4.000000000000000000e+00,6.000000000000000000e+00,8.000000000000000000e+00,0.000000000000000000e+00,-2.000000000000000000e+00,-1.000000000000000000e+00,-1.000000000000000000e+00,-1.000000000000000000e+00,3.610839843750000000e-01,1.701049804687500000e-01,-9.168701171875000000e-01,-4.760742187500000000e-03
5.000000000000000000e+00,6.000000000000000000e+00,-1.700000000000000000e+01,-5.000000000000000000e+00,1.000000000000000000e+00,0.000000000000000000e+00,-1.000000000000000000e+00,2.000000000000000000e+00,3.610839843750000000e-01,1.701049804687500000e-01,-9.168701171875000000e-01,-4.760742187500000000e-03
8.000000000000000000e+00,1.600000000000000000e+01,1.800000000000000000e+01,-1.000000000000000000e+00,-7.000000000000000000e+00,0.000000000000000000e+00,0.000000000000000000e+00,0.000000000000000000e+00,3.606567382812500000e-01,1.706542968750000000e-01,-9.169311523437500000e-01,-5.126953125000000000e-03
0.000000000000000000e+00,-8.000000000000000000e+00,2.000000000000000000e+00,3.000000000000000000e+00,2.000000000000000000e+00,2.000000000000000000e+00,-1.000000000000000000e+00,0.000000000000000000e+00,3.606567382812500000e-01,1.706542968750000000e-01,-9.169311523437500000e-01,-5.126953125000000000e-03
1.700000000000000000e+01,8.000000000000000000e+00,1.000000000000000000e+00,-1.000000000000000000e+01,3.000000000000000000e+00,1.000000000000000000e+00,0.000000000000000000e+00,-1.000000000000000000e+00,3.606567382812500000e-01,1.706542968750000000e-01,-9.169311523437500000e-01,-5.126953125000000000e-03
-3.500000000000000000e+01,-1.200000000000000000e+01,-1.100000000000000000e+01,-1.000000000000000000e+01,-9.000000000000000000e+00,-3.000000000000000000e+00,8.000000000000000000e+00,-5.000000000000000000e+00,3.606567382812500000e-01,1.706542968750000000e-01,-9.169311523437500000e-01,-5.126953125000000000e-03
3.000000000000000000e+00,-9.000000000000000000e+00,1.400000000000000000e+01,6.000000000000000000e+00,4.000000000000000000e+00,-2.000000000000000000e+00,-1.000000000000000000e+00,0.000000000000000000e+00,3.603515625000000000e-01,1.711425781250000000e-01,-9.169921875000000000e-01,-5.615234375000000000e-03
-2.000000000000000000e+00,-5.000000000000000000e+00,-1.100000000000000000e+01,-1.000000000000000000e+00,0.000000000000000000e+00,-2.000000000000000000e+00,1.000000000000000000e+00,-2.000000000000000000e+00,3.603515625000000000e-01,1.711425781250000000e-01,-9.169921875000000000e-01,-5.615234375000000000e-03
2.000000000000000000e+00,1.000000000000000000e+00,1.000000000000000000e+00,0.000000000000000000e+00,-6.000000000000000000e+00,-3.000000000000000000e+00,-7.000000000000000000e+00,-2.000000000000000000e+00,3.603515625000000000e-01,1.711425781250000000e-01,-9.169921875000000000e-01,-5.615234375000000000e-03
1.000000000000000000e+00,-2.000000000000000000e+00,-2.000000000000000000e+00,-1.000000000000000000e+00,3.000000000000000000e+00,-1.000000000000000000e+00,-5.000000000000000000e+00,0.000000000000000000e+00,3.603515625000000000e-01,1.711425781250000000e-01,-9.169921875000000000e-01,-5.615234375000000000e-03
1.000000000000000000e+00,1.700000000000000000e+01,1.400000000000000000e+01,-6.000000000000000000e+00,-1.000000000000000000e+00,-1.000000000000000000e+00,-4.000000000000000000e+00,-2.000000000000000000e+00,3.601684570312500000e-01,1.717529296875000000e-01,-9.169311523437500000e-01,-6.164550781250000000e-03
1.500000000000000000e+01,-4.000000000000000000e+00,-2.100000000000000000e+01,-4.000000000000000000e+00,-3.000000000000000000e+00,-2.000000000000000000e+00,-3.000000000000000000e+00,0.000000000000000000e+00,3.601684570312500000e-01,1.717529296875000000e-01,-9.169311523437500000e-01,-6.164550781250000000e-03
-1.900000000000000000e+01,-1.500000000000000000e+01,2.200000000000000000e+01,-7.000000000000000000e+00,-6.000000000000000000e+00,-2.000000000000000000e+00,2.000000000000000000e+00,-2.000000000000000000e+00,3.601684570312500000e-01,1.717529296875000000e-01,-9.169311523437500000e-01,-6.164550781250000000e-03
-7.000000000000000000e+00,-1.200000000000000000e+01,-5.000000000000000000e+00,2.000000000000000000e+00,2.000000000000000000e+00,0.000000000000000000e+00,-2.000000000000000000e+00,-5.000000000000000000e+00,3.601684570312500000e-01,1.717529296875000000e-01,-9.169311523437500000e-01,-6.164550781250000000e-03
1.000000000000000000e+00,-6.000000000000000000e+00,-2.000000000000000000e+00,6.000000000000000000e+00,-6.000000000000000000e+00,-2.000000000000000000e+00,2.000000000000000000e+00,-1.000000000000000000e+00,3.602294921875000000e-01,1.721191406250000000e-01,-9.168090820312500000e-01,-6.713867187500000000e-03
1.600000000000000000e+01,2.400000000000000000e+01,1.000000000000000000e+01,-5.000000000000000000e+00,2.000000000000000000e+00,3.000000000000000000e+00,0.000000000000000000e+00,5.000000000000000000e+00,3.602294921875000000e-01,1.721191406250000000e-01,-9.168090820312500000e-01,-6.713867187500000000e-03
-3.000000000000000000e+00,-6.000000000000000000e+00,-2.500000000000000000e+01,-3.000000000000000000e+00,3.000000000000000000e+00,-1.000000000000000000e+00,-1.000000000000000000e+00,0.000000000000000000e+00,3.602294921875000000e-01,1.721191406250000000e-01,-9.168090820312500000e-01,-6.713867187500000000e-03
-1.400000000000000000e+01,-2.000000000000000000e+00,-2.700000000000000000e+01,-1.900000000000000000e+01,0.000000000000000000e+00,-1.000000000000000000e+00,-4.000000000000000000e+00,-2.000000000000000000e+00,3.602294921875000000e-01,1.721191406250000000e-01,-9.168090820312500000e-01,-6.713867187500000000e-03
1.000000000000000000e+00,8.000000000000000000e+00,1.500000000000000000e+01,4.000000000000000000e+00,0.000000000000000000e+00,3.000000000000000000e+00,1.000000000000000000e+00,0.000000000000000000e+00,3.602905273437500000e-01,1.725463867187500000e-01,-9.167480468750000000e-01,-7.202148437500000000e-03
-6.000000000000000000e+00,-1.500000000000000000e+01,-1.000000000000000000e+00,0.000000000000000000e+00,-2.000000000000000000e+00,-4.000000000000000000e+00,-3.000000000000000000e+00,-3.000000000000000000e+00,3.602905273437500000e-01,1.725463867187500000e-01,-9.167480468750000000e-01,-7.202148437500000000e-03
3.000000000000000000e+00,9.000000000000000000e+00,1.100000000000000000e+01,2.000000000000000000e+00,-4.000000000000000000e+00,-2.000000000000000000e+00,-4.000000000000000000e+00,-4.000000000000000000e+00,3.602905273437500000e-01,1.725463867187500000e-01,-9.167480468750000000e-01,-7.202148437500000000e-03
5.000000000000000000e+00,5.000000000000000000e+00,8.000000000000000000e+00,4.000000000000000000e+00,-1.000000000000000000e+00,-1.000000000000000000e+00,-2.000000000000000000e+00,2.000000000000000000e+00,3.602905273437500000e-01,1.725463867187500000e-01,-9.167480468750000000e-01,-7.202148437500000000e-03
8.000000000000000000e+00,1.000000000000000000e+00,-1.100000000000000000e+01,-3.000000000000000000e+00,1.000000000000000000e+00,0.000000000000000000e+00,0.000000000000000000e+00,0.000000000000000000e+00,3.603515625000000000e-01,1.731567382812500000e-01,-9.165649414062500000e-01,-7.446289062500000000e-03
6.000000000000000000e+00,9.000000000000000000e+00,1.200000000000000000e+01,-2.000000000000000000e+00,0.000000000000000000e+00,-3.000000000000000000e+00,-4.000000000000000000e+00,-1.000000000000000000e+00,3.603515625000000000e-01,1.731567382812500000e-01,-9.165649414062500000e-01,-7.446289062500000000e-03
-2.400000000000000000e+01,-1.400000000000000000e+01,-1.300000000000000000e+01,2.000000000000000000e+00,2.000000000000000000e+00,2.000000000000000000e+00,-1.000000000000000000e+00,-2.000000000000000000e+00,3.603515625000000000e-01,1.731567382812500000e-01,-9.165649414062500000e-01,-7.446289062500000000e-03
7.000000000000000000e+00,-7.000000000000000000e+00,1.100000000000000000e+01,6.000000000000000000e+00,-3.000000000000000000e+00,-3.000000000000000000e+00,-6.000000000000000000e+00,-3.000000000000000000e+00,3.603515625000000000e-01,1.731567382812500000e-01,-9.165649414062500000e-01,-7.446289062500000000e-03
-6.000000000000000000e+00,5.000000000000000000e+00,4.000000000000000000e+00,-7.000000000000000000e+00,-1.000000000000000000e+00,0.000000000000000000e+00,1.000000000000000000e+00,0.000000000000000000e+00,3.602905273437500000e-01,1.735229492187500000e-01,-9.165039062500000000e-01,-7.629394531250000000e-03
7.000000000000000000e+00,-7.000000000000000000e+00,-1.100000000000000000e+01,7.000000000000000000e+00,0.000000000000000000e+00,-2.000000000000000000e+00,-4.000000000000000000e+00,-2.000000000000000000e+00,3.602905273437500000e-01,1.735229492187500000e-01,-9.165039062500000000e-01,-7.629394531250000000e-03
4.000000000000000000e+00,3.000000000000000000e+00,1.500000000000000000e+01,3.000000000000000000e+00,-2.000000000000000000e+00,1.000000000000000000e+00,7.000000000000000000e+00,1.000000000000000000e+00,3.602905273437500000e-01,1.735229492187500000e-01,-9.165039062500000000e-01,-7.629394531250000000e-03
-3.000000000000000000e+00,5.000000000000000000e+00,0.000000000000000000e+00,2.000000000000000000e+00,-3.000000000000000000e+00,-2.000000000000000000e+00,-3.000000000000000000e+00,-1.000000000000000000e+00,3.602905273437500000e-01,1.735229492187500000e-01,-9.165039062500000000e-01,-7.629394531250000000e-03
1.000000000000000000e+00,7.000000000000000000e+00,-9.000000000000000000e+00,-6.000000000000000000e+00,-3.000000000000000000e+00,-2.000000000000000000e+00,-1.000000000000000000e+00,1.000000000000000000e+00,3.602294921875000000e-01,1.738891601562500000e-01,-9.165039062500000000e-01,-7.873535156250000000e-03
4.000000000000000000e+00,-1.200000000000000000e+01,-5.000000000000000000e+00,-3.000000000000000000e+00,0.000000000000000000e+00,0.000000000000000000e+00,2.000000000000000000e+00,2.000000000000000000e+00,3.602294921875000000e-01,1.738891601562500000e-01,-9.165039062500000000e-01,-7.873535156250000000e-03
-3.000000000000000000e+00,-1.100000000000000000e+01,8.000000000000000000e+00,2.000000000000000000e+00,3.000000000000000000e+00,-2.000000000000000000e+00,-3.000000000000000000e+00,-1.000000000000000000e+00,3.602294921875000000e-01,1.738891601562500000e-01,-9.165039062500000000e-01,-7.873535156250000000e-03
-2.400000000000000000e+01,-1.100000000000000000e+01,-2.400000000000000000e+01,-5.000000000000000000e+00,-1.000000000000000000e+01,-3.000000000000000000e+00,-1.000000000000000000e+00,-4.000000000000000000e+00,3.602294921875000000e-01,1.738891601562500000e-01,-9.165039062500000000e-01,-7.873535156250000000e-03
-1.000000000000000000e+00,-6.000000000000000000e+00,1.000000000000000000e+00,1.000000000000000000e+00,5.000000000000000000e+00,0.000000000000000000e+00,-2.000000000000000000e+00,-2.000000000000000000e+00,3.601684570312500000e-01,1.738891601562500000e-01,-9.165039062500000000e-01,-8.361816406250000000e-03
-6.000000000000000000e+00,1.000000000000000000e+01,5.000000000000000000e+00,0.000000000000000000e+00,-9.000000000000000000e+00,-3.000000000000000000e+00,2.000000000000000000e+00,0.000000000000000000e+00,3.601684570312500000e-01,1.738891601562500000e-01,-9.165039062500000000e-01,-8.361816406250000000e-03
1.300000000000000000e+01,1.200000000000000000e+01,6.000000000000000000e+00,-4.000000000000000000e+00,6.000000000000000000e+00,2.000000000000000000e+00,1.000000000000000000e+00,5.000000000000000000e+00,3.601684570312500000e-01,1.738891601562500000e-01,-9.165039062500000000e-01,-8.361816406250000000e-03
-3.000000000000000000e+00,-1.000000000000000000e+00,8.000000000000000000e+00,-4.000000000000000000e+00,3.000000000000000000e+00,-1.000000000000000000e+00,-3.000000000000000000e+00,-3.000000000000000000e+00,3.601684570312500000e-01,1.738891601562500000e-01,-9.165039062500000000e-01,-8.361816406250000000e-03
1.600000000000000000e+01,-1.000000000000000000e+00,-6.000000000000000000e+00,-9.000000000000000000e+00,-5.000000000000000000e+00,-5.000000000000000000e+00,-2.000000000000000000e+00,1.000000000000000000e+00,3.599853515625000000e-01,1.735839843750000000e-01,-9.166259765625000000e-01,-8.972167968750000000e-03
-1.000000000000000000e+01,-8.000000000000000000e+00,-1.700000000000000000e+01,3.000000000000000000e+00,1.000000000000000000e+00,0.000000000000000000e+00,-1.000000000000000000e+01,-3.000000000000000000e+00,3.599853515625000000e-01,1.735839843750000000e-01,-9.166259765625000000e-01,-8.972167968750000000e-03
4.000000000000000000e+00,0.000000000000000000e+00,2.000000000000000000e+00,2.000000000000000000e+00,-7.000000000000000000e+00,-1.000000000000000000e+00,1.000000000000000000e+00,0.000000000000000000e+00,3.599853515625000000e-01,1.735839843750000000e-01,-9.166259765625000000e-01,-8.972167968750000000e-03
5.000000000000000000e+00,-1.000000000000000000e+00,4.000000000000000000e+00,-5.000000000000000000e+00,-2.000000000000000000e+00,-2.000000000000000000e+00,1.000000000000000000e+00,-1.000000000000000000e+00,3.599853515625000000e-01,1.735839843750000000e-01,-9.166259765625000000e-01,-8.972167968750000000e-03
0.000000000000000000e+00,6.000000000000000000e+00,-4.000000000000000000e+00,1.300000000000000000e+01,7.000000000000000000e+00,1.000000000000000000e+00,1.000000000000000000e+00,3.000000000000000000e+00,3.596801757812500000e-01,1.732788085937500000e-01,-9.168090820312500000e-01,-9.765625000000000000e-03
8.000000000000000000e+00,4.000000000000000000e+00,9.000000000000000000e+00,-3.000000000000000000e+00,2.000000000000000000e+00,1.000000000000000000e+00,8.000000000000000000e+00,1.000000000000000000e+00,3.596801757812500000e-01,1.732788085937500000e-01,-9.168090820312500000e-01,-9.765625000000000000e-03
-8.000000000000000000e+00,1.400000000000000000e+01,4.000000000000000000e+00,6.000000000000000000e+00,0.000000000000000000e+00,-1.000000000000000000e+00,-3.000000000000000000e+00,0.000000000000000000e+00,3.596801757812500000e-01,1.732788085937500000e-01,-9.168090820312500000e-01,-9.765625000000000000e-03
-2.000000000000000000e+00,-3.000000000000000000e+00,2.400000000000000000e+01,-2.000000000000000000e+00,-1.000000000000000000e+00,0.000000000000000000e+00,-3.000000000000000000e+00,-1.000000000000000000e+00,3.596801757812500000e-01,1.732788085937500000e-01,-9.168090820312500000e-01,-9.765625000000000000e-03
-1.600000000000000000e+01,-3.300000000000000000e+01,-2.900000000000000000e+01,-1.600000000000000000e+01,-1.300000000000000000e+01,-5.000000000000000000e+00,-3.000000000000000000e+00,-5.000000000000000000e+00,3.590698242187500000e-01,1.732788085937500000e-01,-9.170532226562500000e-01,-1.037597656250000000e-02
-9.000000000000000000e+00,-1.600000000000000000e+01,-2.500000000000000000e+01,-7.000000000000000000e+00,-6.000000000000000000e+00,-6.000000000000000000e+00,-2.000000000000000000e+00,-1.000000000000000000e+00,3.590698242187500000e-01,1.732788085937500000e-01,-9.170532226562500000e-01,-1.037597656250000000e-02
-1.000000000000000000e+00,-1.000000000000000000e+00,4.000000000000000000e+00,1.000000000000000000e+00,-3.000000000000000000e+00,0.000000000000000000e+00,-2.000000000000000000e+00,0.000000000000000000e+00,3.590698242187500000e-01,1.732788085937500000e-01,-9.170532226562500000e-01,-1.037597656250000000e-02
6.000000000000000000e+00,1.000000000000000000e+01,4.000000000000000000e+00,1.100000000000000000e+01,1.200000000000000000e+01,6.000000000000000000e+00,5.000000000000000000e+00,2.000000000000000000e+00,3.590698242187500000e-01,1.732788085937500000e-01,-9.170532226562500000e-01,-1.037597656250000000e-02
4.000000000000000000e+00,1.000000000000000000e+01,1.100000000000000000e+01,1.000000000000000000e+00,3.000000000000000000e+00,3.000000000000000000e+00,1.000000000000000000e+00,-2.000000000000000000e+00,3.583374023437500000e-01,1.737670898437500000e-01,-9.172363281250000000e-01,-1.092529296875000000e-02
-5.000000000000000000e+00,-1.000000000000000000e+00,-4.000000000000000000e+00,-7.000000000000000000e+00,-6.000000000000000000e+00,-3.000000000000000000e+00,2.000000000000000000e+00,-2.000000000000000000e+00,3.583374023437500000e-01,1.737670898437500000e-01,-9.172363281250000000e-01,-1.092529296875000000e-02
0.000000000000000000e+00,6.000000000000000000e+00,2.900000000000000000e+01,9.000000000000000000e+00,8.000000000000000000e+00,-1.000000000000000000e+00,-1.000000000000000000e+00,0.000000000000000000e+00,3.583374023437500000e-01,1.737670898437500000e-01,-9.172363281250000000e-01,-1.092529296875000000e-02
2.000000000000000000e+01,-3.000000000000000000e+00,-5.600000000000000000e+01,-1.300000000000000000e+01,-5.000000000000000000e+00,-3.000000000000000000e+00,0.000000000000000000e+00,2.000000000000000000e+00,3.583374023437500000e-01,1.737670898437500000e-01,-9.172363281250000000e-01,-1.092529296875000000e-02
-3.100000000000000000e+01,-1.000000000000000000e+01,1.500000000000000000e+01,2.000000000000000000e+00,0.000000000000000000e+00,-1.000000000000000000e+00,-1.000000000000000000e+00,-4.000000000000000000e+00,3.574829101562500000e-01,1.743164062500000000e-01,-9.174194335937500000e-01,-1.165771484375000000e-02
-2.200000000000000000e+01,-5.000000000000000000e+00,-1.000000000000000000e+00,-2.000000000000000000e+00,3.000000000000000000e+00,1.000000000000000000e+00,2.000000000000000000e+00,-1.000000000000000000e+00,3.574829101562500000e-01,1.743164062500000000e-01,-9.174194335937500000e-01,-1.165771484375000000e-02
4.000000000000000000e+00,-5.000000000000000000e+00,-5.000000000000000000e+00,-5.000000000000000000e+00,-8.000000000000000000e+00,-5.000000000000000000e+00,-1.000000000000000000e+00,-5.000000000000000000e+00,3.574829101562500000e-01,1.743164062500000000e-01,-9.174194335937500000e-01,-1.165771484375000000e-02
5.000000000000000000e+00,6.000000000000000000e+00,1.000000000000000000e+01,2.000000000000000000e+00,1.000000000000000000e+00,0.000000000000000000e+00,-2.000000000000000000e+00,-1.000000000000000000e+00,3.574829101562500000e-01,1.743164062500000000e-01,-9.174194335937500000e-01,-1.165771484375000000e-02
5.000000000000000000e+00,1.400000000000000000e+01,3.000000000000000000e+00,2.000000000000000000e+00,1.000000000000000000e+00,-3.000000000000000000e+00,-1.000000000000000000e+00,3.000000000000000000e+00,3.570556640625000000e-01,1.748046875000000000e-01,-9.175415039062500000e-01,-1.263427734375000000e-02
1.000000000000000000e+00,1.000000000000000000e+00,6.000000000000000000e+00,-4.000000000000000000e+00,-4.000000000000000000e+00,2.000000000000000000e+00,2.000000000000000000e+00,-2.000000000000000000e+00,3.570556640625000000e-01,1.748046875000000000e-01,-9.175415039062500000e-01,-1.263427734375000000e-02
-3.000000000000000000e+00,-3.000000000000000000e+00,-1.300000000000000000e+01,-2.000000000000000000e+00,-1.000000000000000000e+00,1.000000000000000000e+00,-3.000000000000000000e+00,-3.000000000000000000e+00,3.570556640625000000e-01,1.748046875000000000e-01,-9.175415039062500000e-01,-1.263427734375000000e-02
2.000000000000000000e+00,1.000000000000000000e+00,4.000000000000000000e+00,1.000000000000000000e+00,-1.000000000000000000e+00,-5.000000000000000000e+00,-1.000000000000000000e+00,-1.000000000000000000e+00,3.570556640625000000e-01,1.748046875000000000e-01,-9.175415039062500000e-01,-1.263427734375000000e-02
5.000000000000000000e+00,8.000000000000000000e+00,5.000000000000000000e+00,0.000000000000000000e+00,1.000000000000000000e+00,4.000000000000000000e+00,2.000000000000000000e+00,3.000000000000000000e+00,3.569335937500000000e-01,1.746826171875000000e-01,-9.175415039062500000e-01,-1.354980468750000000e-02
1.300000000000000000e+01,1.500000000000000000e+01,1.700000000000000000e+01,4.000000000000000000e+00,2.000000000000000000e+00,0.000000000000000000e+00,-2.000000000000000000e+00,0.000000000000000000e+00,3.569335937500000000e-01,1.746826171875000000e-01,-9.175415039062500000e-01,-1.354980468750000000e-02
-2.600000000000000000e+01,-4.200000000000000000e+01,-4.200000000000000000e+01,-1.000000000000000000e+01,-1.000000000000000000e+01,-4.000000000000000000e+00,-2.000000000000000000e+00,-3.000000000000000000e+00,3.569335937500000000e-01,1.746826171875000000e-01,-9.175415039062500000e-01,-1.354980468750000000e-02
1.000000000000000000e+00,-1.000000000000000000e+01,-7.000000000000000000e+00,-3.000000000000000000e+00,-7.000000000000000000e+00,-4.000000000000000000e+00,-3.000000000000000000e+00,-5.000000000000000000e+00,3.569335937500000000e-01,1.746826171875000000e-01,-9.175415039062500000e-01,-1.354980468750000000e-02
-6.000000000000000000e+00,-6.000000000000000000e+00,1.900000000000000000e+01,6.000000000000000000e+00,3.000000000000000000e+00,-2.000000000000000000e+00,-6.000000000000000000e+00,-4.000000000000000000e+00,3.573608398437500000e-01,1.746215820312500000e-01,-9.174194335937500000e-01,-1.397705078125000000e-02
1.100000000000000000e+01,1.200000000000000000e+01,1.300000000000000000e+01,4.000000000000000000e+00,3.000000000000000000e+00,1.000000000000000000e+00,2.000000000000000000e+00,2.000000000000000000e+00,3.573608398437500000e-01,1.746215820312500000e-01,-9.174194335937500000e-01,-1.397705078125000000e-02
-1.000000000000000000e+00,1.700000000000000000e+01,2.900000000000000000e+01,4.000000000000000000e+00,2.000000000000000000e+00,0.000000000000000000e+00,-1.000000000000000000e+00,0.000000000000000000e+00,3.573608398437500000e-01,1.746215820312500000e-01,-9.174194335937500000e-01,-1.397705078125000000e-02
-3.000000000000000000e+00,-9.000000000000000000e+00,-7.100000000000000000e+01,-7.000000000000000000e+00,-7.000000000000000000e+00,-4.000000000000000000e+00,-3.000000000000000000e+00,-1.000000000000000000e+00,3.573608398437500000e-01,1.746215820312500000e-01,-9.174194335937500000e-01,-1.397705078125000000e-02
-5.000000000000000000e+00,2.000000000000000000e+00,1.000000000000000000e+00,3.000000000000000000e+00,2.000000000000000000e+00,3.000000000000000000e+00,4.000000000000000000e+00,1.000000000000000000e+00,3.580322265625000000e-01,1.748046875000000000e-01,-9.171142578125000000e-01,-1.422119140625000000e-02
2.000000000000000000e+00,-1.000000000000000000e+01,-3.000000000000000000e+00,-1.400000000000000000e+01,-5.000000000000000000e+00,-2.000000000000000000e+00,-3.000000000000000000e+00,-3.000000000000000000e+00,3.580322265625000000e-01,1.748046875000000000e-01,-9.171142578125000000e-01,-1.422119140625000000e-02
7.000000000000000000e+00,4.000000000000000000e+00,-1.000000000000000000e+01,6.000000000000000000e+00,3.000000000000000000e+00,-1.000000000000000000e+00,-2.000000000000000000e+00,-2.000000000000000000e+00,3.580322265625000000e-01,1.748046875000000000e-01,-9.171142578125000000e-01,-1.422119140625000000e-02
-6.000000000000000000e+00,-2.000000000000000000e+00,3.000000000000000000e+01,7.000000000000000000e+00,3.000000000000000000e+00,-3.000000000000000000e+00,3.000000000000000000e+00,3.000000000000000000e+00,3.580322265625000000e-01,1.748046875000000000e-01,-9.171142578125000000e-01,-1.422119140625000000e-02
1.700000000000000000e+01,1.000000000000000000e+00,0.000000000000000000e+00,0.000000000000000000e+00,2.000000000000000000e+00,4.000000000000000000e+00,4.000000000000000000e+00,0.000000000000000000e+00,3.588867187500000000e-01,1.746826171875000000e-01,-9.168090820312500000e-01,-1.428222656250000000e-02
-3.000000000000000000e+01,-8.000000000000000000e+00,-1.800000000000000000e+01,-5.000000000000000000e+00,-5.000000000000000000e+00,-2.000000000000000000e+00,-4.000000000000000000e+00,-3.000000000000000000e+00,3.588867187500000000e-01,1.746826171875000000e-01,-9.168090820312500000e-01,-1.428222656250000000e-02
1.400000000000000000e+01,1.900000000000000000e+01,4.000000000000000000e+00,-2.000000000000000000e+00,0.000000000000000000e+00,2.000000000000000000e+00,8.000000000000000000e+00,0.000000000000000000e+00,3.588867187500000000e-01,1.746826171875000000e-01,-9.168090820312500000e-01,-1.428222656250000000e-02
-2.400000000000000000e+01,-1.900000000000000000e+01,1.200000000000000000e+01,5.000000000000000000e+00,1.000000000000000000e+00,-2.000000000000000000e+00,-2.000000000000000000e+00,-1.000000000000000000e+00,3.588867187500000000e-01,1.746826171875000000e-01,-9.168090820312500000e-01,-1.428222656250000000e-02
-2.000000000000000000e+00,-3.000000000000000000e+00,-3.000000000000000000e+00,-1.100000000000000000e+01,-6.000000000000000000e+00,-3.000000000000000000e+00,-5.000000000000000000e+00,-1.000000000000000000e+00,3.597412109375000000e-01,1.743164062500000000e-01,-9.165039062500000000e-01,-1.428222656250000000e-02
-3.000000000000000000e+00,2.000000000000000000e+00,3.000000000000000000e+00,5.000000000000000000e+00,-6.000000000000000000e+00,-5.000000000000000000e+00,-2.000000000000000000e+00,0.000000000000000000e+00,3.597412109375000000e-01,1.743164062500000000e-01,-9.165039062500000000e-01,-1.428222656250000000e-02
0.000000000000000000e+00,3.000000000000000000e+00,-1.000000000000000000e+01,-5.000000000000000000e+00,0.000000000000000000e+00,0.000000000000000000e+00,-6.000000000000000000e+00,-4.000000000000000000e+00,3.597412109375000000e-01,1.743164062500000000e-01,-9.165039062500000000e-01,-1.428222656250000000e-02
7.000000000000000000e+00,1.100000000000000000e+01,1.700000000000000000e+01,1.100000000000000000e+01,0.000000000000000000e+00,1.000000000000000000e+00,-3.000000000000000000e+00,-5.000000000000000000e+00,3.597412109375000000e-01,1.743164062500000000e-01,-9.165039062500000000e-01,-1.428222656250000000e-02
5.000000000000000000e+00,6.000000000000000000e+00,4.000000000000000000e+00,-7.000000000000000000e+00,0.000000000000000000e+00,-2.000000000000000000e+00,2.000000000000000000e+00,3.000000000000000000e+00,3.606567382812500000e-01,1.742553710937500000e-01,-9.161987304687500000e-01,-1.428222656250000000e-02
-1.000000000000000000e+00,-1.500000000000000000e+01,0.000000000000000000e+00,-1.000000000000000000e+00,1.000000000000000000e+00,2.000000000000000000e+00,0.000000000000000000e+00,-2.000000000000000000e+00,3.606567382812500000e-01,1.742553710937500000e-01,-9.161987304687500000e-01,-1.428222656250000000e-02
-1.100000000000000000e+01,-1.100000000000000000e+01,7.000000000000000000e+00,-1.000000000000000000e+00,-7.000000000000000000e+00,-8.000000000000000000e+00,-1.400000000000000000e+01,-1.000000000000000000e+00,3.606567382812500000e-01,1.742553710937500000e-01,-9.161987304687500000e-01,-1.428222656250000000e-02
2.000000000000000000e+00,-1.000000000000000000e+00,-1.700000000000000000e+01,1.000000000000000000e+00,5.000000000000000000e+00,6.000000000000000000e+00,1.000000000000000000e+01,-1.000000000000000000e+00,3.606567382812500000e-01,1.742553710937500000e-01,-9.161987304687500000e-01,-1.428222656250000000e-02
-1.000000000000000000e+00,1.000000000000000000e+00,8.000000000000000000e+00,7.000000000000000000e+00,-3.000000000000000000e+00,-1.000000000000000000e+00,-1.000000000000000000e+00,-2.000000000000000000e+00,3.613891601562500000e-01,1.738891601562500000e-01,-9.159545898437500000e-01,-1.440429687500000000e-02
6.000000000000000000e+00,0.000000000000000000e+00,-3.000000000000000000e+00,-1.300000000000000000e+01,0.000000000000000000e+00,0.000000000000000000e+00,-1.000000000000000000e+00,-1.000000000000000000e+00,3.613891601562500000e-01,1.738891601562500000e-01,-9.159545898437500000e-01,-1.440429687500000000e-02
7.000000000000000000e+00,3.000000000000000000e+00,-4.000000000000000000e+00,7.000000000000000000e+00,1.000000000000000000e+00,-1.000000000000000000e+00,-3.000000000000000000e+00,0.000000000000000000e+00,3.613891601562500000e-01,1.738891601562500000e-01,-9.159545898437500000e-01,-1.440429687500000000e-02
5.000000000000000000e+00,1.300000000000000000e+01,2.200000000000000000e+01,1.000000000000000000e+00,2.000000000000000000e+00,1.000000000000000000e+00,0.000000000000000000e+00,3.000000000000000000e+00,3.613891601562500000e-01,1.738891601562500000e-01,-9.159545898437500000e-01,-1.440429687500000000e-02
-1.000000000000000000e+00,-1.300000000000000000e+01,-1.800000000000000000e+01,-3.000000000000000000e+00,-4.000000000000000000e+00,-1.000000000000000000e+00,2.000000000000000000e+00,-4.000000000000000000e+00,3.618774414062500000e-01,1.734008789062500000e-01,-9.158325195312500000e-01,-1.446533203125000000e-02
-1.800000000000000000e+01,1.000000000000000000e+01,-1.900000000000000000e+01,-1.000000000000000000e+00,6.000000000000000000e+00,4.000000000000000000e+00,-3.000000000000000000e+00,-3.000000000000000000e+00,3.618774414062500000e-01,1.734008789062500000e-01,-9.158325195312500000e-01,-1.446533203125000000e-02
9.000000000000000000e+00,-2.300000000000000000e+01,3.000000000000000000e+01,-1.100000000000000000e+01,-1.500000000000000000e+01,-2.000000000000000000e+00,1.000000000000000000e+00,2.000000000000000000e+00,3.618774414062500000e-01,1.734008789062500000e-01,-9.158325195312500000e-01,-1.446533203125000000e-02
5.000000000000000000e+00,1.000000000000000000e+00,4.000000000000000000e+00,5.000000000000000000e+00,5.000000000000000000e+00,-1.000000000000000000e+00,1.000000000000000000e+00,-1.000000000000000000e+00,3.618774414062500000e-01,1.734008789062500000e-01,-9.158325195312500000e-01,-1.446533203125000000e-02
-1.800000000000000000e+01,6.000000000000000000e+00,-2.800000000000000000e+01,0.000000000000000000e+00,-3.000000000000000000e+00,-3.000000000000000000e+00,-3.000000000000000000e+00,-1.000000000000000000e+00,3.619995117187500000e-01,1.734619140625000000e-01,-9.157714843750000000e-01,-1.422119140625000000e-02
4.000000000000000000e+00,0.000000000000000000e+00,7.000000000000000000e+00,1.200000000000000000e+01,1.100000000000000000e+01,2.000000000000000000e+00,0.000000000000000000e+00,1.000000000000000000e+00,3.619995117187500000e-01,1.734619140625000000e-01,-9.157714843750000000e-01,-1.422119140625000000e-02
-3.000000000000000000e+00,6.000000000000000000e+00,-1.900000000000000000e+01,-1.500000000000000000e+01,-3.000000000000000000e+00,-1.000000000000000000e+00,2.000000000000000000e+00,1.000000000000000000e+00,3.619995117187500000e-01,1.734619140625000000e-01,-9.157714843750000000e-01,-1.422119140625000000e-02
3.000000000000000000e+00,1.000000000000000000e+01,7.000000000000000000e+00,-1.000000000000000000e+00,-3.000000000000000000e+00,0.000000000000000000e+00,-4.000000000000000000e+00,-1.000000000000000000e+00,3.619995117187500000e-01,1.734619140625000000e-01,-9.157714843750000000e-01,-1.422119140625000000e-02
-2.000000000000000000e+00,-2.000000000000000000e+00,8.000000000000000000e+00,-1.000000000000000000e+00,-2.000000000000000000e+00,0.000000000000000000e+00,-2.000000000000000000e+00,-2.000000000000000000e+00,3.619995117187500000e-01,1.740112304687500000e-01,-9.157104492187500000e-01,-1.409912109375000000e-02
7.000000000000000000e+00,2.000000000000000000e+00,-6.000000000000000000e+00,-4.000000000000000000e+00,-7.000000000000000000e+00,-2.000000000000000000e+00,0.000000000000000000e+00,-3.000000000000000000e+00,3.619995117187500000e-01,1.740112304687500000e-01,-9.157104492187500000e-01,-1.409912109375000000e-02
-1.200000000000000000e+01,-1.200000000000000000e+01,-1.000000000000000000e+01,6.000000000000000000e+00,4.000000000000000000e+00,-1.000000000000000000e+00,-6.000000000000000000e+00,-3.000000000000000000e+00,3.619995117187500000e-01,1.740112304687500000e-01,-9.157104492187500000e-01,-1.409912109375000000e-02
2.000000000000000000e+00,-7.000000000000000000e+00,1.300000000000000000e+01,-6.000000000000000000e+00,-4.000000000000000000e+00,-2.000000000000000000e+00,5.000000000000000000e+00,-1.000000000000000000e+00,3.619995117187500000e-01,1.740112304687500000e-01,-9.157104492187500000e-01,-1.409912109375000000e-02
1.000000000000000000e+01,-3.000000000000000000e+00,-7.000000000000000000e+00,-4.000000000000000000e+00,-2.000000000000000000e+00,-6.000000000000000000e+00,-1.000000000000000000e+00,-1.000000000000000000e+00,3.619384765625000000e-01,1.740722656250000000e-01,-9.157104492187500000e-01,-1.458740234375000000e-02
-9.000000000000000000e+00,-7.000000000000000000e+00,-1.000000000000000000e+00,1.000000000000000000e+00,-5.000000000000000000e+00,0.000000000000000000e+00,-2.000000000000000000e+00,1.000000000000000000e+00,3.619384765625000000e-01,1.740722656250000000e-01,-9.157104492187500000e-01,-1.458740234375000000e-02
7.000000000000000000e+00,8.000000000000000000e+00,-9.000000000000000000e+00,-2.000000000000000000e+00,1.000000000000000000e+00,3.000000000000000000e+00,2.000000000000000000e+00,0.000000000000000000e+00,3.619384765625000000e-01,1.740722656250000000e-01,-9.157104492187500000e-01,-1.458740234375000000e-02
1.500000000000000000e+01,1.500000000000000000e+01,1.400000000000000000e+01,0.000000000000000000e+00,-3.000000000000000000e+00,1.000000000000000000e+00,-5.000000000000000000e+00,-1.000000000000000000e+00,3.619384765625000000e-01,1.740722656250000000e-01,-9.157104492187500000e-01,-1.458740234375000000e-02
-4.300000000000000000e+01,-1.300000000000000000e+01,-2.300000000000000000e+01,1.000000000000000000e+00,-1.000000000000000000e+00,-5.000000000000000000e+00,-4.000000000000000000e+00,-4.000000000000000000e+00,3.619384765625000000e-01,1.734619140625000000e-01,-9.158325195312500000e-01,-1.489257812500000000e-02
6.000000000000000000e+00,-1.400000000000000000e+01,-2.000000000000000000e+01,-3.000000000000000000e+00,-7.000000000000000000e+00,-6.000000000000000000e+00,-1.000000000000000000e+00,-1.000000000000000000e+00,3.619384765625000000e-01,1.734619140625000000e-01,-9.158325195312500000e-01,-1.489257812500000000e-02
-5.000000000000000000e+00,-1.500000000000000000e+01,-3.000000000000000000e+00,0.000000000000000000e+00,1.000000000000000000e+00,-1.000000000000000000e+00,-1.000000000000000000e+00,-2.000000000000000000e+00,3.619384765625000000e-01,1.734619140625000000e-01,-9.158325195312500000e-01,-1.489257812500000000e-02
-6.000000000000000000e+00,-1.100000000000000000e+01,-5.000000000000000000e+00,-5.000000000000000000e+00,-5.000000000000000000e+00,-3.000000000000000000e+00,-5.000000000000000000e+00,-3.000000000000000000e+00,3.619384765625000000e-01,1.734619140625000000e-01,-9.158325195312500000e-01,-1.489257812500000000e-02
1.600000000000000000e+01,1.100000000000000000e+01,1.200000000000000000e+01,5.000000000000000000e+00,5.000000000000000000e+00,1.000000000000000000e+00,2.000000000000000000e+00,1.000000000000000000e+00,3.619995117187500000e-01,1.735229492187500000e-01,-9.157714843750000000e-01,-1.446533203125000000e-02
3.000000000000000000e+00,7.000000000000000000e+00,5.000000000000000000e+00,-4.000000000000000000e+00,-1.000000000000000000e+01,-2.000000000000000000e+00,-4.000000000000000000e+00,-2.000000000000000000e+00,3.619995117187500000e-01,1.735229492187500000e-01,-9.157714843750000000e-01,-1.446533203125000000e-02
-5.000000000000000000e+00,8.000000000000000000e+00,-2.000000000000000000e+00,8.000000000000000000e+00,1.500000000000000000e+01,3.000000000000000000e+00,4.000000000000000000e+00,1.000000000000000000e+00,3.619995117187500000e-01,1.735229492187500000e-01,-9.157714843750000000e-01,-1.446533203125000000e-02
0.000000000000000000e+00,-1.000000000000000000e+00,-6.000000000000000000e+00,1.000000000000000000e+00,3.000000000000000000e+00,2.000000000000000000e+00,2.000000000000000000e+00,1.000000000000000000e+00,3.619995117187500000e-01,1.735229492187500000e-01,-9.157714843750000000e-01,-1.446533203125000000e-02
2.500000000000000000e+01,8.000000000000000000e+00,-9.000000000000000000e+00,1.000000000000000000e+00,-1.000000000000000000e+00,-3.000000000000000000e+00,-2.000000000000000000e+00,1.000000000000000000e+00,3.619995117187500000e-01,1.744384765625000000e-01,-9.156494140625000000e-01,-1.348876953125000000e-02
-2.600000000000000000e+01,-7.000000000000000000e+00,2.000000000000000000e+01,1.000000000000000000e+00,-5.000000000000000000e+00,-3.000000000000000000e+00,-4.000000000000000000e+00,-3.000000000000000000e+00,3.619995117187500000e-01,1.744384765625000000e-01,-9.156494140625000000e-01,-1.348876953125000000e-02
-1.100000000000000000e+01,-1.600000000000000000e+01,-3.500000000000000000e+01,-1.400000000000000000e+01,-7.000000000000000000e+00,-1.000000000000000000e+00,0.000000000000000000e+00,-5.000000000000000000e+00,3.619995117187500000e-01,1.744384765625000000e-01,-9.156494140625000000e-01,-1.348876953125000000e-02
-5.000000000000000000e+00,-7.000000000000000000e+00,0.000000000000000000e+00,-2.000000000000000000e+00,-1.000000000000000000e+00,-1.000000000000000000e+00,-4.000000000000000000e+00,0.000000000000000000e+00,3.619995117187500000e-01,1.744384765625000000e-01,-9.156494140625000000e-01,-1.348876953125000000e-02
