-2.000000000000000000e+00,-6.000000000000000000e+00,7.000000000000000000e+00,-1.600000000000000000e+01,-1.700000000000000000e+01,-2.900000000000000000e+01,2.000000000000000000e+00,0.000000000000000000e+00,-2.943725585937500000e-01,2.766113281250000000e-01,6.845092773437500000e-01,6.068115234375000000e-01
3.000000000000000000e+00,0.000000000000000000e+00,-2.200000000000000000e+01,-2.000000000000000000e+00,1.400000000000000000e+01,2.400000000000000000e+01,9.000000000000000000e+00,6.000000000000000000e+00,-2.943725585937500000e-01,2.766113281250000000e-01,6.845092773437500000e-01,6.068115234375000000e-01
0.000000000000000000e+00,-5.000000000000000000e+00,1.300000000000000000e+01,5.000000000000000000e+00,-1.100000000000000000e+01,-2.900000000000000000e+01,-1.800000000000000000e+01,-1.000000000000000000e+00,-2.943725585937500000e-01,2.766113281250000000e-01,6.845092773437500000e-01,6.068115234375000000e-01
7.000000000000000000e+00,7.000000000000000000e+00,5.000000000000000000e+00,-7.000000000000000000e+00,5.000000000000000000e+00,3.000000000000000000e+01,0.000000000000000000e+00,-1.000000000000000000e+00,-2.943725585937500000e-01,2.766113281250000000e-01,6.845092773437500000e-01,6.068115234375000000e-01
-4.000000000000000000e+00,-9.000000000000000000e+00,-5.000000000000000000e+00,1.200000000000000000e+01,-5.000000000000000000e+00,-1.100000000000000000e+01,2.500000000000000000e+01,1.000000000000000000e+00,-2.957153320312500000e-01,2.789916992187500000e-01,6.843261718750000000e-01,6.052246093750000000e-01
-6.000000000000000000e+00,-5.000000000000000000e+00,-8.000000000000000000e+00,-1.500000000000000000e+01,0.000000000000000000e+00,-1.000000000000000000e+01,-1.700000000000000000e+01,0.000000000000000000e+00,-2.957153320312500000e-01,2.789916992187500000e-01,6.843261718750000000e-01,6.052246093750000000e-01
5.000000000000000000e+00,4.000000000000000000e+00,0.000000000000000000e+00,-2.000000000000000000e+00,3.000000000000000000e+00,1.100000000000000000e+01,-7.000000000000000000e+00,0.000000000000000000e+00,-2.957153320312500000e-01,2.789916992187500000e-01,6.843261718750000000e-01,6.052246093750000000e-01
-5.000000000000000000e+00,-1.000000000000000000e+00,2.000000000000000000e+01,7.000000000000000000e+00,1.000000000000000000e+00,-2.000000000000000000e+00,2.000000000000000000e+00,-2.000000000000000000e+00,-2.957153320312500000e-01,2.789916992187500000e-01,6.843261718750000000e-01,6.052246093750000000e-01
0.000000000000000000e+00,0.000000000000000000e+00,3.000000000000000000e+00,-9.000000000000000000e+00,-8.000000000000000000e+00,-2.300000000000000000e+01,-1.600000000000000000e+01,-2.000000000000000000e+00,-2.979125976562500000e-01,2.816772460937500000e-01,6.829833984375000000e-01,6.044311523437500000e-01
-8.000000000000000000e+00,-1.300000000000000000e+01,-4.000000000000000000e+00,-4.000000000000000000e+00,-3.000000000000000000e+00,1.300000000000000000e+01,1.100000000000000000e+01,-2.000000000000000000e+00,-2.979125976562500000e-01,2.816772460937500000e-01,6.829833984375000000e-01,6.044311523437500000e-01
-1.000000000000000000e+00,-1.000000000000000000e+01,-1.600000000000000000e+01,1.000000000000000000e+01,2.000000000000000000e+00,-1.900000000000000000e+01,-1.200000000000000000e+01,-5.000000000000000000e+00,-2.979125976562500000e-01,2.816772460937500000e-01,6.829833984375000000e-01,6.044311523437500000e-01
-5.000000000000000000e+00,4.000000000000000000e+00,-4.000000000000000000e+00,-2.000000000000000000e+01,1.000000000000000000e+00,2.500000000000000000e+01,4.500000000000000000e+01,-7.000000000000000000e+00,-2.979125976562500000e-01,2.816772460937500000e-01,6.829833984375000000e-01,6.044311523437500000e-01
1.100000000000000000e+01,3.100000000000000000e+01,3.500000000000000000e+01,9.000000000000000000e+00,1.000000000000000000e+00,-4.900000000000000000e+01,-2.000000000000000000e+01,8.000000000000000000e+00,-2.994384765625000000e-01,2.850952148437500000e-01,6.807250976562500000e-01,6.046142578125000000e-01
-8.000000000000000000e+00,-2.000000000000000000e+01,-3.600000000000000000e+01,-1.000000000000000000e+01,-1.200000000000000000e+01,-1.500000000000000000e+01,0.000000000000000000e+00,-9.000000000000000000e+00,-2.994384765625000000e-01,2.850952148437500000e-01,6.807250976562500000e-01,6.046142578125000000e-01
8.000000000000000000e+00,2.300000000000000000e+01,3.600000000000000000e+01,2.000000000000000000e+00,5.000000000000000000e+00,2.000000000000000000e+00,-1.600000000000000000e+01,0.000000000000000000e+00,-2.994384765625000000e-01,2.850952148437500000e-01,6.807250976562500000e-01,6.046142578125000000e-01
-1.000000000000000000e+00,-1.400000000000000000e+01,-1.500000000000000000e+01,1.900000000000000000e+01,6.000000000000000000e+00,-1.300000000000000000e+01,5.000000000000000000e+00,2.000000000000000000e+00,-2.994384765625000000e-01,2.850952148437500000e-01,6.807250976562500000e-01,6.046142578125000000e-01
1.000000000000000000e+00,3.000000000000000000e+00,-9.000000000000000000e+00,-8.000000000000000000e+00,-1.000000000000000000e+00,1.300000000000000000e+01,1.700000000000000000e+01,0.000000000000000000e+00,-2.999877929687500000e-01,2.884521484375000000e-01,6.790771484375000000e-01,6.046752929687500000e-01
1.000000000000000000e+00,-3.000000000000000000e+00,2.400000000000000000e+01,5.000000000000000000e+00,4.000000000000000000e+00,-2.000000000000000000e+00,-4.600000000000000000e+01,0.000000000000000000e+00,-2.999877929687500000e-01,2.884521484375000000e-01,6.790771484375000000e-01,6.046752929687500000e-01
-4.000000000000000000e+00,-1.000000000000000000e+01,-1.100000000000000000e+01,-3.000000000000000000e+00,-1.000000000000000000e+01,-1.700000000000000000e+01,5.000000000000000000e+00,1.000000000000000000e+00,-2.999877929687500000e-01,2.884521484375000000e-01,6.790771484375000000e-01,6.046752929687500000e-01
-2.000000000000000000e+00,5.000000000000000000e+00,-8.000000000000000000e+00,1.000000000000000000e+00,2.000000000000000000e+00,1.000000000000000000e+01,-6.000000000000000000e+00,-2.000000000000000000e+00,-2.999877929687500000e-01,2.884521484375000000e-01,6.790771484375000000e-01,6.046752929687500000e-01
0.000000000000000000e+00,-1.200000000000000000e+01,-1.700000000000000000e+01,-1.100000000000000000e+01,0.000000000000000000e+00,7.000000000000000000e+00,-7.000000000000000000e+00,-3.000000000000000000e+00,-3.018188476562500000e-01,2.893676757812500000e-01,6.788940429687500000e-01,6.035156250000000000e-01
1.700000000000000000e+01,2.400000000000000000e+01,1.000000000000000000e+01,2.000000000000000000e+00,-5.000000000000000000e+00,-1.200000000000000000e+01,5.000000000000000000e+00,1.000000000000000000e+00,-3.018188476562500000e-01,2.893676757812500000e-01,6.788940429687500000e-01,6.035156250000000000e-01
-6.000000000000000000e+00,-1.700000000000000000e+01,-1.000000000000000000e+00,-4.000000000000000000e+00,6.000000000000000000e+00,1.700000000000000000e+01,0.000000000000000000e+00,-3.000000000000000000e+00,-3.018188476562500000e-01,2.893676757812500000e-01,6.788940429687500000e-01,6.035156250000000000e-01
2.000000000000000000e+00,1.000000000000000000e+00,6.000000000000000000e+00,3.000000000000000000e+00,-1.000000000000000000e+00,-6.000000000000000000e+00,-1.100000000000000000e+01,5.000000000000000000e+00,-3.018188476562500000e-01,2.893676757812500000e-01,6.788940429687500000e-01,6.035156250000000000e-01
-1.500000000000000000e+01,-2.000000000000000000e+01,-4.000000000000000000e+00,5.000000000000000000e+00,4.000000000000000000e+00,1.200000000000000000e+01,-4.000000000000000000e+00,-1.000000000000000000e+01,-3.046875000000000000e-01,2.899169921875000000e-01,6.795654296875000000e-01,6.010131835937500000e-01
-7.000000000000000000e+00,-6.000000000000000000e+00,-1.900000000000000000e+01,-1.500000000000000000e+01,-7.000000000000000000e+00,-8.000000000000000000e+00,7.000000000000000000e+00,-4.000000000000000000e+00,-3.046875000000000000e-01,2.899169921875000000e-01,6.795654296875000000e-01,6.010131835937500000e-01
4.000000000000000000e+00,5.000000000000000000e+00,9.000000000000000000e+00,1.100000000000000000e+01,7.000000000000000000e+00,1.700000000000000000e+01,8.000000000000000000e+00,4.000000000000000000e+00,-3.046875000000000000e-01,2.899169921875000000e-01,6.795654296875000000e-01,6.010131835937500000e-01
4.000000000000000000e+00,-1.000000000000000000e+00,1.800000000000000000e+01,4.000000000000000000e+00,-8.000000000000000000e+00,-1.900000000000000000e+01,-1.600000000000000000e+01,2.000000000000000000e+00,-3.046875000000000000e-01,2.899169921875000000e-01,6.795654296875000000e-01,6.010131835937500000e-01
0.000000000000000000e+00,4.000000000000000000e+00,-5.600000000000000000e+01,-2.400000000000000000e+01,-5.000000000000000000e+00,-8.000000000000000000e+00,1.000000000000000000e+00,-2.000000000000000000e+00,-3.079833984375000000e-01,2.912597656250000000e-01,6.791992187500000000e-01,5.991210937500000000e-01
-7.000000000000000000e+00,-9.000000000000000000e+00,2.600000000000000000e+01,1.400000000000000000e+01,4.000000000000000000e+00,6.000000000000000000e+00,5.000000000000000000e+00,-3.000000000000000000e+00,-3.079833984375000000e-01,2.912597656250000000e-01,6.791992187500000000e-01,5.991210937500000000e-01
2.000000000000000000e+00,9.000000000000000000e+00,-2.100000000000000000e+01,-5.000000000000000000e+00,-2.000000000000000000e+00,-1.900000000000000000e+01,1.000000000000000000e+00,1.000000000000000000e+00,-3.079833984375000000e-01,2.912597656250000000e-01,6.791992187500000000e-01,5.991210937500000000e-01
2.000000000000000000e+00,0.000000000000000000e+00,-6.000000000000000000e+00,-1.100000000000000000e+01,-6.000000000000000000e+00,-1.100000000000000000e+01,-8.000000000000000000e+00,4.000000000000000000e+00,-3.079833984375000000e-01,2.912597656250000000e-01,6.791992187500000000e-01,5.991210937500000000e-01
-1.000000000000000000e+00,2.000000000000000000e+00,2.300000000000000000e+01,9.000000000000000000e+00,1.000000000000000000e+01,4.200000000000000000e+01,2.500000000000000000e+01,7.000000000000000000e+00,-3.097534179687500000e-01,2.926025390625000000e-01,6.786499023437500000e-01,5.981445312500000000e-01
-5.000000000000000000e+00,-7.000000000000000000e+00,-1.200000000000000000e+01,-4.000000000000000000e+00,0.000000000000000000e+00,2.000000000000000000e+00,-1.200000000000000000e+01,-1.000000000000000000e+00,-3.097534179687500000e-01,2.926025390625000000e-01,6.786499023437500000e-01,5.981445312500000000e-01
0.000000000000000000e+00,2.000000000000000000e+01,-1.000000000000000000e+00,-7.000000000000000000e+00,-9.000000000000000000e+00,-2.800000000000000000e+01,-3.100000000000000000e+01,-6.000000000000000000e+00,-3.097534179687500000e-01,2.926025390625000000e-01,6.786499023437500000e-01,5.981445312500000000e-01
0.000000000000000000e+00,-2.000000000000000000e+00,-5.000000000000000000e+00,1.000000000000000000e+00,2.000000000000000000e+00,-4.000000000000000000e+00,1.700000000000000000e+01,3.000000000000000000e+00,-3.097534179687500000e-01,2.926025390625000000e-01,6.786499023437500000e-01,5.981445312500000000e-01
-2.000000000000000000e+00,-2.400000000000000000e+01,2.000000000000000000e+01,-1.000000000000000000e+00,-1.000000000000000000e+00,-8.000000000000000000e+00,-2.100000000000000000e+01,-2.000000000000000000e+00,-3.111572265625000000e-01,2.932739257812500000e-01,6.784667968750000000e-01,5.972900390625000000e-01
-4.000000000000000000e+00,1.400000000000000000e+01,-3.600000000000000000e+01,1.000000000000000000e+00,-4.000000000000000000e+00,-9.000000000000000000e+00,2.000000000000000000e+00,-1.000000000000000000e+00,-3.111572265625000000e-01,2.932739257812500000e-01,6.784667968750000000e-01,5.972900390625000000e-01
5.000000000000000000e+00,-1.100000000000000000e+01,0.000000000000000000e+00,1.000000000000000000e+00,5.000000000000000000e+00,1.500000000000000000e+01,2.100000000000000000e+01,3.000000000000000000e+00,-3.111572265625000000e-01,2.932739257812500000e-01,6.784667968750000000e-01,5.972900390625000000e-01
-2.000000000000000000e+00,-5.000000000000000000e+00,-2.000000000000000000e+01,-1.000000000000000000e+01,-3.000000000000000000e+00,1.000000000000000000e+00,-1.800000000000000000e+01,-4.000000000000000000e+00,-3.111572265625000000e-01,2.932739257812500000e-01,6.784667968750000000e-01,5.972900390625000000e-01
-2.000000000000000000e+00,8.000000000000000000e+00,1.100000000000000000e+01,9.000000000000000000e+00,1.000000000000000000e+00,-1.000000000000000000e+00,7.000000000000000000e+00,-2.000000000000000000e+00,-3.137817382812500000e-01,2.917480468750000000e-01,6.776123046875000000e-01,5.977172851562500000e-01
-4.000000000000000000e+00,-5.000000000000000000e+00,2.000000000000000000e+00,1.000000000000000000e+00,3.000000000000000000e+00,4.000000000000000000e+00,8.000000000000000000e+00,3.000000000000000000e+00,-3.137817382812500000e-01,2.917480468750000000e-01,6.776123046875000000e-01,5.977172851562500000e-01
-3.000000000000000000e+00,-6.000000000000000000e+00,-1.200000000000000000e+01,-9.000000000000000000e+00,-5.000000000000000000e+00,-1.100000000000000000e+01,-1.300000000000000000e+01,-5.000000000000000000e+00,-3.137817382812500000e-01,2.917480468750000000e-01,6.776123046875000000e-01,5.977172851562500000e-01
1.000000000000000000e+00,2.000000000000000000e+00,-2.000000000000000000e+01,-1.900000000000000000e+01,-3.000000000000000000e+00,1.100000000000000000e+01,1.000000000000000000e+00,-3.000000000000000000e+00,-3.137817382812500000e-01,2.917480468750000000e-01,6.776123046875000000e-01,5.977172851562500000e-01
-3.000000000000000000e+00,-9.000000000000000000e+00,-4.000000000000000000e+00,1.400000000000000000e+01,1.000000000000000000e+00,1.000000000000000000e+00,4.000000000000000000e+00,-1.000000000000000000e+00,-3.137207031250000000e-01,2.921142578125000000e-01,6.770019531250000000e-01,5.982055664062500000e-01
-2.100000000000000000e+01,-9.000000000000000000e+00,-9.000000000000000000e+00,-9.000000000000000000e+00,-4.000000000000000000e+00,-1.200000000000000000e+01,8.000000000000000000e+00,-1.000000000000000000e+00,-3.137207031250000000e-01,2.921142578125000000e-01,6.770019531250000000e-01,5.982055664062500000e-01
1.100000000000000000e+01,7.000000000000000000e+00,4.000000000000000000e+00,9.000000000000000000e+00,2.000000000000000000e+00,1.900000000000000000e+01,1.200000000000000000e+01,0.000000000000000000e+00,-3.137207031250000000e-01,2.921142578125000000e-01,6.770019531250000000e-01,5.982055664062500000e-01
-3.000000000000000000e+00,-1.400000000000000000e+01,6.000000000000000000e+00,-8.000000000000000000e+00,2.000000000000000000e+00,0.000000000000000000e+00,-1.100000000000000000e+01,-3.000000000000000000e+00,-3.137207031250000000e-01,2.921142578125000000e-01,6.770019531250000000e-01,5.982055664062500000e-01
-1.000000000000000000e+00,0.000000000000000000e+00,-1.100000000000000000e+01,1.000000000000000000e+00,-2.000000000000000000e+00,-1.000000000000000000e+01,-8.000000000000000000e+00,-4.000000000000000000e+00,-3.129272460937500000e-01,2.935180664062500000e-01,6.772460937500000000e-01,5.976562500000000000e-01
5.000000000000000000e+00,9.000000000000000000e+00,1.600000000000000000e+01,-3.000000000000000000e+00,-4.000000000000000000e+00,3.000000000000000000e+00,-6.000000000000000000e+00,0.000000000000000000e+00,-3.129272460937500000e-01,2.935180664062500000e-01,6.772460937500000000e-01,5.976562500000000000e-01
-7.000000000000000000e+00,-1.000000000000000000e+00,2.000000000000000000e+00,-7.000000000000000000e+00,-3.000000000000000000e+00,8.000000000000000000e+00,2.200000000000000000e+01,2.000000000000000000e+00,-3.129272460937500000e-01,2.935180664062500000e-01,6.772460937500000000e-01,5.976562500000000000e-01
0.000000000000000000e+00,1.300000000000000000e+01,-4.000000000000000000e+00,1.500000000000000000e+01,-1.000000000000000000e+00,7.000000000000000000e+00,-1.600000000000000000e+01,-2.000000000000000000e+00,-3.129272460937500000e-01,2.935180664062500000e-01,6.772460937500000000e-01,5.976562500000000000e-01
-2.000000000000000000e+00,-1.000000000000000000e+00,-3.000000000000000000e+00,-1.200000000000000000e+01,-4.000000000000000000e+00,-1.500000000000000000e+01,-9.000000000000000000e+00,-3.000000000000000000e+00,-3.131103515625000000e-01,2.931518554687500000e-01,6.782836914062500000e-01,5.965576171875000000e-01
0.000000000000000000e+00,-1.600000000000000000e+01,7.000000000000000000e+00,-1.000000000000000000e+00,-6.000000000000000000e+00,4.000000000000000000e+00,9.000000000000000000e+00,0.000000000000000000e+00,-3.131103515625000000e-01,2.931518554687500000e-01,6.782836914062500000e-01,5.965576171875000000e-01
0.000000000000000000e+00,-2.000000000000000000e+00,0.000000000000000000e+00,4.000000000000000000e+00,0.000000000000000000e+00,-1.000000000000000000e+01,4.000000000000000000e+00,0.000000000000000000e+00,-3.131103515625000000e-01,2.931518554687500000e-01,6.782836914062500000e-01,5.965576171875000000e-01
2.000000000000000000e+00,-4.000000000000000000e+00,4.000000000000000000e+00,6.000000000000000000e+00,9.000000000000000000e+00,1.700000000000000000e+01,2.200000000000000000e+01,5.000000000000000000e+00,-3.131103515625000000e-01,2.931518554687500000e-01,6.782836914062500000e-01,5.965576171875000000e-01
-3.000000000000000000e+00,1.200000000000000000e+01,1.200000000000000000e+01,-4.000000000000000000e+00,-5.000000000000000000e+00,-1.000000000000000000e+01,0.000000000000000000e+00,0.000000000000000000e+00,-3.130493164062500000e-01,2.911987304687500000e-01,6.793823242187500000e-01,5.962524414062500000e-01
6.000000000000000000e+00,4.000000000000000000e+00,-1.200000000000000000e+01,3.000000000000000000e+00,3.000000000000000000e+00,4.000000000000000000e+00,-5.000000000000000000e+00,-2.000000000000000000e+00,-3.130493164062500000e-01,2.911987304687500000e-01,6.793823242187500000e-01,5.962524414062500000e-01
-2.000000000000000000e+00,4.000000000000000000e+00,1.600000000000000000e+01,1.400000000000000000e+01,-2.000000000000000000e+00,-9.000000000000000000e+00,-9.000000000000000000e+00,1.000000000000000000e+00,-3.130493164062500000e-01,2.911987304687500000e-01,6.793823242187500000e-01,5.962524414062500000e-01
9.000000000000000000e+00,-1.800000000000000000e+01,-1.800000000000000000e+01,-1.500000000000000000e+01,-6.000000000000000000e+00,6.000000000000000000e+00,0.000000000000000000e+00,-1.000000000000000000e+00,-3.130493164062500000e-01,2.911987304687500000e-01,6.793823242187500000e-01,5.962524414062500000e-01
2.000000000000000000e+00,-2.200000000000000000e+01,7.000000000000000000e+00,1.200000000000000000e+01,3.000000000000000000e+00,-4.000000000000000000e+00,-1.200000000000000000e+01,-2.000000000000000000e+00,-3.134155273437500000e-01,2.873535156250000000e-01,6.802368164062500000e-01,5.969848632812500000e-01
1.300000000000000000e+01,3.700000000000000000e+01,1.400000000000000000e+01,-1.000000000000000000e+00,0.000000000000000000e+00,-2.000000000000000000e+00,2.000000000000000000e+00,1.000000000000000000e+00,-3.134155273437500000e-01,2.873535156250000000e-01,6.802368164062500000e-01,5.969848632812500000e-01
-4.000000000000000000e+00,-3.600000000000000000e+01,-3.300000000000000000e+01,-2.200000000000000000e+01,-1.200000000000000000e+01,0.000000000000000000e+00,-1.100000000000000000e+01,-3.000000000000000000e+00,-3.134155273437500000e-01,2.873535156250000000e-01,6.802368164062500000e-01,5.969848632812500000e-01
-9.000000000000000000e+00,1.000000000000000000e+00,5.000000000000000000e+00,7.000000000000000000e+00,-2.000000000000000000e+00,-1.100000000000000000e+01,4.000000000000000000e+00,2.000000000000000000e+00,-3.134155273437500000e-01,2.873535156250000000e-01,6.802368164062500000e-01,5.969848632812500000e-01
-4.000000000000000000e+00,-1.000000000000000000e+01,1.000000000000000000e+01,3.000000000000000000e+00,1.000000000000000000e+00,8.000000000000000000e+00,3.000000000000000000e+00,-1.000000000000000000e+00,-3.139038085937500000e-01,2.833251953125000000e-01,6.806640625000000000e-01,5.981445312500000000e-01
3.000000000000000000e+00,9.000000000000000000e+00,1.400000000000000000e+01,7.000000000000000000e+00,-1.000000000000000000e+00,-1.000000000000000000e+00,-2.000000000000000000e+00,-2.000000000000000000e+00,-3.139038085937500000e-01,2.833251953125000000e-01,6.806640625000000000e-01,5.981445312500000000e-01
-6.000000000000000000e+00,-1.000000000000000000e+00,-6.000000000000000000e+01,-4.500000000000000000e+01,-5.000000000000000000e+00,6.000000000000000000e+00,-3.000000000000000000e+00,-4.000000000000000000e+00,-3.139038085937500000e-01,2.833251953125000000e-01,6.806640625000000000e-01,5.981445312500000000e-01
-1.300000000000000000e+01,-4.000000000000000000e+00,-1.800000000000000000e+01,2.300000000000000000e+01,-2.000000000000000000e+00,-5.000000000000000000e+00,-9.000000000000000000e+00,-4.000000000000000000e+00,-3.139038085937500000e-01,2.833251953125000000e-01,6.806640625000000000e-01,5.981445312500000000e-01
0.000000000000000000e+00,-1.400000000000000000e+01,2.500000000000000000e+01,6.000000000000000000e+00,5.000000000000000000e+00,1.300000000000000000e+01,7.000000000000000000e+00,0.000000000000000000e+00,-3.132324218750000000e-01,2.820434570312500000e-01,6.804199218750000000e-01,5.994262695312500000e-01
-1.000000000000000000e+00,4.000000000000000000e+00,-8.000000000000000000e+00,-3.000000000000000000e+00,-3.000000000000000000e+00,-7.000000000000000000e+00,1.000000000000000000e+00,1.000000000000000000e+00,-3.132324218750000000e-01,2.820434570312500000e-01,6.804199218750000000e-01,5.994262695312500000e-01
1.000000000000000000e+01,3.700000000000000000e+01,2.800000000000000000e+01,2.600000000000000000e+01,1.600000000000000000e+01,4.000000000000000000e+00,-3.000000000000000000e+00,1.000000000000000000e+00,-3.132324218750000000e-01,2.820434570312500000e-01,6.804199218750000000e-01,5.994262695312500000e-01
0.000000000000000000e+00,-1.500000000000000000e+01,8.000000000000000000e+00,-2.100000000000000000e+01,-8.000000000000000000e+00,-5.000000000000000000e+00,-1.000000000000000000e+00,3.000000000000000000e+00,-3.132324218750000000e-01,2.820434570312500000e-01,6.804199218750000000e-01,5.994262695312500000e-01
0.000000000000000000e+00,2.200000000000000000e+01,-1.400000000000000000e+01,6.000000000000000000e+00,7.000000000000000000e+00,-1.000000000000000000e+00,2.000000000000000000e+00,0.000000000000000000e+00,-3.120117187500000000e-01,2.816772460937500000e-01,6.793823242187500000e-01,6.013793945312500000e-01
-2.000000000000000000e+00,-1.600000000000000000e+01,7.000000000000000000e+00,-2.000000000000000000e+00,-1.000000000000000000e+00,-4.000000000000000000e+00,-2.000000000000000000e+00,-4.000000000000000000e+00,-3.120117187500000000e-01,2.816772460937500000e-01,6.793823242187500000e-01,6.013793945312500000e-01
-1.100000000000000000e+01,-8.000000000000000000e+00,5.000000000000000000e+00,1.000000000000000000e+00,-4.000000000000000000e+00,-1.000000000000000000e+01,8.000000000000000000e+00,0.000000000000000000e+00,-3.120117187500000000e-01,2.816772460937500000e-01,6.793823242187500000e-01,6.013793945312500000e-01
9.000000000000000000e+00,5.000000000000000000e+00,2.000000000000000000e+00,5.000000000000000000e+00,1.000000000000000000e+00,-1.300000000000000000e+01,-3.400000000000000000e+01,-1.000000000000000000e+00,-3.120117187500000000e-01,2.816772460937500000e-01,6.793823242187500000e-01,6.013793945312500000e-01
1.800000000000000000e+01,6.000000000000000000e+00,6.000000000000000000e+00,2.000000000000000000e+00,9.000000000000000000e+00,6.400000000000000000e+01,5.200000000000000000e+01,9.000000000000000000e+00,-3.107910156250000000e-01,2.802734375000000000e-01,6.786499023437500000e-01,6.035156250000000000e-01
-2.000000000000000000e+00,-6.000000000000000000e+00,-3.000000000000000000e+00,-1.300000000000000000e+01,-1.200000000000000000e+01,-2.400000000000000000e+01,-2.300000000000000000e+01,-3.000000000000000000e+00,-3.107910156250000000e-01,2.802734375000000000e-01,6.786499023437500000e-01,6.035156250000000000e-01
-3.000000000000000000e+00,-9.000000000000000000e+00,2.000000000000000000e+00,-4.000000000000000000e+00,-1.000000000000000000e+00,2.200000000000000000e+01,-5.000000000000000000e+00,0.000000000000000000e+00,-3.107910156250000000e-01,2.802734375000000000e-01,6.786499023437500000e-01,6.035156250000000000e-01
-9.000000000000000000e+00,5.000000000000000000e+00,4.000000000000000000e+00,-2.100000000000000000e+01,-1.100000000000000000e+01,-2.300000000000000000e+01,-1.100000000000000000e+01,-7.000000000000000000e+00,-3.107910156250000000e-01,2.802734375000000000e-01,6.786499023437500000e-01,6.035156250000000000e-01
-8.000000000000000000e+00,6.000000000000000000e+00,-1.400000000000000000e+01,1.200000000000000000e+01,-5.000000000000000000e+00,-2.700000000000000000e+01,-9.000000000000000000e+00,1.000000000000000000e+00,-3.105468750000000000e-01,2.779541015625000000e-01,6.784057617187500000e-01,6.049804687500000000e-01
1.100000000000000000e+01,5.000000000000000000e+00,-1.700000000000000000e+01,4.000000000000000000e+00,1.300000000000000000e+01,4.300000000000000000e+01,2.100000000000000000e+01,7.000000000000000000e+00,-3.105468750000000000e-01,2.779541015625000000e-01,6.784057617187500000e-01,6.049804687500000000e-01
9.000000000000000000e+00,-3.000000000000000000e+00,1.700000000000000000e+01,7.000000000000000000e+00,-4.000000000000000000e+00,-7.000000000000000000e+00,-1.000000000000000000e+00,0.000000000000000000e+00,-3.105468750000000000e-01,2.779541015625000000e-01,6.784057617187500000e-01,6.049804687500000000e-01
2.000000000000000000e+00,-1.000000000000000000e+00,-9.000000000000000000e+00,-1.000000000000000000e+00,0.000000000000000000e+00,-8.000000000000000000e+00,-4.000000000000000000e+00,-5.000000000000000000e+00,-3.105468750000000000e-01,2.779541015625000000e-01,6.784057617187500000e-01,6.049804687500000000e-01
-1.400000000000000000e+01,5.000000000000000000e+00,0.000000000000000000e+00,-1.100000000000000000e+01,-2.000000000000000000e+00,-7.000000000000000000e+00,-1.400000000000000000e+01,-2.000000000000000000e+00,-3.133544921875000000e-01,2.760620117187500000e-01,6.773681640625000000e-01,6.055908203125000000e-01
-5.000000000000000000e+00,-1.400000000000000000e+01,0.000000000000000000e+00,1.000000000000000000e+00,-4.000000000000000000e+00,-2.000000000000000000e+00,4.000000000000000000e+00,-3.000000000000000000e+00,-3.133544921875000000e-01,2.760620117187500000e-01,6.773681640625000000e-01,6.055908203125000000e-01
0.000000000000000000e+00,1.500000000000000000e+01,-5.000000000000000000e+00,3.000000000000000000e+00,0.000000000000000000e+00,-2.000000000000000000e+00,-7.000000000000000000e+00,-1.000000000000000000e+00,-3.133544921875000000e-01,2.760620117187500000e-01,6.773681640625000000e-01,6.055908203125000000e-01
7.000000000000000000e+00,-7.000000000000000000e+00,-3.000000000000000000e+00,-6.000000000000000000e+00,3.000000000000000000e+00,1.200000000000000000e+01,1.400000000000000000e+01,3.000000000000000000e+00,-3.133544921875000000e-01,2.760620117187500000e-01,6.773681640625000000e-01,6.055908203125000000e-01
-1.000000000000000000e+01,-8.000000000000000000e+00,-2.000000000000000000e+01,-2.000000000000000000e+00,-5.000000000000000000e+00,-1.400000000000000000e+01,1.000000000000000000e+00,-4.000000000000000000e+00,-3.143310546875000000e-01,2.789916992187500000e-01,6.757812500000000000e-01,6.054687500000000000e-01
-4.000000000000000000e+00,3.000000000000000000e+00,2.900000000000000000e+01,2.000000000000000000e+00,2.000000000000000000e+00,0.000000000000000000e+00,-1.100000000000000000e+01,-1.000000000000000000e+00,-3.143310546875000000e-01,2.789916992187500000e-01,6.757812500000000000e-01,6.054687500000000000e-01
5.000000000000000000e+00,-8.000000000000000000e+00,-1.900000000000000000e+01,-1.300000000000000000e+01,-1.000000000000000000e+00,5.000000000000000000e+00,-4.000000000000000000e+00,0.000000000000000000e+00,-3.143310546875000000e-01,2.789916992187500000e-01,6.757812500000000000e-01,6.054687500000000000e-01
-4.000000000000000000e+00,0.000000000000000000e+00,-4.000000000000000000e+00,-3.000000000000000000e+00,2.000000000000000000e+00,1.100000000000000000e+01,1.800000000000000000e+01,-1.000000000000000000e+00,-3.143310546875000000e-01,2.789916992187500000e-01,6.757812500000000000e-01,6.054687500000000000e-01
-1.000000000000000000e+00,1.300000000000000000e+01,8.000000000000000000e+00,8.000000000000000000e+00,-6.000000000000000000e+00,-2.700000000000000000e+01,-3.300000000000000000e+01,-7.000000000000000000e+00,-3.159790039062500000e-01,2.824707031250000000e-01,6.752319335937500000e-01,6.036376953125000000e-01
-3.000000000000000000e+00,-1.400000000000000000e+01,-1.800000000000000000e+01,-8.000000000000000000e+00,4.000000000000000000e+00,-1.000000000000000000e+01,7.000000000000000000e+00,3.000000000000000000e+00,-3.159790039062500000e-01,2.824707031250000000e-01,6.752319335937500000e-01,6.036376953125000000e-01
5.000000000000000000e+00,7.000000000000000000e+00,3.600000000000000000e+01,1.200000000000000000e+01,1.100000000000000000e+01,5.800000000000000000e+01,1.100000000000000000e+01,1.000000000000000000e+00,-3.159790039062500000e-01,2.824707031250000000e-01,6.752319335937500000e-01,6.036376953125000000e-01
-1.000000000000000000e+01,5.000000000000000000e+00,-7.000000000000000000e+00,1.000000000000000000e+00,-6.000000000000000000e+00,-2.700000000000000000e+01,5.000000000000000000e+00,-2.000000000000000000e+00,-3.159790039062500000e-01,2.824707031250000000e-01,6.752319335937500000e-01,6.036376953125000000e-01
1.700000000000000000e+01,1.000000000000000000e+00,-1.200000000000000000e+01,-1.200000000000000000e+01,-1.000000000000000000e+00,2.400000000000000000e+01,3.000000000000000000e+00,2.000000000000000000e+00,-3.198852539062500000e-01,2.843017578125000000e-01,6.750488281250000000e-01,6.008911132812500000e-01
5.000000000000000000e+00,4.000000000000000000e+00,1.900000000000000000e+01,1.000000000000000000e+00,-5.000000000000000000e+00,-7.100000000000000000e+01,-5.200000000000000000e+01,-6.000000000000000000e+00,-3.198852539062500000e-01,2.843017578125000000e-01,6.750488281250000000e-01,6.008911132812500000e-01
-2.000000000000000000e+00,-3.000000000000000000e+00,-1.500000000000000000e+01,-1.100000000000000000e+01,2.000000000000000000e+00,4.300000000000000000e+01,2.600000000000000000e+01,0.000000000000000000e+00,-3.198852539062500000e-01,2.843017578125000000e-01,6.750488281250000000e-01,6.008911132812500000e-01
-1.300000000000000000e+01,-1.000000000000000000e+00,3.000000000000000000e+00,1.000000000000000000e+01,-7.000000000000000000e+00,-2.000000000000000000e+00,2.000000000000000000e+00,-3.000000000000000000e+00,-3.198852539062500000e-01,2.843017578125000000e-01,6.750488281250000000e-01,6.008911132812500000e-01
3.000000000000000000e+00,-7.000000000000000000e+00,1.500000000000000000e+01,1.300000000000000000e+01,-2.000000000000000000e+00,-2.600000000000000000e+01,-6.000000000000000000e+00,-3.000000000000000000e+00,-3.237304687500000000e-01,2.869873046875000000e-01,6.739501953125000000e-01,5.987548828125000000e-01
-2.000000000000000000e+00,0.000000000000000000e+00,-1.800000000000000000e+01,-1.900000000000000000e+01,-4.000000000000000000e+00,2.200000000000000000e+01,1.000000000000000000e+01,1.000000000000000000e+00,-3.237304687500000000e-01,2.869873046875000000e-01,6.739501953125000000e-01,5.987548828125000000e-01
-1.000000000000000000e+00,-4.000000000000000000e+00,6.000000000000000000e+00,1.000000000000000000e+01,0.000000000000000000e+00,-2.900000000000000000e+01,-1.300000000000000000e+01,-1.000000000000000000e+00,-3.237304687500000000e-01,2.869873046875000000e-01,6.739501953125000000e-01,5.987548828125000000e-01
-2.000000000000000000e+00,-5.000000000000000000e+00,0.000000000000000000e+00,-8.000000000000000000e+00,-5.000000000000000000e+00,2.000000000000000000e+00,-7.000000000000000000e+00,-5.000000000000000000e+00,-3.237304687500000000e-01,2.869873046875000000e-01,6.739501953125000000e-01,5.987548828125000000e-01
-1.300000000000000000e+01,3.000000000000000000e+00,1.000000000000000000e+00,-9.000000000000000000e+00,-3.000000000000000000e+00,-7.000000000000000000e+00,5.000000000000000000e+00,-1.000000000000000000e+00,-3.265991210937500000e-01,2.918701171875000000e-01,6.715087890625000000e-01,5.976562500000000000e-01
1.000000000000000000e+01,-1.000000000000000000e+00,1.800000000000000000e+01,1.600000000000000000e+01,4.000000000000000000e+00,1.700000000000000000e+01,8.000000000000000000e+00,-2.000000000000000000e+00,-3.265991210937500000e-01,2.918701171875000000e-01,6.715087890625000000e-01,5.976562500000000000e-01
-3.000000000000000000e+00,-2.000000000000000000e+01,-6.400000000000000000e+01,-1.400000000000000000e+01,-1.000000000000000000e+01,-1.900000000000000000e+01,-8.000000000000000000e+00,-8.000000000000000000e+00,-3.265991210937500000e-01,2.918701171875000000e-01,6.715087890625000000e-01,5.976562500000000000e-01
6.000000000000000000e+00,7.000000000000000000e+00,1.900000000000000000e+01,1.000000000000000000e+00,2.000000000000000000e+00,7.000000000000000000e+00,0.000000000000000000e+00,4.000000000000000000e+00,-3.265991210937500000e-01,2.918701171875000000e-01,6.715087890625000000e-01,5.976562500000000000e-01
-6.000000000000000000e+00,-4.000000000000000000e+00,-2.200000000000000000e+01,-6.000000000000000000e+00,-1.000000000000000000e+00,-5.000000000000000000e+00,-8.000000000000000000e+00,-6.000000000000000000e+00,-3.273315429687500000e-01,2.998046875000000000e-01,6.677246093750000000e-01,5.974731445312500000e-01
-1.100000000000000000e+01,4.000000000000000000e+00,6.000000000000000000e+00,-2.000000000000000000e+00,-1.000000000000000000e+00,1.100000000000000000e+01,1.400000000000000000e+01,6.000000000000000000e+00,-3.273315429687500000e-01,2.998046875000000000e-01,6.677246093750000000e-01,5.974731445312500000e-01
1.000000000000000000e+00,2.000000000000000000e+00,2.800000000000000000e+01,-4.000000000000000000e+00,-2.000000000000000000e+00,-6.000000000000000000e+00,2.000000000000000000e+00,-2.000000000000000000e+00,-3.273315429687500000e-01,2.998046875000000000e-01,6.677246093750000000e-01,5.974731445312500000e-01
0.000000000000000000e+00,-4.000000000000000000e+00,-1.600000000000000000e+01,0.000000000000000000e+00,-5.000000000000000000e+00,-3.400000000000000000e+01,-2.300000000000000000e+01,-6.000000000000000000e+00,-3.273315429687500000e-01,2.998046875000000000e-01,6.677246093750000000e-01,5.974731445312500000e-01
0.000000000000000000e+00,0.000000000000000000e+00,-8.000000000000000000e+00,-3.000000000000000000e+00,7.000000000000000000e+00,4.000000000000000000e+01,3.300000000000000000e+01,3.000000000000000000e+00,-3.270263671875000000e-01,3.079223632812500000e-01,6.652221679687500000e-01,5.963745117187500000e-01
-5.000000000000000000e+00,-1.300000000000000000e+01,-7.000000000000000000e+00,2.000000000000000000e+00,0.000000000000000000e+00,7.000000000000000000e+00,7.000000000000000000e+00,-4.000000000000000000e+00,-3.270263671875000000e-01,3.079223632812500000e-01,6.652221679687500000e-01,5.963745117187500000e-01
-6.000000000000000000e+00,-8.000000000000000000e+00,1.800000000000000000e+01,-5.000000000000000000e+00,-6.000000000000000000e+00,-1.800000000000000000e+01,-1.500000000000000000e+01,-1.000000000000000000e+00,-3.270263671875000000e-01,3.079223632812500000e-01,6.652221679687500000e-01,5.963745117187500000e-01
0.000000000000000000e+00,1.000000000000000000e+00,-5.000000000000000000e+00,0.000000000000000000e+00,1.000000000000000000e+00,8.000000000000000000e+00,4.000000000000000000e+00,1.000000000000000000e+00,-3.270263671875000000e-01,3.079223632812500000e-01,6.652221679687500000e-01,5.963745117187500000e-01
2.000000000000000000e+00,1.000000000000000000e+01,8.000000000000000000e+00,4.000000000000000000e+00,-4.000000000000000000e+00,-2.100000000000000000e+01,-9.000000000000000000e+00,0.000000000000000000e+00,-3.275756835937500000e-01,3.128662109375000000e-01,6.652221679687500000e-01,5.935058593750000000e-01
0.000000000000000000e+00,2.000000000000000000e+00,-1.600000000000000000e+01,-6.000000000000000000e+00,0.000000000000000000e+00,1.100000000000000000e+01,5.000000000000000000e+00,-4.000000000000000000e+00,-3.275756835937500000e-01,3.128662109375000000e-01,6.652221679687500000e-01,5.935058593750000000e-01
-8.000000000000000000e+00,-1.100000000000000000e+01,2.000000000000000000e+00,8.000000000000000000e+00,-1.000000000000000000e+00,5.000000000000000000e+00,1.000000000000000000e+01,0.000000000000000000e+00,-3.275756835937500000e-01,3.128662109375000000e-01,6.652221679687500000e-01,5.935058593750000000e-01
-1.400000000000000000e+01,6.000000000000000000e+00,1.100000000000000000e+01,-5.000000000000000000e+00,0.000000000000000000e+00,-2.000000000000000000e+00,-5.000000000000000000e+00,1.000000000000000000e+00,-3.275756835937500000e-01,3.128662109375000000e-01,6.652221679687500000e-01,5.935058593750000000e-01
1.200000000000000000e+01,-9.000000000000000000e+00,-1.100000000000000000e+01,-8.000000000000000000e+00,-3.000000000000000000e+00,1.000000000000000000e+00,-5.000000000000000000e+00,1.000000000000000000e+00,-3.289794921875000000e-01,3.147583007812500000e-01,6.665649414062500000e-01,5.901489257812500000e-01
-8.000000000000000000e+00,-1.000000000000000000e+01,8.000000000000000000e+00,4.000000000000000000e+00,-1.000000000000000000e+00,-3.000000000000000000e+00,-1.000000000000000000e+00,-3.000000000000000000e+00,-3.289794921875000000e-01,3.147583007812500000e-01,6.665649414062500000e-01,5.901489257812500000e-01
4.000000000000000000e+00,6.000000000000000000e+00,1.000000000000000000e+00,5.000000000000000000e+00,2.000000000000000000e+00,-1.000000000000000000e+01,-1.100000000000000000e+01,-4.000000000000000000e+00,-3.289794921875000000e-01,3.147583007812500000e-01,6.665649414062500000e-01,5.901489257812500000e-01
6.000000000000000000e+00,-4.000000000000000000e+00,-1.000000000000000000e+01,-5.000000000000000000e+00,3.000000000000000000e+00,1.200000000000000000e+01,6.000000000000000000e+00,2.000000000000000000e+00,-3.289794921875000000e-01,3.147583007812500000e-01,6.665649414062500000e-01,5.901489257812500000e-01
7.000000000000000000e+00,5.000000000000000000e+00,1.000000000000000000e+00,-1.100000000000000000e+01,-5.000000000000000000e+00,-1.000000000000000000e+01,4.000000000000000000e+00,4.000000000000000000e+00,-3.295288085937500000e-01,3.160400390625000000e-01,6.685791015625000000e-01,5.869140625000000000e-01
-5.000000000000000000e+00,-1.500000000000000000e+01,5.000000000000000000e+00,1.000000000000000000e+01,-2.000000000000000000e+00,8.000000000000000000e+00,2.000000000000000000e+00,2.000000000000000000e+00,-3.295288085937500000e-01,3.160400390625000000e-01,6.685791015625000000e-01,5.869140625000000000e-01
-2.000000000000000000e+00,4.400000000000000000e+01,-6.000000000000000000e+00,-7.000000000000000000e+00,3.000000000000000000e+00,3.000000000000000000e+00,0.000000000000000000e+00,-7.000000000000000000e+00,-3.295288085937500000e-01,3.160400390625000000e-01,6.685791015625000000e-01,5.869140625000000000e-01
-8.000000000000000000e+00,7.000000000000000000e+00,-8.000000000000000000e+00,1.000000000000000000e+01,6.000000000000000000e+00,2.000000000000000000e+01,2.700000000000000000e+01,6.000000000000000000e+00,-3.295288085937500000e-01,3.160400390625000000e-01,6.685791015625000000e-01,5.869140625000000000e-01
-1.300000000000000000e+01,-2.900000000000000000e+01,-2.000000000000000000e+00,-8.000000000000000000e+00,1.000000000000000000e+00,1.800000000000000000e+01,-1.200000000000000000e+01,-8.000000000000000000e+00,-3.286743164062500000e-01,3.181152343750000000e-01,6.702270507812500000e-01,5.844116210937500000e-01
-4.000000000000000000e+00,4.000000000000000000e+00,-3.300000000000000000e+01,-2.300000000000000000e+01,-8.000000000000000000e+00,-1.500000000000000000e+01,-3.000000000000000000e+00,-7.000000000000000000e+00,-3.286743164062500000e-01,3.181152343750000000e-01,6.702270507812500000e-01,5.844116210937500000e-01
-2.000000000000000000e+00,-1.300000000000000000e+01,2.100000000000000000e+01,1.200000000000000000e+01,-1.000000000000000000e+00,-1.600000000000000000e+01,5.000000000000000000e+00,1.000000000000000000e+00,-3.286743164062500000e-01,3.181152343750000000e-01,6.702270507812500000e-01,5.844116210937500000e-01
1.000000000000000000e+01,2.000000000000000000e+00,-1.300000000000000000e+01,-1.100000000000000000e+01,-3.000000000000000000e+00,-4.000000000000000000e+00,-1.200000000000000000e+01,-1.000000000000000000e+00,-3.286743164062500000e-01,3.181152343750000000e-01,6.702270507812500000e-01,5.844116210937500000e-01
-5.000000000000000000e+00,9.000000000000000000e+00,-1.200000000000000000e+01,1.400000000000000000e+01,-3.000000000000000000e+00,-9.000000000000000000e+00,-1.000000000000000000e+01,-5.000000000000000000e+00,-3.270874023437500000e-01,3.201293945312500000e-01,6.710815429687500000e-01,5.831298828125000000e-01
-5.000000000000000000e+00,-1.700000000000000000e+01,-3.100000000000000000e+01,-7.000000000000000000e+00,1.000000000000000000e+00,1.300000000000000000e+01,1.100000000000000000e+01,4.000000000000000000e+00,-3.270874023437500000e-01,3.201293945312500000e-01,6.710815429687500000e-01,5.831298828125000000e-01
-8.000000000000000000e+00,-3.000000000000000000e+00,1.800000000000000000e+01,6.000000000000000000e+00,-4.000000000000000000e+00,-9.000000000000000000e+00,-5.000000000000000000e+00,-4.000000000000000000e+00,-3.270874023437500000e-01,3.201293945312500000e-01,6.710815429687500000e-01,5.831298828125000000e-01
4.000000000000000000e+00,1.000000000000000000e+00,-1.000000000000000000e+00,-1.900000000000000000e+01,-6.000000000000000000e+00,-1.300000000000000000e+01,-1.000000000000000000e+01,-1.000000000000000000e+00,-3.270874023437500000e-01,3.201293945312500000e-01,6.710815429687500000e-01,5.831298828125000000e-01
-1.000000000000000000e+00,-7.000000000000000000e+00,9.000000000000000000e+00,-1.000000000000000000e+00,-2.000000000000000000e+00,-5.000000000000000000e+00,-8.000000000000000000e+00,1.000000000000000000e+00,-3.255615234375000000e-01,3.211669921875000000e-01,6.721801757812500000e-01,5.822143554687500000e-01
0.000000000000000000e+00,8.000000000000000000e+00,7.000000000000000000e+00,8.000000000000000000e+00,0.000000000000000000e+00,-6.000000000000000000e+00,-2.000000000000000000e+00,-1.000000000000000000e+00,-3.255615234375000000e-01,3.211669921875000000e-01,6.721801757812500000e-01,5.822143554687500000e-01
-2.000000000000000000e+00,-5.000000000000000000e+00,-1.200000000000000000e+01,-6.000000000000000000e+00,-2.000000000000000000e+00,-1.100000000000000000e+01,-1.600000000000000000e+01,0.000000000000000000e+00,-3.255615234375000000e-01,3.211669921875000000e-01,6.721801757812500000e-01,5.822143554687500000e-01
6.000000000000000000e+00,0.000000000000000000e+00,8.000000000000000000e+00,3.000000000000000000e+00,1.000000000000000000e+00,8.000000000000000000e+00,0.000000000000000000e+00,-2.000000000000000000e+00,-3.255615234375000000e-01,3.211669921875000000e-01,6.721801757812500000e-01,5.822143554687500000e-01
-5.000000000000000000e+00,-5.000000000000000000e+00,1.100000000000000000e+01,3.000000000000000000e+00,-2.000000000000000000e+00,2.000000000000000000e+00,4.000000000000000000e+00,-1.000000000000000000e+00,-3.240356445312500000e-01,3.214721679687500000e-01,6.739501953125000000e-01,5.808105468750000000e-01
0.000000000000000000e+00,2.400000000000000000e+01,8.000000000000000000e+00,4.000000000000000000e+00,-1.000000000000000000e+00,2.000000000000000000e+00,1.000000000000000000e+00,0.000000000000000000e+00,-3.240356445312500000e-01,3.214721679687500000e-01,6.739501953125000000e-01,5.808105468750000000e-01
1.000000000000000000e+00,-1.800000000000000000e+01,-1.900000000000000000e+01,-1.000000000000000000e+01,-8.000000000000000000e+00,-3.500000000000000000e+01,-1.000000000000000000e+01,1.000000000000000000e+00,-3.229370117187500000e-01,3.217163085937500000e-01,6.758422851562500000e-01,5.791625976562500000e-01
-2.200000000000000000e+01,-8.000000000000000000e+00,8.000000000000000000e+00,1.200000000000000000e+01,1.500000000000000000e+01,7.500000000000000000e+01,1.400000000000000000e+01,-1.000000000000000000e+00,-3.229370117187500000e-01,3.217163085937500000e-01,6.758422851562500000e-01,5.791625976562500000e-01
5.000000000000000000e+00,1.000000000000000000e+00,-1.200000000000000000e+01,-1.500000000000000000e+01,-5.000000000000000000e+00,-2.000000000000000000e+00,7.000000000000000000e+00,-4.000000000000000000e+00,-3.229370117187500000e-01,3.217163085937500000e-01,6.758422851562500000e-01,5.791625976562500000e-01
-5.000000000000000000e+00,4.000000000000000000e+00,1.000000000000000000e+01,5.000000000000000000e+00,-7.000000000000000000e+00,-4.500000000000000000e+01,1.000000000000000000e+00,0.000000000000000000e+00,-3.229370117187500000e-01,3.217163085937500000e-01,6.758422851562500000e-01,5.791625976562500000e-01
0.000000000000000000e+00,4.000000000000000000e+00,-2.000000000000000000e+00,6.000000000000000000e+00,7.000000000000000000e+00,4.400000000000000000e+01,-7.000000000000000000e+00,0.000000000000000000e+00,-3.226318359375000000e-01,3.213500976562500000e-01,6.779174804687500000e-01,5.770263671875000000e-01
2.000000000000000000e+00,-1.300000000000000000e+01,6.000000000000000000e+00,-3.000000000000000000e+00,-6.000000000000000000e+00,-3.100000000000000000e+01,-2.200000000000000000e+01,-5.000000000000000000e+00,-3.226318359375000000e-01,3.213500976562500000e-01,6.779174804687500000e-01,5.770263671875000000e-01
-3.000000000000000000e+00,6.000000000000000000e+00,-1.200000000000000000e+01,-6.000000000000000000e+00,-1.000000000000000000e+00,0.000000000000000000e+00,0.000000000000000000e+00,-2.000000000000000000e+00,-3.226318359375000000e-01,3.213500976562500000e-01,6.779174804687500000e-01,5.770263671875000000e-01
-6.000000000000000000e+00,-8.000000000000000000e+00,1.500000000000000000e+01,1.000000000000000000e+00,-1.000000000000000000e+00,5.000000000000000000e+00,0.000000000000000000e+00,-2.000000000000000000e+00,-3.226318359375000000e-01,3.213500976562500000e-01,6.779174804687500000e-01,5.770263671875000000e-01
5.000000000000000000e+00,1.300000000000000000e+01,-7.000000000000000000e+00,6.000000000000000000e+00,-1.000000000000000000e+00,-7.000000000000000000e+00,8.000000000000000000e+00,3.000000000000000000e+00,-3.232421875000000000e-01,3.200073242187500000e-01,6.802978515625000000e-01,5.746459960937500000e-01
1.000000000000000000e+00,-2.100000000000000000e+01,-4.000000000000000000e+00,5.000000000000000000e+00,-3.000000000000000000e+00,-1.000000000000000000e+01,2.000000000000000000e+00,-1.000000000000000000e+00,-3.232421875000000000e-01,3.200073242187500000e-01,6.802978515625000000e-01,5.746459960937500000e-01
2.000000000000000000e+00,4.400000000000000000e+01,2.400000000000000000e+01,2.000000000000000000e+00,3.000000000000000000e+00,5.000000000000000000e+00,-3.000000000000000000e+00,0.000000000000000000e+00,-3.232421875000000000e-01,3.200073242187500000e-01,6.802978515625000000e-01,5.746459960937500000e-01
-1.000000000000000000e+00,-1.900000000000000000e+01,-4.200000000000000000e+01,-1.600000000000000000e+01,-3.000000000000000000e+00,6.000000000000000000e+00,-1.000000000000000000e+00,-2.000000000000000000e+00,-3.232421875000000000e-01,3.200073242187500000e-01,6.802978515625000000e-01,5.746459960937500000e-01
-5.000000000000000000e+00,-4.000000000000000000e+00,8.000000000000000000e+00,-1.500000000000000000e+01,-5.000000000000000000e+00,-5.000000000000000000e+00,-4.000000000000000000e+00,-1.000000000000000000e+00,-3.244628906250000000e-01,3.190307617187500000e-01,6.820068359375000000e-01,5.724487304687500000e-01
1.000000000000000000e+01,1.700000000000000000e+01,1.000000000000000000e+00,5.000000000000000000e+00,2.000000000000000000e+00,-7.000000000000000000e+00,-5.000000000000000000e+00,-1.000000000000000000e+00,-3.244628906250000000e-01,3.190307617187500000e-01,6.820068359375000000e-01,5.724487304687500000e-01
-9.000000000000000000e+00,-4.600000000000000000e+01,-1.000000000000000000e+01,-1.000000000000000000e+00,-5.000000000000000000e+00,-6.000000000000000000e+00,1.500000000000000000e+01,-2.000000000000000000e+00,-3.244628906250000000e-01,3.190307617187500000e-01,6.820068359375000000e-01,5.724487304687500000e-01
1.000000000000000000e+00,5.000000000000000000e+00,-1.000000000000000000e+01,6.000000000000000000e+00,1.000000000000000000e+00,6.000000000000000000e+00,-2.000000000000000000e+00,0.000000000000000000e+00,-3.244628906250000000e-01,3.190307617187500000e-01,6.820068359375000000e-01,5.724487304687500000e-01
-1.000000000000000000e+00,-3.000000000000000000e+00,7.000000000000000000e+00,3.000000000000000000e+00,2.000000000000000000e+00,0.000000000000000000e+00,1.000000000000000000e+00,-3.000000000000000000e+00,-3.247070312500000000e-01,3.197021484375000000e-01,6.828002929687500000e-01,5.710449218750000000e-01
6.000000000000000000e+00,4.000000000000000000e+00,3.000000000000000000e+00,-5.000000000000000000e+00,-1.000000000000000000e+00,-4.000000000000000000e+00,1.000000000000000000e+01,4.000000000000000000e+00,-3.247070312500000000e-01,3.197021484375000000e-01,6.828002929687500000e-01,5.710449218750000000e-01
-3.000000000000000000e+00,-2.000000000000000000e+00,-4.000000000000000000e+00,-4.000000000000000000e+00,-8.000000000000000000e+00,-2.300000000000000000e+01,-2.800000000000000000e+01,-4.000000000000000000e+00,-3.247070312500000000e-01,3.197021484375000000e-01,6.828002929687500000e-01,5.710449218750000000e-01
0.000000000000000000e+00,6.000000000000000000e+00,1.000000000000000000e+01,5.000000000000000000e+00,5.000000000000000000e+00,1.700000000000000000e+01,1.100000000000000000e+01,0.000000000000000000e+00,-3.247070312500000000e-01,3.197021484375000000e-01,6.828002929687500000e-01,5.710449218750000000e-01
8.000000000000000000e+00,-3.000000000000000000e+00,7.000000000000000000e+00,6.000000000000000000e+00,1.000000000000000000e+00,-4.000000000000000000e+00,0.000000000000000000e+00,5.000000000000000000e+00,-3.249511718750000000e-01,3.208007812500000000e-01,6.829833984375000000e-01,5.700683593750000000e-01
8.000000000000000000e+00,6.000000000000000000e+00,3.300000000000000000e+01,7.000000000000000000e+00,1.700000000000000000e+01,6.600000000000000000e+01,2.600000000000000000e+01,7.000000000000000000e+00,-3.249511718750000000e-01,3.208007812500000000e-01,6.829833984375000000e-01,5.700683593750000000e-01
-1.000000000000000000e+00,5.000000000000000000e+00,-2.100000000000000000e+01,-3.000000000000000000e+00,-6.000000000000000000e+00,-1.800000000000000000e+01,-5.000000000000000000e+00,-5.000000000000000000e+00,-3.249511718750000000e-01,3.208007812500000000e-01,6.829833984375000000e-01,5.700683593750000000e-01
-2.000000000000000000e+00,-1.100000000000000000e+01,-2.600000000000000000e+01,0.000000000000000000e+00,2.000000000000000000e+00,2.100000000000000000e+01,1.400000000000000000e+01,-1.000000000000000000e+00,-3.249511718750000000e-01,3.208007812500000000e-01,6.829833984375000000e-01,5.700683593750000000e-01
-4.000000000000000000e+00,-2.000000000000000000e+00,9.000000000000000000e+00,0.000000000000000000e+00,-2.000000000000000000e+00,-1.000000000000000000e+01,3.000000000000000000e+00,4.000000000000000000e+00,-3.258666992187500000e-01,3.211059570312500000e-01,6.832275390625000000e-01,5.690917968750000000e-01
0.000000000000000000e+00,5.000000000000000000e+00,5.000000000000000000e+00,2.000000000000000000e+00,-4.000000000000000000e+00,-3.100000000000000000e+01,-1.900000000000000000e+01,-4.000000000000000000e+00,-3.258666992187500000e-01,3.211059570312500000e-01,6.832275390625000000e-01,5.690917968750000000e-01
-3.000000000000000000e+00,9.000000000000000000e+00,1.100000000000000000e+01,-3.000000000000000000e+00,1.000000000000000000e+00,1.700000000000000000e+01,1.100000000000000000e+01,2.000000000000000000e+00,-3.258666992187500000e-01,3.211059570312500000e-01,6.832275390625000000e-01,5.690917968750000000e-01
-8.000000000000000000e+00,-1.100000000000000000e+01,1.600000000000000000e+01,-3.000000000000000000e+00,2.000000000000000000e+00,-9.000000000000000000e+00,-3.400000000000000000e+01,-3.000000000000000000e+00,-3.258666992187500000e-01,3.211059570312500000e-01,6.832275390625000000e-01,5.690917968750000000e-01
-2.000000000000000000e+00,1.700000000000000000e+01,-1.000000000000000000e+01,-2.000000000000000000e+00,-6.000000000000000000e+00,-1.100000000000000000e+01,2.000000000000000000e+00,-6.000000000000000000e+00,-3.273925781250000000e-01,3.208618164062500000e-01,6.835327148437500000e-01,5.679931640625000000e-01
-2.000000000000000000e+00,-7.000000000000000000e+00,8.000000000000000000e+00,2.000000000000000000e+01,-1.000000000000000000e+00,-9.000000000000000000e+00,0.000000000000000000e+00,0.000000000000000000e+00,-3.273925781250000000e-01,3.208618164062500000e-01,6.835327148437500000e-01,5.679931640625000000e-01
7.000000000000000000e+00,-1.400000000000000000e+01,-6.000000000000000000e+00,-6.000000000000000000e+00,-3.000000000000000000e+00,-4.000000000000000000e+00,-3.000000000000000000e+00,4.000000000000000000e+00,-3.273925781250000000e-01,3.208618164062500000e-01,6.835327148437500000e-01,5.679931640625000000e-01
-1.000000000000000000e+00,1.400000000000000000e+01,3.000000000000000000e+00,-6.000000000000000000e+00,-6.000000000000000000e+00,-1.400000000000000000e+01,-7.000000000000000000e+00,-3.000000000000000000e+00,-3.273925781250000000e-01,3.208618164062500000e-01,6.835327148437500000e-01,5.679931640625000000e-01
-4.000000000000000000e+00,-1.700000000000000000e+01,2.600000000000000000e+01,1.500000000000000000e+01,3.000000000000000000e+00,6.000000000000000000e+00,0.000000000000000000e+00,-2.000000000000000000e+00,-3.287963867187500000e-01,3.211059570312500000e-01,6.836547851562500000e-01,5.668334960937500000e-01
-3.000000000000000000e+00,-1.200000000000000000e+01,-3.000000000000000000e+01,-2.600000000000000000e+01,-1.200000000000000000e+01,-2.500000000000000000e+01,-1.100000000000000000e+01,-3.000000000000000000e+00,-3.287963867187500000e-01,3.211059570312500000e-01,6.836547851562500000e-01,5.668334960937500000e-01
7.000000000000000000e+00,1.100000000000000000e+01,-3.000000000000000000e+00,5.000000000000000000e+00,1.000000000000000000e+00,1.000000000000000000e+01,1.100000000000000000e+01,-1.000000000000000000e+00,-3.287963867187500000e-01,3.211059570312500000e-01,6.836547851562500000e-01,5.668334960937500000e-01
3.000000000000000000e+00,-4.000000000000000000e+00,1.900000000000000000e+01,1.000000000000000000e+00,1.000000000000000000e+00,-7.000000000000000000e+00,-9.000000000000000000e+00,-1.000000000000000000e+00,-3.287963867187500000e-01,3.211059570312500000e-01,6.836547851562500000e-01,5.668334960937500000e-01
-1.000000000000000000e+00,0.000000000000000000e+00,5.000000000000000000e+00,2.000000000000000000e+00,0.000000000000000000e+00,8.000000000000000000e+00,-1.000000000000000000e+00,0.000000000000000000e+00,-3.297119140625000000e-01,3.221435546875000000e-01,6.836547851562500000e-01,5.657348632812500000e-01
-3.000000000000000000e+00,5.000000000000000000e+00,-7.000000000000000000e+00,-7.000000000000000000e+00,-5.000000000000000000e+00,-1.600000000000000000e+01,-3.000000000000000000e+00,0.000000000000000000e+00,-3.297119140625000000e-01,3.221435546875000000e-01,6.836547851562500000e-01,5.657348632812500000e-01
-3.000000000000000000e+00,-7.000000000000000000e+00,7.000000000000000000e+00,6.000000000000000000e+00,2.000000000000000000e+00,1.300000000000000000e+01,6.000000000000000000e+00,3.000000000000000000e+00,-3.297119140625000000e-01,3.221435546875000000e-01,6.836547851562500000e-01,5.657348632812500000e-01
2.000000000000000000e+00,9.000000000000000000e+00,0.000000000000000000e+00,4.000000000000000000e+00,0.000000000000000000e+00,5.000000000000000000e+00,1.000000000000000000e+00,0.000000000000000000e+00,-3.297119140625000000e-01,3.221435546875000000e-01,6.836547851562500000e-01,5.657348632812500000e-01
-6.000000000000000000e+00,-6.000000000000000000e+00,3.000000000000000000e+00,-3.000000000000000000e+00,-3.000000000000000000e+00,4.000000000000000000e+00,0.000000000000000000e+00,-2.000000000000000000e+00,-3.305664062500000000e-01,3.225708007812500000e-01,6.835937500000000000e-01,5.650634765625000000e-01
2.000000000000000000e+00,-3.000000000000000000e+00,-8.000000000000000000e+00,-6.000000000000000000e+00,-4.000000000000000000e+00,-1.400000000000000000e+01,-8.000000000000000000e+00,-3.000000000000000000e+00,-3.305664062500000000e-01,3.225708007812500000e-01,6.835937500000000000e-01,5.650634765625000000e-01
-1.000000000000000000e+01,1.000000000000000000e+00,2.000000000000000000e+00,-4.000000000000000000e+00,0.000000000000000000e+00,-3.000000000000000000e+00,-1.000000000000000000e+01,-6.000000000000000000e+00,-3.305664062500000000e-01,3.225708007812500000e-01,6.835937500000000000e-01,5.650634765625000000e-01
1.200000000000000000e+01,-1.000000000000000000e+00,-2.000000000000000000e+00,1.000000000000000000e+00,3.000000000000000000e+00,-2.000000000000000000e+00,-7.000000000000000000e+00,-1.000000000000000000e+00,-3.305664062500000000e-01,3.225708007812500000e-01,6.835937500000000000e-01,5.650634765625000000e-01
3.000000000000000000e+00,3.000000000000000000e+00,1.000000000000000000e+00,-7.000000000000000000e+00,-2.000000000000000000e+00,5.000000000000000000e+00,-3.000000000000000000e+00,-1.000000000000000000e+00,-3.312377929687500000e-01,3.220214843750000000e-01,6.834716796875000000e-01,5.651245117187500000e-01
4.000000000000000000e+00,-4.000000000000000000e+00,-1.400000000000000000e+01,9.000000000000000000e+00,-1.000000000000000000e+00,5.000000000000000000e+00,2.600000000000000000e+01,1.000000000000000000e+00,-3.312377929687500000e-01,3.220214843750000000e-01,6.834716796875000000e-01,5.651245117187500000e-01
-4.000000000000000000e+00,9.000000000000000000e+00,1.000000000000000000e+01,-4.000000000000000000e+00,-1.000000000000000000e+00,-2.000000000000000000e+00,-1.600000000000000000e+01,1.000000000000000000e+00,-3.312377929687500000e-01,3.220214843750000000e-01,6.834716796875000000e-01,5.651245117187500000e-01
-9.000000000000000000e+00,-3.000000000000000000e+00,1.100000000000000000e+01,8.000000000000000000e+00,-1.000000000000000000e+00,-6.000000000000000000e+00,-5.000000000000000000e+00,-2.000000000000000000e+00,-3.312377929687500000e-01,3.220214843750000000e-01,6.834716796875000000e-01,5.651245117187500000e-01
-1.000000000000000000e+00,0.000000000000000000e+00,-1.100000000000000000e+01,-7.000000000000000000e+00,-4.000000000000000000e+00,-1.800000000000000000e+01,-5.000000000000000000e+00,-4.000000000000000000e+00,-3.320312500000000000e-01,3.203125000000000000e-01,6.835327148437500000e-01,5.656127929687500000e-01
1.000000000000000000e+00,0.000000000000000000e+00,3.000000000000000000e+00,-6.000000000000000000e+00,-1.000000000000000000e+00,1.300000000000000000e+01,9.000000000000000000e+00,-1.000000000000000000e+00,-3.320312500000000000e-01,3.203125000000000000e-01,6.835327148437500000e-01,5.656127929687500000e-01
-2.000000000000000000e+00,3.000000000000000000e+00,0.000000000000000000e+00,1.000000000000000000e+00,0.000000000000000000e+00,1.000000000000000000e+00,-2.000000000000000000e+00,-4.000000000000000000e+00,-3.320312500000000000e-01,3.203125000000000000e-01,6.835327148437500000e-01,5.656127929687500000e-01
6.000000000000000000e+00,-1.000000000000000000e+00,8.000000000000000000e+00,-3.000000000000000000e+00,-2.000000000000000000e+00,-1.100000000000000000e+01,1.000000000000000000e+01,2.000000000000000000e+00,-3.320312500000000000e-01,3.203125000000000000e-01,6.835327148437500000e-01,5.656127929687500000e-01
-3.000000000000000000e+00,-4.000000000000000000e+00,-2.000000000000000000e+00,-1.300000000000000000e+01,-2.000000000000000000e+00,-5.000000000000000000e+00,-5.000000000000000000e+00,0.000000000000000000e+00,-3.321533203125000000e-01,3.184814453125000000e-01,6.835937500000000000e-01,5.664062500000000000e-01
-2.000000000000000000e+00,5.000000000000000000e+00,5.000000000000000000e+00,1.900000000000000000e+01,-1.000000000000000000e+00,-9.000000000000000000e+00,-1.100000000000000000e+01,-2.000000000000000000e+00,-3.321533203125000000e-01,3.184814453125000000e-01,6.835937500000000000e-01,5.664062500000000000e-01
0.000000000000000000e+00,-7.000000000000000000e+00,-3.000000000000000000e+00,-6.000000000000000000e+00,-3.000000000000000000e+00,-7.000000000000000000e+00,1.000000000000000000e+00,-3.000000000000000000e+00,-3.321533203125000000e-01,3.184814453125000000e-01,6.835937500000000000e-01,5.664062500000000000e-01
-2.000000000000000000e+00,4.000000000000000000e+00,0.000000000000000000e+00,9.000000000000000000e+00,5.000000000000000000e+00,1.200000000000000000e+01,-3.000000000000000000e+00,1.000000000000000000e+00,-3.321533203125000000e-01,3.184814453125000000e-01,6.835937500000000000e-01,5.664062500000000000e-01
0.000000000000000000e+00,-1.000000000000000000e+00,-7.000000000000000000e+00,2.000000000000000000e+00,2.000000000000000000e+00,8.000000000000000000e+00,7.000000000000000000e+00,0.000000000000000000e+00,-3.309326171875000000e-01,3.167724609375000000e-01,6.839599609375000000e-01,5.677490234375000000e-01
-1.000000000000000000e+00,1.000000000000000000e+00,1.000000000000000000e+01,-5.000000000000000000e+00,-2.000000000000000000e+00,-1.000000000000000000e+01,-1.000000000000000000e+01,-3.000000000000000000e+00,-3.309326171875000000e-01,3.167724609375000000e-01,6.839599609375000000e-01,5.677490234375000000e-01
-4.000000000000000000e+00,-1.300000000000000000e+01,-1.300000000000000000e+01,-7.000000000000000000e+00,-4.000000000000000000e+00,-1.100000000000000000e+01,3.000000000000000000e+00,4.000000000000000000e+00,-3.309326171875000000e-01,3.167724609375000000e-01,6.839599609375000000e-01,5.677490234375000000e-01
1.000000000000000000e+00,5.000000000000000000e+00,4.000000000000000000e+00,6.000000000000000000e+00,5.000000000000000000e+00,1.900000000000000000e+01,-1.600000000000000000e+01,-4.000000000000000000e+00,-3.309326171875000000e-01,3.167724609375000000e-01,6.839599609375000000e-01,5.677490234375000000e-01
-6.000000000000000000e+00,-1.200000000000000000e+01,-7.000000000000000000e+00,1.000000000000000000e+00,-1.000000000000000000e+00,3.000000000000000000e+00,2.000000000000000000e+00,-4.000000000000000000e+00,-3.291625976562500000e-01,3.134155273437500000e-01,6.853027343750000000e-01,5.689697265625000000e-01
-3.000000000000000000e+00,-1.700000000000000000e+01,8.000000000000000000e+00,-4.000000000000000000e+00,0.000000000000000000e+00,-6.000000000000000000e+00,-4.000000000000000000e+00,0.000000000000000000e+00,-3.291625976562500000e-01,3.134155273437500000e-01,6.853027343750000000e-01,5.689697265625000000e-01
1.200000000000000000e+01,5.300000000000000000e+01,5.000000000000000000e+00,8.000000000000000000e+00,3.000000000000000000e+00,-3.000000000000000000e+00,-4.000000000000000000e+00,3.000000000000000000e+00,-3.291625976562500000e-01,3.134155273437500000e-01,6.853027343750000000e-01,5.689697265625000000e-01
-1.300000000000000000e+01,-1.400000000000000000e+01,-1.000000000000000000e+00,-9.000000000000000000e+00,-7.000000000000000000e+00,-3.000000000000000000e+00,1.700000000000000000e+01,4.000000000000000000e+00,-3.291625976562500000e-01,3.134155273437500000e-01,6.853027343750000000e-01,5.689697265625000000e-01
-4.000000000000000000e+00,1.800000000000000000e+01,-2.000000000000000000e+00,-1.200000000000000000e+01,1.000000000000000000e+00,4.000000000000000000e+00,-6.000000000000000000e+00,0.000000000000000000e+00,-3.281860351562500000e-01,3.080444335937500000e-01,6.875000000000000000e-01,5.698242187500000000e-01
-7.000000000000000000e+00,-2.100000000000000000e+01,7.000000000000000000e+00,2.500000000000000000e+01,-3.000000000000000000e+00,-5.000000000000000000e+00,6.000000000000000000e+00,-5.000000000000000000e+00,-3.281860351562500000e-01,3.080444335937500000e-01,6.875000000000000000e-01,5.698242187500000000e-01
-1.000000000000000000e+00,9.000000000000000000e+00,-4.000000000000000000e+00,-8.000000000000000000e+00,-4.000000000000000000e+00,-3.000000000000000000e+00,-1.900000000000000000e+01,-5.000000000000000000e+00,-3.281860351562500000e-01,3.080444335937500000e-01,6.875000000000000000e-01,5.698242187500000000e-01
-9.000000000000000000e+00,-3.000000000000000000e+00,1.000000000000000000e+00,-5.000000000000000000e+00,1.000000000000000000e+00,2.000000000000000000e+00,5.000000000000000000e+00,-1.000000000000000000e+00,-3.281860351562500000e-01,3.080444335937500000e-01,6.875000000000000000e-01,5.698242187500000000e-01
1.200000000000000000e+01,-2.000000000000000000e+00,4.000000000000000000e+00,0.000000000000000000e+00,-3.000000000000000000e+00,-2.200000000000000000e+01,-6.000000000000000000e+00,-1.000000000000000000e+00,-3.270874023437500000e-01,3.022460937500000000e-01,6.894531250000000000e-01,5.711669921875000000e-01
-8.000000000000000000e+00,3.000000000000000000e+00,-1.800000000000000000e+01,-2.100000000000000000e+01,-4.000000000000000000e+00,1.300000000000000000e+01,-3.000000000000000000e+00,-1.000000000000000000e+00,-3.270874023437500000e-01,3.022460937500000000e-01,6.894531250000000000e-01,5.711669921875000000e-01
3.000000000000000000e+00,-5.000000000000000000e+00,1.500000000000000000e+01,1.900000000000000000e+01,7.000000000000000000e+00,1.500000000000000000e+01,1.000000000000000000e+01,0.000000000000000000e+00,-3.270874023437500000e-01,3.022460937500000000e-01,6.894531250000000000e-01,5.711669921875000000e-01
2.000000000000000000e+00,-4.000000000000000000e+00,-3.400000000000000000e+01,-1.600000000000000000e+01,-1.100000000000000000e+01,-1.300000000000000000e+01,-8.000000000000000000e+00,-5.000000000000000000e+00,-3.270874023437500000e-01,3.022460937500000000e-01,6.894531250000000000e-01,5.711669921875000000e-01
-7.000000000000000000e+00,-5.000000000000000000e+00,2.000000000000000000e+01,1.100000000000000000e+01,2.000000000000000000e+00,1.000000000000000000e+00,-3.000000000000000000e+00,0.000000000000000000e+00,-3.253173828125000000e-01,2.964477539062500000e-01,6.911621093750000000e-01,5.731201171875000000e-01
2.000000000000000000e+00,8.000000000000000000e+00,-1.700000000000000000e+01,-1.900000000000000000e+01,-2.000000000000000000e+00,-5.000000000000000000e+00,-8.000000000000000000e+00,-1.000000000000000000e+00,-3.253173828125000000e-01,2.964477539062500000e-01,6.911621093750000000e-01,5.731201171875000000e-01
-1.000000000000000000e+01,-2.100000000000000000e+01,5.000000000000000000e+00,9.000000000000000000e+00,0.000000000000000000e+00,-7.000000000000000000e+00,0.000000000000000000e+00,-2.000000000000000000e+00,-3.253173828125000000e-01,2.964477539062500000e-01,6.911621093750000000e-01,5.731201171875000000e-01
4.000000000000000000e+00,6.000000000000000000e+00,0.000000000000000000e+00,-2.100000000000000000e+01,0.000000000000000000e+00,5.000000000000000000e+00,1.000000000000000000e+00,1.000000000000000000e+00,-3.253173828125000000e-01,2.964477539062500000e-01,6.911621093750000000e-01,5.731201171875000000e-01
1.000000000000000000e+00,-3.000000000000000000e+00,1.000000000000000000e+00,1.100000000000000000e+01,0.000000000000000000e+00,1.200000000000000000e+01,1.300000000000000000e+01,2.000000000000000000e+00,-3.226318359375000000e-01,2.924194335937500000e-01,6.928100585937500000e-01,5.747680664062500000e-01
4.000000000000000000e+00,1.000000000000000000e+01,1.000000000000000000e+00,-3.000000000000000000e+00,-2.000000000000000000e+00,-4.000000000000000000e+00,-1.000000000000000000e+00,-1.000000000000000000e+00,-3.226318359375000000e-01,2.924194335937500000e-01,6.928100585937500000e-01,5.747680664062500000e-01
1.000000000000000000e+00,-9.000000000000000000e+00,-7.000000000000000000e+00,-7.000000000000000000e+00,0.000000000000000000e+00,2.000000000000000000e+00,-2.000000000000000000e+00,-1.000000000000000000e+00,-3.226318359375000000e-01,2.924194335937500000e-01,6.928100585937500000e-01,5.747680664062500000e-01
-2.000000000000000000e+00,-8.000000000000000000e+00,-1.400000000000000000e+01,1.000000000000000000e+00,1.000000000000000000e+00,-1.000000000000000000e+00,8.000000000000000000e+00,-2.000000000000000000e+00,-3.226318359375000000e-01,2.924194335937500000e-01,6.928100585937500000e-01,5.747680664062500000e-01
0.000000000000000000e+00,-1.000000000000000000e+00,-4.000000000000000000e+00,-6.000000000000000000e+00,-2.000000000000000000e+00,-6.000000000000000000e+00,-6.000000000000000000e+00,-1.000000000000000000e+00,-3.204956054687500000e-01,2.901611328125000000e-01,6.938476562500000000e-01,5.758666992187500000e-01
-1.000000000000000000e+00,-1.600000000000000000e+01,-1.500000000000000000e+01,0.000000000000000000e+00,-3.000000000000000000e+00,-1.500000000000000000e+01,1.000000000000000000e+00,1.000000000000000000e+00,-3.204956054687500000e-01,2.901611328125000000e-01,6.938476562500000000e-01,5.758666992187500000e-01
5.000000000000000000e+00,3.100000000000000000e+01,2.200000000000000000e+01,2.000000000000000000e+00,9.000000000000000000e+00,1.800000000000000000e+01,4.000000000000000000e+00,2.000000000000000000e+00,-3.204956054687500000e-01,2.901611328125000000e-01,6.938476562500000000e-01,5.758666992187500000e-01
4.000000000000000000e+00,3.000000000000000000e+00,-2.400000000000000000e+01,-3.000000000000000000e+00,-3.000000000000000000e+00,-1.100000000000000000e+01,-7.000000000000000000e+00,-5.000000000000000000e+00,-3.204956054687500000e-01,2.901611328125000000e-01,6.938476562500000000e-01,5.758666992187500000e-01
-1.300000000000000000e+01,1.000000000000000000e+00,1.500000000000000000e+01,7.000000000000000000e+00,-5.000000000000000000e+00,7.000000000000000000e+00,4.000000000000000000e+00,-3.000000000000000000e+00,-3.198852539062500000e-01,2.879028320312500000e-01,6.943359375000000000e-01,5.767211914062500000e-01
-4.000000000000000000e+00,-9.000000000000000000e+00,-2.200000000000000000e+01,-7.000000000000000000e+00,-5.000000000000000000e+00,-6.000000000000000000e+00,-9.000000000000000000e+00,-2.000000000000000000e+00,-3.198852539062500000e-01,2.879028320312500000e-01,6.943359375000000000e-01,5.767211914062500000e-01
3.000000000000000000e+00,-2.000000000000000000e+01,-1.100000000000000000e+01,-7.000000000000000000e+00,-3.000000000000000000e+00,-4.000000000000000000e+00,-7.000000000000000000e+00,2.000000000000000000e+00,-3.198852539062500000e-01,2.879028320312500000e-01,6.943359375000000000e-01,5.767211914062500000e-01
5.000000000000000000e+00,1.800000000000000000e+01,2.600000000000000000e+01,1.100000000000000000e+01,-1.000000000000000000e+00,-1.200000000000000000e+01,-5.000000000000000000e+00,3.000000000000000000e+00,-3.198852539062500000e-01,2.879028320312500000e-01,6.943359375000000000e-01,5.767211914062500000e-01
1.000000000000000000e+00,-4.000000000000000000e+00,1.000000000000000000e+00,4.000000000000000000e+00,2.000000000000000000e+00,1.200000000000000000e+01,8.000000000000000000e+00,1.000000000000000000e+00,-3.201904296875000000e-01,2.857055664062500000e-01,6.945190429687500000e-01,5.773925781250000000e-01
-1.000000000000000000e+00,6.000000000000000000e+00,-1.000000000000000000e+01,-6.000000000000000000e+00,-1.000000000000000000e+00,4.000000000000000000e+00,0.000000000000000000e+00,-1.000000000000000000e+00,-3.201904296875000000e-01,2.857055664062500000e-01,6.945190429687500000e-01,5.773925781250000000e-01
-8.000000000000000000e+00,-3.000000000000000000e+00,-9.000000000000000000e+00,-3.000000000000000000e+00,-6.000000000000000000e+00,-2.500000000000000000e+01,9.000000000000000000e+00,-1.000000000000000000e+00,-3.201904296875000000e-01,2.857055664062500000e-01,6.945190429687500000e-01,5.773925781250000000e-01
0.000000000000000000e+00,0.000000000000000000e+00,1.500000000000000000e+01,3.000000000000000000e+00,5.000000000000000000e+00,1.700000000000000000e+01,1.200000000000000000e+01,1.000000000000000000e+00,-3.201904296875000000e-01,2.857055664062500000e-01,6.945190429687500000e-01,5.773925781250000000e-01
3.000000000000000000e+00,-4.000000000000000000e+00,-1.400000000000000000e+01,0.000000000000000000e+00,-2.000000000000000000e+00,-1.600000000000000000e+01,-1.000000000000000000e+01,-3.000000000000000000e+00,-3.203735351562500000e-01,2.847290039062500000e-01,6.940307617187500000e-01,5.784301757812500000e-01
-5.000000000000000000e+00,-6.000000000000000000e+00,3.000000000000000000e+00,-1.400000000000000000e+01,-3.000000000000000000e+00,-9.000000000000000000e+00,-1.300000000000000000e+01,-6.000000000000000000e+00,-3.203735351562500000e-01,2.847290039062500000e-01,6.940307617187500000e-01,5.784301757812500000e-01
2.000000000000000000e+00,-9.000000000000000000e+00,-4.000000000000000000e+00,5.000000000000000000e+00,-1.000000000000000000e+00,1.000000000000000000e+01,4.000000000000000000e+00,1.000000000000000000e+00,-3.203735351562500000e-01,2.847290039062500000e-01,6.940307617187500000e-01,5.784301757812500000e-01
9.000000000000000000e+00,-8.000000000000000000e+00,2.000000000000000000e+00,-1.300000000000000000e+01,-1.000000000000000000e+01,-1.400000000000000000e+01,-4.000000000000000000e+00,-3.000000000000000000e+00,-3.203735351562500000e-01,2.847290039062500000e-01,6.940307617187500000e-01,5.784301757812500000e-01
-2.000000000000000000e+00,1.000000000000000000e+00,-1.000000000000000000e+01,3.000000000000000000e+00,2.000000000000000000e+00,9.000000000000000000e+00,5.000000000000000000e+00,0.000000000000000000e+00,-3.204956054687500000e-01,2.847900390625000000e-01,6.934204101562500000e-01,5.789794921875000000e-01
0.000000000000000000e+00,-6.000000000000000000e+00,5.000000000000000000e+00,5.000000000000000000e+00,1.000000000000000000e+00,0.000000000000000000e+00,1.000000000000000000e+00,0.000000000000000000e+00,-3.204956054687500000e-01,2.847900390625000000e-01,6.934204101562500000e-01,5.789794921875000000e-01
-5.000000000000000000e+00,0.000000000000000000e+00,-1.600000000000000000e+01,-1.000000000000000000e+01,-2.000000000000000000e+00,-1.000000000000000000e+00,-1.300000000000000000e+01,-1.000000000000000000e+00,-3.204956054687500000e-01,2.847900390625000000e-01,6.934204101562500000e-01,5.789794921875000000e-01
-2.000000000000000000e+00,-2.000000000000000000e+00,5.000000000000000000e+00,0.000000000000000000e+00,-2.000000000000000000e+00,6.000000000000000000e+00,1.100000000000000000e+01,-1.000000000000000000e+00,-3.204956054687500000e-01,2.847900390625000000e-01,6.934204101562500000e-01,5.789794921875000000e-01
1.000000000000000000e+00,-1.000000000000000000e+00,-1.400000000000000000e+01,-4.000000000000000000e+00,-2.000000000000000000e+00,-5.000000000000000000e+00,-6.000000000000000000e+00,0.000000000000000000e+00,-3.212280273437500000e-01,2.850952148437500000e-01,6.932983398437500000e-01,5.786743164062500000e-01
0.000000000000000000e+00,9.000000000000000000e+00,1.500000000000000000e+01,-1.000000000000000000e+00,-3.000000000000000000e+00,2.000000000000000000e+00,-1.000000000000000000e+00,-1.000000000000000000e+00,-3.212280273437500000e-01,2.850952148437500000e-01,6.932983398437500000e-01,5.786743164062500000e-01
-5.000000000000000000e+00,-1.500000000000000000e+01,2.000000000000000000e+00,-3.000000000000000000e+00,-2.000000000000000000e+00,-5.000000000000000000e+00,-3.000000000000000000e+00,-3.000000000000000000e+00,-3.212280273437500000e-01,2.850952148437500000e-01,6.932983398437500000e-01,5.786743164062500000e-01
-3.000000000000000000e+00,5.000000000000000000e+00,0.000000000000000000e+00,7.000000000000000000e+00,0.000000000000000000e+00,3.000000000000000000e+00,-7.000000000000000000e+00,0.000000000000000000e+00,-3.212280273437500000e-01,2.850952148437500000e-01,6.932983398437500000e-01,5.786743164062500000e-01
7.000000000000000000e+00,0.000000000000000000e+00,1.000000000000000000e+00,-1.000000000000000000e+01,-2.000000000000000000e+00,-2.000000000000000000e+00,9.000000000000000000e+00,2.000000000000000000e+00,-3.229370117187500000e-01,2.849731445312500000e-01,6.932373046875000000e-01,5.777587890625000000e-01
3.000000000000000000e+00,6.000000000000000000e+00,1.000000000000000000e+00,9.000000000000000000e+00,2.000000000000000000e+00,9.000000000000000000e+00,1.000000000000000000e+01,0.000000000000000000e+00,-3.229370117187500000e-01,2.849731445312500000e-01,6.932373046875000000e-01,5.777587890625000000e-01
-2.000000000000000000e+01,-9.000000000000000000e+00,0.000000000000000000e+00,-3.000000000000000000e+00,-1.000000000000000000e+00,0.000000000000000000e+00,2.000000000000000000e+00,-3.000000000000000000e+00,-3.229370117187500000e-01,2.849731445312500000e-01,6.932373046875000000e-01,5.777587890625000000e-01
8.000000000000000000e+00,6.000000000000000000e+00,-5.000000000000000000e+00,-9.000000000000000000e+00,-4.000000000000000000e+00,-1.200000000000000000e+01,-1.400000000000000000e+01,2.000000000000000000e+00,-3.229370117187500000e-01,2.849731445312500000e-01,6.932373046875000000e-01,5.777587890625000000e-01
