-1.600000000000000000e+01,2.000000000000000000e+00,-3.000000000000000000e+00,-1.000000000000000000e+00,-6.000000000000000000e+00,-6.000000000000000000e+00,-3.000000000000000000e+00,-2.000000000000000000e+00,4.290161132812500000e-01,2.239990234375000000e-01,-8.567504882812500000e-01,1.782226562500000000e-01
-2.000000000000000000e+00,-6.000000000000000000e+00,2.000000000000000000e+00,-4.000000000000000000e+00,-7.000000000000000000e+00,-4.000000000000000000e+00,0.000000000000000000e+00,0.000000000000000000e+00,4.290161132812500000e-01,2.239990234375000000e-01,-8.567504882812500000e-01,1.782226562500000000e-01
-1.300000000000000000e+01,0.000000000000000000e+00,-2.000000000000000000e+00,-5.000000000000000000e+00,-3.000000000000000000e+00,-4.000000000000000000e+00,-1.000000000000000000e+00,-3.000000000000000000e+00,4.286499023437500000e-01,2.244262695312500000e-01,-8.568115234375000000e-01,1.784057617187500000e-01
2.400000000000000000e+01,1.600000000000000000e+01,4.000000000000000000e+00,8.000000000000000000e+00,7.000000000000000000e+00,9.000000000000000000e+00,4.000000000000000000e+00,3.000000000000000000e+00,4.286499023437500000e-01,2.244262695312500000e-01,-8.568115234375000000e-01,1.784057617187500000e-01
-1.700000000000000000e+01,0.000000000000000000e+00,-8.000000000000000000e+00,-5.000000000000000000e+00,-8.000000000000000000e+00,-3.000000000000000000e+00,-7.000000000000000000e+00,-4.000000000000000000e+00,4.286499023437500000e-01,2.244262695312500000e-01,-8.568115234375000000e-01,1.784057617187500000e-01
-7.000000000000000000e+00,-1.100000000000000000e+01,-9.000000000000000000e+00,-1.100000000000000000e+01,2.000000000000000000e+00,-1.000000000000000000e+00,-2.000000000000000000e+00,-3.000000000000000000e+00,4.286499023437500000e-01,2.244262695312500000e-01,-8.568115234375000000e-01,1.784057617187500000e-01
1.000000000000000000e+00,7.000000000000000000e+00,9.000000000000000000e+00,1.900000000000000000e+01,5.000000000000000000e+00,1.000000000000000000e+00,0.000000000000000000e+00,2.000000000000000000e+00,4.284057617187500000e-01,2.243041992187500000e-01,-8.569335937500000000e-01,1.784057617187500000e-01
0.000000000000000000e+00,3.000000000000000000e+00,-1.000000000000000000e+01,-9.000000000000000000e+00,-2.000000000000000000e+00,-2.000000000000000000e+00,-2.000000000000000000e+00,0.000000000000000000e+00,4.284057617187500000e-01,2.243041992187500000e-01,-8.569335937500000000e-01,1.784057617187500000e-01
8.000000000000000000e+00,5.000000000000000000e+00,2.000000000000000000e+00,-2.000000000000000000e+00,-6.000000000000000000e+00,-1.000000000000000000e+00,0.000000000000000000e+00,-1.000000000000000000e+00,4.284057617187500000e-01,2.243041992187500000e-01,-8.569335937500000000e-01,1.784057617187500000e-01
2.000000000000000000e+00,1.000000000000000000e+00,5.000000000000000000e+00,3.000000000000000000e+00,-2.000000000000000000e+00,0.000000000000000000e+00,-2.000000000000000000e+00,-2.000000000000000000e+00,4.284057617187500000e-01,2.243041992187500000e-01,-8.569335937500000000e-01,1.784057617187500000e-01
-4.000000000000000000e+00,-2.000000000000000000e+00,1.000000000000000000e+00,-1.000000000000000000e+00,2.000000000000000000e+00,-2.000000000000000000e+00,0.000000000000000000e+00,-2.000000000000000000e+00,4.283447265625000000e-01,2.243652343750000000e-01,-8.568725585937500000e-01,1.786499023437500000e-01
2.000000000000000000e+01,1.600000000000000000e+01,-1.000000000000000000e+00,-7.000000000000000000e+00,-9.000000000000000000e+00,-6.000000000000000000e+00,0.000000000000000000e+00,0.000000000000000000e+00,4.283447265625000000e-01,2.243652343750000000e-01,-8.568725585937500000e-01,1.786499023437500000e-01
-1.200000000000000000e+01,-1.800000000000000000e+01,-2.300000000000000000e+01,-3.000000000000000000e+00,-4.000000000000000000e+00,-3.000000000000000000e+00,-2.000000000000000000e+00,1.000000000000000000e+00,4.283447265625000000e-01,2.243652343750000000e-01,-8.568725585937500000e-01,1.786499023437500000e-01
2.000000000000000000e+00,-5.000000000000000000e+00,1.500000000000000000e+01,1.200000000000000000e+01,1.200000000000000000e+01,2.000000000000000000e+00,0.000000000000000000e+00,1.000000000000000000e+00,4.283447265625000000e-01,2.243652343750000000e-01,-8.568725585937500000e-01,1.786499023437500000e-01
8.000000000000000000e+00,1.100000000000000000e+01,7.000000000000000000e+00,-1.000000000000000000e+00,6.000000000000000000e+00,4.000000000000000000e+00,3.000000000000000000e+00,1.000000000000000000e+00,4.281616210937500000e-01,2.243041992187500000e-01,-8.569946289062500000e-01,1.787109375000000000e-01
-1.700000000000000000e+01,-1.900000000000000000e+01,-2.000000000000000000e+00,-1.000000000000000000e+00,-1.000000000000000000e+00,-2.000000000000000000e+00,-4.000000000000000000e+00,-4.000000000000000000e+00,4.281616210937500000e-01,2.243041992187500000e-01,-8.569946289062500000e-01,1.787109375000000000e-01
1.200000000000000000e+01,1.300000000000000000e+01,-5.000000000000000000e+00,-1.000000000000000000e+01,-6.000000000000000000e+00,-4.000000000000000000e+00,-1.000000000000000000e+00,0.000000000000000000e+00,4.281616210937500000e-01,2.243041992187500000e-01,-8.569946289062500000e-01,1.787109375000000000e-01
-4.000000000000000000e+00,-1.000000000000000000e+01,-1.000000000000000000e+00,1.000000000000000000e+00,-6.000000000000000000e+00,-2.000000000000000000e+00,-1.000000000000000000e+00,-1.000000000000000000e+00,4.281616210937500000e-01,2.243041992187500000e-01,-8.569946289062500000e-01,1.787109375000000000e-01
-4.000000000000000000e+00,-4.000000000000000000e+00,-2.000000000000000000e+00,-3.000000000000000000e+00,-6.000000000000000000e+00,-5.000000000000000000e+00,-1.000000000000000000e+00,0.000000000000000000e+00,4.278564453125000000e-01,2.244262695312500000e-01,-8.570556640625000000e-01,1.789550781250000000e-01
9.000000000000000000e+00,7.000000000000000000e+00,2.000000000000000000e+00,-5.000000000000000000e+00,-2.000000000000000000e+00,-2.000000000000000000e+00,-1.000000000000000000e+00,-2.000000000000000000e+00,4.278564453125000000e-01,2.244262695312500000e-01,-8.570556640625000000e-01,1.789550781250000000e-01
3.000000000000000000e+00,2.000000000000000000e+00,2.000000000000000000e+00,2.000000000000000000e+00,3.000000000000000000e+00,3.000000000000000000e+00,0.000000000000000000e+00,-1.000000000000000000e+00,4.278564453125000000e-01,2.244262695312500000e-01,-8.570556640625000000e-01,1.789550781250000000e-01
1.000000000000000000e+01,1.000000000000000000e+01,4.000000000000000000e+00,0.000000000000000000e+00,-2.000000000000000000e+00,-2.000000000000000000e+00,-1.000000000000000000e+00,2.000000000000000000e+00,4.278564453125000000e-01,2.244262695312500000e-01,-8.570556640625000000e-01,1.789550781250000000e-01
-1.200000000000000000e+01,0.000000000000000000e+00,-5.000000000000000000e+00,-3.000000000000000000e+00,-4.000000000000000000e+00,-2.000000000000000000e+00,-2.000000000000000000e+00,-3.000000000000000000e+00,4.278564453125000000e-01,2.243652343750000000e-01,-8.571166992187500000e-01,1.788330078125000000e-01
9.000000000000000000e+00,-1.100000000000000000e+01,4.000000000000000000e+00,2.000000000000000000e+00,2.000000000000000000e+00,-1.000000000000000000e+00,0.000000000000000000e+00,-1.000000000000000000e+00,4.278564453125000000e-01,2.243652343750000000e-01,-8.571166992187500000e-01,1.788330078125000000e-01
-3.000000000000000000e+00,-2.000000000000000000e+00,-7.000000000000000000e+00,-2.000000000000000000e+00,3.000000000000000000e+00,-1.000000000000000000e+00,1.000000000000000000e+00,-1.000000000000000000e+00,4.278564453125000000e-01,2.243652343750000000e-01,-8.571166992187500000e-01,1.788330078125000000e-01
1.000000000000000000e+00,3.000000000000000000e+00,9.000000000000000000e+00,-1.000000000000000000e+00,-1.000000000000000000e+00,3.000000000000000000e+00,3.000000000000000000e+00,-3.000000000000000000e+00,4.278564453125000000e-01,2.243652343750000000e-01,-8.571166992187500000e-01,1.788330078125000000e-01
1.000000000000000000e+00,2.000000000000000000e+00,0.000000000000000000e+00,1.000000000000000000e+00,-1.000000000000000000e+00,-3.000000000000000000e+00,-1.000000000000000000e+00,-1.000000000000000000e+00,4.277954101562500000e-01,2.239990234375000000e-01,-8.571777343750000000e-01,1.790771484375000000e-01
-6.000000000000000000e+00,5.000000000000000000e+00,-2.000000000000000000e+00,2.000000000000000000e+00,-6.000000000000000000e+00,-5.000000000000000000e+00,-1.000000000000000000e+00,-2.000000000000000000e+00,4.277954101562500000e-01,2.239990234375000000e-01,-8.571777343750000000e-01,1.790771484375000000e-01
1.000000000000000000e+01,8.000000000000000000e+00,4.000000000000000000e+00,5.000000000000000000e+00,5.000000000000000000e+00,1.000000000000000000e+00,0.000000000000000000e+00,0.000000000000000000e+00,4.277954101562500000e-01,2.239990234375000000e-01,-8.571777343750000000e-01,1.790771484375000000e-01
0.000000000000000000e+00,-2.400000000000000000e+01,-5.000000000000000000e+00,-9.000000000000000000e+00,-7.000000000000000000e+00,-4.000000000000000000e+00,-3.000000000000000000e+00,-5.000000000000000000e+00,4.277954101562500000e-01,2.239990234375000000e-01,-8.571777343750000000e-01,1.790771484375000000e-01
-2.000000000000000000e+00,-5.000000000000000000e+00,-1.000000000000000000e+01,0.000000000000000000e+00,-3.000000000000000000e+00,1.000000000000000000e+00,2.000000000000000000e+00,1.000000000000000000e+00,4.277954101562500000e-01,2.241821289062500000e-01,-8.570556640625000000e-01,1.794433593750000000e-01
-6.000000000000000000e+00,-5.000000000000000000e+00,-2.000000000000000000e+00,-1.000000000000000000e+00,-4.000000000000000000e+00,-2.000000000000000000e+00,-2.000000000000000000e+00,-3.000000000000000000e+00,4.277954101562500000e-01,2.241821289062500000e-01,-8.570556640625000000e-01,1.794433593750000000e-01
3.000000000000000000e+00,-6.000000000000000000e+00,3.000000000000000000e+00,-5.000000000000000000e+00,5.000000000000000000e+00,3.000000000000000000e+00,0.000000000000000000e+00,-1.000000000000000000e+00,4.277954101562500000e-01,2.241821289062500000e-01,-8.570556640625000000e-01,1.794433593750000000e-01
-5.000000000000000000e+00,5.000000000000000000e+00,-3.000000000000000000e+00,5.000000000000000000e+00,0.000000000000000000e+00,-2.000000000000000000e+00,-2.000000000000000000e+00,-2.000000000000000000e+00,4.277954101562500000e-01,2.241821289062500000e-01,-8.570556640625000000e-01,1.794433593750000000e-01
1.000000000000000000e+00,0.000000000000000000e+00,2.000000000000000000e+00,-1.100000000000000000e+01,0.000000000000000000e+00,-1.000000000000000000e+00,-2.000000000000000000e+00,-2.000000000000000000e+00,4.276123046875000000e-01,2.243652343750000000e-01,-8.569946289062500000e-01,1.799316406250000000e-01
2.000000000000000000e+00,5.000000000000000000e+00,1.000000000000000000e+00,1.000000000000000000e+00,-4.000000000000000000e+00,-3.000000000000000000e+00,-3.000000000000000000e+00,-1.000000000000000000e+00,4.276123046875000000e-01,2.243652343750000000e-01,-8.569946289062500000e-01,1.799316406250000000e-01
1.000000000000000000e+01,0.000000000000000000e+00,4.000000000000000000e+00,-7.000000000000000000e+00,2.000000000000000000e+00,0.000000000000000000e+00,-5.000000000000000000e+00,0.000000000000000000e+00,4.276123046875000000e-01,2.243652343750000000e-01,-8.569946289062500000e-01,1.799316406250000000e-01
-1.300000000000000000e+01,-7.000000000000000000e+00,7.000000000000000000e+00,8.000000000000000000e+00,2.000000000000000000e+00,2.000000000000000000e+00,0.000000000000000000e+00,-1.000000000000000000e+00,4.276123046875000000e-01,2.243652343750000000e-01,-8.569946289062500000e-01,1.799316406250000000e-01
-7.000000000000000000e+00,-1.200000000000000000e+01,-1.000000000000000000e+00,-1.000000000000000000e+00,-2.000000000000000000e+00,-2.000000000000000000e+00,-4.000000000000000000e+00,-2.000000000000000000e+00,4.276123046875000000e-01,2.244873046875000000e-01,-8.569335937500000000e-01,1.802368164062500000e-01
1.000000000000000000e+00,1.300000000000000000e+01,0.000000000000000000e+00,2.000000000000000000e+00,-2.000000000000000000e+00,0.000000000000000000e+00,-2.000000000000000000e+00,0.000000000000000000e+00,4.276123046875000000e-01,2.244873046875000000e-01,-8.569335937500000000e-01,1.802368164062500000e-01
-4.000000000000000000e+00,-2.000000000000000000e+00,-1.000000000000000000e+00,-6.000000000000000000e+00,1.000000000000000000e+00,-1.000000000000000000e+00,0.000000000000000000e+00,0.000000000000000000e+00,4.276123046875000000e-01,2.244873046875000000e-01,-8.569335937500000000e-01,1.802368164062500000e-01
4.000000000000000000e+00,1.000000000000000000e+00,-3.000000000000000000e+00,-4.000000000000000000e+00,-9.000000000000000000e+00,1.000000000000000000e+00,2.000000000000000000e+00,0.000000000000000000e+00,4.276123046875000000e-01,2.244873046875000000e-01,-8.569335937500000000e-01,1.802368164062500000e-01
6.000000000000000000e+00,1.000000000000000000e+00,-1.100000000000000000e+01,4.000000000000000000e+00,4.000000000000000000e+00,-4.000000000000000000e+00,-1.000000000000000000e+00,2.000000000000000000e+00,4.276123046875000000e-01,2.244262695312500000e-01,-8.569335937500000000e-01,1.802368164062500000e-01
-5.000000000000000000e+00,0.000000000000000000e+00,2.000000000000000000e+00,-5.000000000000000000e+00,0.000000000000000000e+00,3.000000000000000000e+00,0.000000000000000000e+00,-3.000000000000000000e+00,4.276123046875000000e-01,2.244262695312500000e-01,-8.569335937500000000e-01,1.802368164062500000e-01
6.000000000000000000e+00,-9.000000000000000000e+00,-7.000000000000000000e+00,0.000000000000000000e+00,-4.000000000000000000e+00,1.000000000000000000e+00,0.000000000000000000e+00,-2.000000000000000000e+00,4.276123046875000000e-01,2.244262695312500000e-01,-8.569335937500000000e-01,1.802368164062500000e-01
-2.000000000000000000e+00,-2.000000000000000000e+00,0.000000000000000000e+00,-7.000000000000000000e+00,2.000000000000000000e+00,-2.000000000000000000e+00,-2.000000000000000000e+00,-1.000000000000000000e+00,4.276123046875000000e-01,2.244262695312500000e-01,-8.569335937500000000e-01,1.802368164062500000e-01
2.000000000000000000e+00,1.000000000000000000e+01,3.000000000000000000e+00,1.000000000000000000e+00,-5.000000000000000000e+00,1.000000000000000000e+00,0.000000000000000000e+00,-1.000000000000000000e+00,4.277343750000000000e-01,2.241210937500000000e-01,-8.569335937500000000e-01,1.804199218750000000e-01
-1.000000000000000000e+00,-1.500000000000000000e+01,-1.000000000000000000e+01,-3.000000000000000000e+00,-2.000000000000000000e+00,-4.000000000000000000e+00,1.000000000000000000e+00,0.000000000000000000e+00,4.277343750000000000e-01,2.241210937500000000e-01,-8.569335937500000000e-01,1.804199218750000000e-01
-5.000000000000000000e+00,6.000000000000000000e+00,5.000000000000000000e+00,7.000000000000000000e+00,5.000000000000000000e+00,3.000000000000000000e+00,1.000000000000000000e+00,-2.000000000000000000e+00,4.277343750000000000e-01,2.241210937500000000e-01,-8.569335937500000000e-01,1.804199218750000000e-01
2.000000000000000000e+00,4.000000000000000000e+00,-8.000000000000000000e+00,-5.000000000000000000e+00,-1.000000000000000000e+00,1.000000000000000000e+00,-1.000000000000000000e+00,-1.000000000000000000e+00,4.277343750000000000e-01,2.241210937500000000e-01,-8.569335937500000000e-01,1.804199218750000000e-01
1.000000000000000000e+00,-4.000000000000000000e+00,1.200000000000000000e+01,-1.000000000000000000e+00,0.000000000000000000e+00,0.000000000000000000e+00,-3.000000000000000000e+00,-3.000000000000000000e+00,4.276733398437500000e-01,2.241210937500000000e-01,-8.568115234375000000e-01,1.807861328125000000e-01
-3.000000000000000000e+00,-3.000000000000000000e+00,-4.000000000000000000e+00,0.000000000000000000e+00,1.000000000000000000e+00,-1.000000000000000000e+00,-4.000000000000000000e+00,0.000000000000000000e+00,4.276733398437500000e-01,2.241210937500000000e-01,-8.568115234375000000e-01,1.807861328125000000e-01
-3.000000000000000000e+00,1.000000000000000000e+00,0.000000000000000000e+00,-1.000000000000000000e+00,-5.000000000000000000e+00,-1.000000000000000000e+00,1.000000000000000000e+00,-1.000000000000000000e+00,4.276733398437500000e-01,2.241210937500000000e-01,-8.568115234375000000e-01,1.807861328125000000e-01
2.000000000000000000e+00,1.600000000000000000e+01,2.000000000000000000e+00,2.000000000000000000e+00,1.000000000000000000e+00,-2.000000000000000000e+00,2.000000000000000000e+00,3.000000000000000000e+00,4.276733398437500000e-01,2.241210937500000000e-01,-8.568115234375000000e-01,1.807861328125000000e-01
-8.000000000000000000e+00,-5.000000000000000000e+00,-2.000000000000000000e+00,-1.000000000000000000e+00,2.000000000000000000e+00,2.000000000000000000e+00,1.000000000000000000e+00,-3.000000000000000000e+00,4.274902343750000000e-01,2.243652343750000000e-01,-8.568115234375000000e-01,1.810302734375000000e-01
-1.100000000000000000e+01,-1.000000000000000000e+00,2.000000000000000000e+00,3.000000000000000000e+00,0.000000000000000000e+00,-4.000000000000000000e+00,-3.000000000000000000e+00,-6.000000000000000000e+00,4.274902343750000000e-01,2.243652343750000000e-01,-8.568115234375000000e-01,1.810302734375000000e-01
4.000000000000000000e+00,-1.000000000000000000e+01,-5.000000000000000000e+00,-4.000000000000000000e+00,2.000000000000000000e+00,5.000000000000000000e+00,7.000000000000000000e+00,3.000000000000000000e+00,4.274902343750000000e-01,2.243652343750000000e-01,-8.568115234375000000e-01,1.810302734375000000e-01
-3.000000000000000000e+00,4.000000000000000000e+00,-5.000000000000000000e+00,2.000000000000000000e+00,7.000000000000000000e+00,0.000000000000000000e+00,-2.000000000000000000e+00,0.000000000000000000e+00,4.274902343750000000e-01,2.243652343750000000e-01,-8.568115234375000000e-01,1.810302734375000000e-01
-1.000000000000000000e+00,-3.000000000000000000e+00,-3.000000000000000000e+00,-4.000000000000000000e+00,-2.000000000000000000e+00,-1.000000000000000000e+00,0.000000000000000000e+00,0.000000000000000000e+00,4.274902343750000000e-01,2.243652343750000000e-01,-8.568115234375000000e-01,1.810302734375000000e-01
1.000000000000000000e+00,2.000000000000000000e+00,4.000000000000000000e+00,-2.000000000000000000e+00,-4.000000000000000000e+00,-2.000000000000000000e+00,-1.000000000000000000e+00,-1.000000000000000000e+00,4.274902343750000000e-01,2.243652343750000000e-01,-8.568115234375000000e-01,1.810302734375000000e-01
-8.000000000000000000e+00,0.000000000000000000e+00,6.000000000000000000e+00,1.000000000000000000e+00,-8.000000000000000000e+00,-7.000000000000000000e+00,-3.000000000000000000e+00,-3.000000000000000000e+00,4.274902343750000000e-01,2.243652343750000000e-01,-8.568115234375000000e-01,1.810302734375000000e-01
-1.000000000000000000e+01,-1.100000000000000000e+01,-4.000000000000000000e+00,5.000000000000000000e+00,2.000000000000000000e+00,1.000000000000000000e+00,0.000000000000000000e+00,1.000000000000000000e+00,4.274902343750000000e-01,2.243652343750000000e-01,-8.568115234375000000e-01,1.810302734375000000e-01
4.000000000000000000e+00,8.000000000000000000e+00,7.000000000000000000e+00,0.000000000000000000e+00,-2.000000000000000000e+00,3.000000000000000000e+00,1.000000000000000000e+00,-1.000000000000000000e+00,4.274291992187500000e-01,2.243652343750000000e-01,-8.568115234375000000e-01,1.810302734375000000e-01
-3.000000000000000000e+00,-7.000000000000000000e+00,-1.900000000000000000e+01,-3.000000000000000000e+00,0.000000000000000000e+00,0.000000000000000000e+00,0.000000000000000000e+00,-1.000000000000000000e+00,4.274291992187500000e-01,2.243652343750000000e-01,-8.568115234375000000e-01,1.810302734375000000e-01
1.000000000000000000e+00,1.000000000000000000e+00,-2.000000000000000000e+00,-2.000000000000000000e+00,-6.000000000000000000e+00,-2.000000000000000000e+00,-1.000000000000000000e+00,-1.000000000000000000e+00,4.274291992187500000e-01,2.243652343750000000e-01,-8.568115234375000000e-01,1.810302734375000000e-01
-3.000000000000000000e+00,-2.000000000000000000e+00,1.000000000000000000e+00,-2.000000000000000000e+00,4.000000000000000000e+00,0.000000000000000000e+00,0.000000000000000000e+00,-1.000000000000000000e+00,4.274291992187500000e-01,2.243652343750000000e-01,-8.568115234375000000e-01,1.810302734375000000e-01
-3.000000000000000000e+00,-2.000000000000000000e+00,-4.000000000000000000e+00,-1.000000000000000000e+00,2.000000000000000000e+00,-1.000000000000000000e+00,-1.000000000000000000e+00,2.000000000000000000e+00,4.274291992187500000e-01,2.244262695312500000e-01,-8.568725585937500000e-01,1.810302734375000000e-01
-9.000000000000000000e+00,-1.000000000000000000e+00,0.000000000000000000e+00,-2.000000000000000000e+00,-4.000000000000000000e+00,-4.000000000000000000e+00,-2.000000000000000000e+00,-2.000000000000000000e+00,4.274291992187500000e-01,2.244262695312500000e-01,-8.568725585937500000e-01,1.810302734375000000e-01
1.000000000000000000e+01,-2.000000000000000000e+00,1.000000000000000000e+00,0.000000000000000000e+00,-1.000000000000000000e+00,-1.000000000000000000e+00,-1.000000000000000000e+00,0.000000000000000000e+00,4.274291992187500000e-01,2.244262695312500000e-01,-8.568725585937500000e-01,1.810302734375000000e-01
-1.100000000000000000e+01,-2.000000000000000000e+00,-7.000000000000000000e+00,-8.000000000000000000e+00,-6.000000000000000000e+00,-2.000000000000000000e+00,-1.000000000000000000e+00,-3.000000000000000000e+00,4.274291992187500000e-01,2.244262695312500000e-01,-8.568725585937500000e-01,1.810302734375000000e-01
1.200000000000000000e+01,2.000000000000000000e+00,-4.000000000000000000e+00,-1.000000000000000000e+00,-4.000000000000000000e+00,-2.000000000000000000e+00,-2.000000000000000000e+00,0.000000000000000000e+00,4.274291992187500000e-01,2.243652343750000000e-01,-8.568115234375000000e-01,1.812133789062500000e-01
-1.200000000000000000e+01,-1.000000000000000000e+00,5.000000000000000000e+00,-3.000000000000000000e+00,-2.000000000000000000e+00,-2.000000000000000000e+00,-3.000000000000000000e+00,0.000000000000000000e+00,4.274291992187500000e-01,2.243652343750000000e-01,-8.568115234375000000e-01,1.812133789062500000e-01
-5.000000000000000000e+00,3.000000000000000000e+00,-2.000000000000000000e+00,-2.000000000000000000e+00,-3.000000000000000000e+00,-4.000000000000000000e+00,-1.000000000000000000e+00,-3.000000000000000000e+00,4.274291992187500000e-01,2.243652343750000000e-01,-8.568115234375000000e-01,1.812133789062500000e-01
1.300000000000000000e+01,-1.200000000000000000e+01,3.000000000000000000e+00,2.000000000000000000e+00,0.000000000000000000e+00,2.000000000000000000e+00,0.000000000000000000e+00,-2.000000000000000000e+00,4.274291992187500000e-01,2.243652343750000000e-01,-8.568115234375000000e-01,1.812133789062500000e-01
-2.300000000000000000e+01,-1.100000000000000000e+01,-1.100000000000000000e+01,-1.000000000000000000e+00,4.000000000000000000e+00,1.000000000000000000e+00,-5.000000000000000000e+00,-5.000000000000000000e+00,4.273071289062500000e-01,2.244262695312500000e-01,-8.568115234375000000e-01,1.815795898437500000e-01
7.000000000000000000e+00,-1.000000000000000000e+00,7.000000000000000000e+00,-1.000000000000000000e+00,4.000000000000000000e+00,3.000000000000000000e+00,3.000000000000000000e+00,2.000000000000000000e+00,4.273071289062500000e-01,2.244262695312500000e-01,-8.568115234375000000e-01,1.815795898437500000e-01
5.000000000000000000e+00,-5.000000000000000000e+00,-1.300000000000000000e+01,-5.000000000000000000e+00,-3.000000000000000000e+00,-8.000000000000000000e+00,-3.000000000000000000e+00,0.000000000000000000e+00,4.273071289062500000e-01,2.244262695312500000e-01,-8.568115234375000000e-01,1.815795898437500000e-01
-4.000000000000000000e+00,1.200000000000000000e+01,1.700000000000000000e+01,-2.000000000000000000e+00,-8.000000000000000000e+00,-7.000000000000000000e+00,-6.000000000000000000e+00,-4.000000000000000000e+00,4.273071289062500000e-01,2.244262695312500000e-01,-8.568115234375000000e-01,1.815795898437500000e-01
7.000000000000000000e+00,1.000000000000000000e+00,2.000000000000000000e+00,-1.000000000000000000e+00,-1.000000000000000000e+00,2.000000000000000000e+00,0.000000000000000000e+00,1.000000000000000000e+00,4.268798828125000000e-01,2.247314453125000000e-01,-8.568725585937500000e-01,1.818847656250000000e-01
-4.000000000000000000e+00,1.000000000000000000e+00,-1.800000000000000000e+01,-1.000000000000000000e+00,0.000000000000000000e+00,0.000000000000000000e+00,-1.000000000000000000e+00,1.000000000000000000e+00,4.268798828125000000e-01,2.247314453125000000e-01,-8.568725585937500000e-01,1.818847656250000000e-01
-2.000000000000000000e+00,2.000000000000000000e+00,0.000000000000000000e+00,-2.000000000000000000e+00,2.000000000000000000e+00,3.000000000000000000e+00,0.000000000000000000e+00,3.000000000000000000e+00,4.268798828125000000e-01,2.247314453125000000e-01,-8.568725585937500000e-01,1.818847656250000000e-01
2.000000000000000000e+00,-5.000000000000000000e+00,-1.100000000000000000e+01,-1.000000000000000000e+00,-3.000000000000000000e+00,-3.000000000000000000e+00,1.000000000000000000e+00,0.000000000000000000e+00,4.268798828125000000e-01,2.247314453125000000e-01,-8.568725585937500000e-01,1.818847656250000000e-01
-5.000000000000000000e+00,-3.000000000000000000e+00,2.000000000000000000e+00,-7.000000000000000000e+00,-4.000000000000000000e+00,-2.000000000000000000e+00,0.000000000000000000e+00,-3.000000000000000000e+00,4.265136718750000000e-01,2.249755859375000000e-01,-8.569946289062500000e-01,1.818847656250000000e-01
4.000000000000000000e+00,2.000000000000000000e+00,2.000000000000000000e+00,-1.000000000000000000e+00,-1.000000000000000000e+00,-1.000000000000000000e+00,-2.000000000000000000e+00,0.000000000000000000e+00,4.265136718750000000e-01,2.249755859375000000e-01,-8.569946289062500000e-01,1.818847656250000000e-01
-7.000000000000000000e+00,1.000000000000000000e+00,0.000000000000000000e+00,3.000000000000000000e+00,2.000000000000000000e+00,-1.000000000000000000e+00,-5.000000000000000000e+00,-3.000000000000000000e+00,4.265136718750000000e-01,2.249755859375000000e-01,-8.569946289062500000e-01,1.818847656250000000e-01
-2.000000000000000000e+00,-4.000000000000000000e+00,-3.000000000000000000e+00,9.000000000000000000e+00,-8.000000000000000000e+00,-2.000000000000000000e+00,0.000000000000000000e+00,1.000000000000000000e+00,4.265136718750000000e-01,2.249755859375000000e-01,-8.569946289062500000e-01,1.818847656250000000e-01
-2.000000000000000000e+00,5.000000000000000000e+00,3.000000000000000000e+00,-5.000000000000000000e+00,1.200000000000000000e+01,3.000000000000000000e+00,0.000000000000000000e+00,4.000000000000000000e+00,4.261474609375000000e-01,2.250976562500000000e-01,-8.571777343750000000e-01,1.817016601562500000e-01
9.000000000000000000e+00,3.000000000000000000e+00,9.000000000000000000e+00,-3.000000000000000000e+00,-7.000000000000000000e+00,-4.000000000000000000e+00,-1.000000000000000000e+00,0.000000000000000000e+00,4.261474609375000000e-01,2.250976562500000000e-01,-8.571777343750000000e-01,1.817016601562500000e-01
-1.500000000000000000e+01,-2.200000000000000000e+01,-3.000000000000000000e+00,-1.000000000000000000e+01,-1.000000000000000000e+00,-2.000000000000000000e+00,-4.000000000000000000e+00,-6.000000000000000000e+00,4.261474609375000000e-01,2.250976562500000000e-01,-8.571777343750000000e-01,1.817016601562500000e-01
-1.000000000000000000e+00,3.000000000000000000e+00,-3.000000000000000000e+00,1.000000000000000000e+00,1.000000000000000000e+00,-2.000000000000000000e+00,-1.000000000000000000e+00,-1.000000000000000000e+00,4.261474609375000000e-01,2.250976562500000000e-01,-8.571777343750000000e-01,1.817016601562500000e-01
7.000000000000000000e+00,2.000000000000000000e+00,0.000000000000000000e+00,1.000000000000000000e+00,-6.000000000000000000e+00,-5.000000000000000000e+00,-3.000000000000000000e+00,0.000000000000000000e+00,4.258422851562500000e-01,2.250366210937500000e-01,-8.574218750000000000e-01,1.812744140625000000e-01
1.000000000000000000e+00,2.000000000000000000e+00,4.000000000000000000e+00,0.000000000000000000e+00,5.000000000000000000e+00,1.000000000000000000e+00,2.000000000000000000e+00,2.000000000000000000e+00,4.258422851562500000e-01,2.250366210937500000e-01,-8.574218750000000000e-01,1.812744140625000000e-01
-3.000000000000000000e+00,3.000000000000000000e+00,-4.000000000000000000e+00,3.000000000000000000e+00,-7.000000000000000000e+00,0.000000000000000000e+00,-1.000000000000000000e+00,1.000000000000000000e+00,4.258422851562500000e-01,2.250366210937500000e-01,-8.574218750000000000e-01,1.812744140625000000e-01
8.000000000000000000e+00,4.000000000000000000e+00,-2.000000000000000000e+00,-4.000000000000000000e+00,7.000000000000000000e+00,1.000000000000000000e+00,-3.000000000000000000e+00,-4.000000000000000000e+00,4.258422851562500000e-01,2.250366210937500000e-01,-8.574218750000000000e-01,1.812744140625000000e-01
1.000000000000000000e+00,6.000000000000000000e+00,1.000000000000000000e+00,-7.000000000000000000e+00,-9.000000000000000000e+00,-5.000000000000000000e+00,0.000000000000000000e+00,0.000000000000000000e+00,4.255981445312500000e-01,2.249145507812500000e-01,-8.576660156250000000e-01,1.808471679687500000e-01
6.000000000000000000e+00,-1.700000000000000000e+01,-7.000000000000000000e+00,7.000000000000000000e+00,8.000000000000000000e+00,2.000000000000000000e+00,-1.000000000000000000e+00,-2.000000000000000000e+00,4.255981445312500000e-01,2.249145507812500000e-01,-8.576660156250000000e-01,1.808471679687500000e-01
-2.500000000000000000e+01,-1.000000000000000000e+01,5.000000000000000000e+00,0.000000000000000000e+00,-3.000000000000000000e+00,-2.000000000000000000e+00,1.000000000000000000e+00,0.000000000000000000e+00,4.255981445312500000e-01,2.249145507812500000e-01,-8.576660156250000000e-01,1.808471679687500000e-01
7.000000000000000000e+00,0.000000000000000000e+00,-7.000000000000000000e+00,-1.000000000000000000e+00,0.000000000000000000e+00,2.000000000000000000e+00,-1.000000000000000000e+00,0.000000000000000000e+00,4.255981445312500000e-01,2.249145507812500000e-01,-8.576660156250000000e-01,1.808471679687500000e-01
2.000000000000000000e+00,0.000000000000000000e+00,-4.000000000000000000e+00,-2.000000000000000000e+00,-5.000000000000000000e+00,-5.000000000000000000e+00,-5.000000000000000000e+00,-1.000000000000000000e+00,4.254760742187500000e-01,2.248535156250000000e-01,-8.577880859375000000e-01,1.806030273437500000e-01
-4.000000000000000000e+00,3.000000000000000000e+00,-1.000000000000000000e+00,-2.000000000000000000e+00,-5.000000000000000000e+00,-2.000000000000000000e+00,-2.000000000000000000e+00,-1.000000000000000000e+00,4.254760742187500000e-01,2.248535156250000000e-01,-8.577880859375000000e-01,1.806030273437500000e-01
1.000000000000000000e+01,3.000000000000000000e+00,-3.000000000000000000e+00,0.000000000000000000e+00,2.000000000000000000e+00,-1.000000000000000000e+00,0.000000000000000000e+00,1.000000000000000000e+00,4.254760742187500000e-01,2.248535156250000000e-01,-8.577880859375000000e-01,1.806030273437500000e-01
-3.000000000000000000e+00,-1.000000000000000000e+00,-3.000000000000000000e+00,-1.000000000000000000e+00,5.000000000000000000e+00,1.000000000000000000e+00,-5.000000000000000000e+00,-1.000000000000000000e+00,4.254760742187500000e-01,2.248535156250000000e-01,-8.577880859375000000e-01,1.806030273437500000e-01
4.000000000000000000e+00,2.000000000000000000e+00,-1.000000000000000000e+00,-3.000000000000000000e+00,-2.000000000000000000e+00,1.000000000000000000e+00,3.000000000000000000e+00,-2.000000000000000000e+00,4.254150390625000000e-01,2.248535156250000000e-01,-8.577880859375000000e-01,1.806030273437500000e-01
-1.100000000000000000e+01,2.000000000000000000e+00,3.000000000000000000e+00,3.000000000000000000e+00,1.000000000000000000e+00,0.000000000000000000e+00,1.000000000000000000e+00,-2.000000000000000000e+00,4.254150390625000000e-01,2.248535156250000000e-01,-8.577880859375000000e-01,1.806030273437500000e-01
8.000000000000000000e+00,6.000000000000000000e+00,-5.000000000000000000e+00,-1.000000000000000000e+00,1.000000000000000000e+00,1.000000000000000000e+00,-1.000000000000000000e+00,-1.000000000000000000e+00,4.254150390625000000e-01,2.248535156250000000e-01,-8.577880859375000000e-01,1.806030273437500000e-01
-7.000000000000000000e+00,-1.400000000000000000e+01,1.300000000000000000e+01,-2.000000000000000000e+00,-6.000000000000000000e+00,-6.000000000000000000e+00,-4.000000000000000000e+00,0.000000000000000000e+00,4.254150390625000000e-01,2.248535156250000000e-01,-8.577880859375000000e-01,1.806030273437500000e-01
4.000000000000000000e+00,-1.000000000000000000e+00,-7.000000000000000000e+00,1.000000000000000000e+00,-2.000000000000000000e+00,0.000000000000000000e+00,2.000000000000000000e+00,-1.000000000000000000e+00,4.254150390625000000e-01,2.248535156250000000e-01,-8.577880859375000000e-01,1.806030273437500000e-01
-2.000000000000000000e+00,2.000000000000000000e+00,-4.000000000000000000e+00,-7.000000000000000000e+00,-1.000000000000000000e+00,-2.000000000000000000e+00,-3.000000000000000000e+00,-1.000000000000000000e+00,4.254150390625000000e-01,2.248535156250000000e-01,-8.577880859375000000e-01,1.806030273437500000e-01
3.000000000000000000e+00,7.000000000000000000e+00,8.000000000000000000e+00,5.000000000000000000e+00,5.000000000000000000e+00,3.000000000000000000e+00,3.000000000000000000e+00,0.000000000000000000e+00,4.254150390625000000e-01,2.248535156250000000e-01,-8.577880859375000000e-01,1.806030273437500000e-01
-1.000000000000000000e+00,1.100000000000000000e+01,-3.000000000000000000e+00,-3.000000000000000000e+00,-6.000000000000000000e+00,-3.000000000000000000e+00,2.000000000000000000e+00,0.000000000000000000e+00,4.254150390625000000e-01,2.248535156250000000e-01,-8.577880859375000000e-01,1.806030273437500000e-01
1.000000000000000000e+01,-6.000000000000000000e+00,-4.000000000000000000e+00,-1.000000000000000000e+00,-2.000000000000000000e+00,-5.000000000000000000e+00,-5.000000000000000000e+00,-3.000000000000000000e+00,4.252929687500000000e-01,2.249145507812500000e-01,-8.578491210937500000e-01,1.806640625000000000e-01
-3.500000000000000000e+01,-5.000000000000000000e+00,-1.000000000000000000e+00,4.000000000000000000e+00,0.000000000000000000e+00,0.000000000000000000e+00,0.000000000000000000e+00,-3.000000000000000000e+00,4.252929687500000000e-01,2.249145507812500000e-01,-8.578491210937500000e-01,1.806640625000000000e-01
6.000000000000000000e+00,-3.000000000000000000e+00,-6.000000000000000000e+00,-3.000000000000000000e+00,-1.000000000000000000e+00,0.000000000000000000e+00,0.000000000000000000e+00,-2.000000000000000000e+00,4.252929687500000000e-01,2.249145507812500000e-01,-8.578491210937500000e-01,1.806640625000000000e-01
2.000000000000000000e+00,-2.000000000000000000e+00,-3.000000000000000000e+00,-6.000000000000000000e+00,-1.000000000000000000e+00,0.000000000000000000e+00,1.000000000000000000e+00,2.000000000000000000e+00,4.252929687500000000e-01,2.249145507812500000e-01,-8.578491210937500000e-01,1.806640625000000000e-01
-1.000000000000000000e+01,-8.000000000000000000e+00,1.000000000000000000e+00,2.000000000000000000e+00,2.000000000000000000e+00,-1.000000000000000000e+00,1.000000000000000000e+00,-4.000000000000000000e+00,4.254150390625000000e-01,2.246704101562500000e-01,-8.578491210937500000e-01,1.805419921875000000e-01
9.000000000000000000e+00,7.000000000000000000e+00,2.000000000000000000e+00,-4.000000000000000000e+00,-4.000000000000000000e+00,-2.000000000000000000e+00,3.000000000000000000e+00,3.000000000000000000e+00,4.254150390625000000e-01,2.246704101562500000e-01,-8.578491210937500000e-01,1.805419921875000000e-01
0.000000000000000000e+00,4.000000000000000000e+00,-1.000000000000000000e+00,0.000000000000000000e+00,1.000000000000000000e+00,0.000000000000000000e+00,-2.000000000000000000e+00,-3.000000000000000000e+00,4.254150390625000000e-01,2.246704101562500000e-01,-8.578491210937500000e-01,1.805419921875000000e-01
-8.000000000000000000e+00,1.000000000000000000e+00,3.000000000000000000e+00,4.000000000000000000e+00,-1.000000000000000000e+00,-3.000000000000000000e+00,-3.000000000000000000e+00,-4.000000000000000000e+00,4.254150390625000000e-01,2.246704101562500000e-01,-8.578491210937500000e-01,1.805419921875000000e-01
-8.000000000000000000e+00,-1.300000000000000000e+01,0.000000000000000000e+00,0.000000000000000000e+00,-1.000000000000000000e+00,2.000000000000000000e+00,-3.000000000000000000e+00,-2.000000000000000000e+00,4.255981445312500000e-01,2.241210937500000000e-01,-8.579101562500000000e-01,1.806030273437500000e-01
2.800000000000000000e+01,2.200000000000000000e+01,2.000000000000000000e+00,1.000000000000000000e+00,3.000000000000000000e+00,1.000000000000000000e+00,1.000000000000000000e+00,1.000000000000000000e+00,4.255981445312500000e-01,2.241210937500000000e-01,-8.579101562500000000e-01,1.806030273437500000e-01
-4.400000000000000000e+01,-1.600000000000000000e+01,-1.000000000000000000e+01,-6.000000000000000000e+00,-3.000000000000000000e+00,-3.000000000000000000e+00,0.000000000000000000e+00,-3.000000000000000000e+00,4.255981445312500000e-01,2.241210937500000000e-01,-8.579101562500000000e-01,1.806030273437500000e-01
9.000000000000000000e+00,-1.600000000000000000e+01,-1.200000000000000000e+01,-4.000000000000000000e+00,-2.000000000000000000e+00,4.000000000000000000e+00,3.000000000000000000e+00,0.000000000000000000e+00,4.255981445312500000e-01,2.241210937500000000e-01,-8.579101562500000000e-01,1.806030273437500000e-01
-8.000000000000000000e+00,-4.000000000000000000e+00,3.000000000000000000e+00,1.000000000000000000e+00,-1.000000000000000000e+00,-2.000000000000000000e+00,-2.000000000000000000e+00,-4.000000000000000000e+00,4.257202148437500000e-01,2.238769531250000000e-01,-8.578491210937500000e-01,1.808471679687500000e-01
9.000000000000000000e+00,0.000000000000000000e+00,0.000000000000000000e+00,1.000000000000000000e+00,2.000000000000000000e+00,2.000000000000000000e+00,0.000000000000000000e+00,-1.000000000000000000e+00,4.257202148437500000e-01,2.238769531250000000e-01,-8.578491210937500000e-01,1.808471679687500000e-01
2.000000000000000000e+01,3.000000000000000000e+00,5.000000000000000000e+00,2.000000000000000000e+00,-1.000000000000000000e+00,1.000000000000000000e+00,-4.000000000000000000e+00,0.000000000000000000e+00,4.257202148437500000e-01,2.238769531250000000e-01,-8.578491210937500000e-01,1.808471679687500000e-01
-1.300000000000000000e+01,3.000000000000000000e+00,-7.000000000000000000e+00,1.000000000000000000e+01,0.000000000000000000e+00,-4.000000000000000000e+00,-2.000000000000000000e+00,0.000000000000000000e+00,4.257202148437500000e-01,2.238769531250000000e-01,-8.578491210937500000e-01,1.808471679687500000e-01
-1.400000000000000000e+01,7.000000000000000000e+00,0.000000000000000000e+00,-1.100000000000000000e+01,2.000000000000000000e+00,-2.000000000000000000e+00,2.000000000000000000e+00,-1.000000000000000000e+00,4.257812500000000000e-01,2.238159179687500000e-01,-8.577880859375000000e-01,1.810913085937500000e-01
-3.000000000000000000e+00,-1.600000000000000000e+01,-4.000000000000000000e+00,-5.000000000000000000e+00,-3.000000000000000000e+00,2.000000000000000000e+00,2.000000000000000000e+00,0.000000000000000000e+00,4.257812500000000000e-01,2.238159179687500000e-01,-8.577880859375000000e-01,1.810913085937500000e-01
5.000000000000000000e+00,6.000000000000000000e+00,-5.000000000000000000e+00,7.000000000000000000e+00,2.000000000000000000e+00,-1.000000000000000000e+00,-2.000000000000000000e+00,2.000000000000000000e+00,4.257812500000000000e-01,2.238159179687500000e-01,-8.577880859375000000e-01,1.810913085937500000e-01
7.000000000000000000e+00,1.000000000000000000e+00,-2.000000000000000000e+00,-2.000000000000000000e+00,0.000000000000000000e+00,-2.000000000000000000e+00,-3.000000000000000000e+00,0.000000000000000000e+00,4.257812500000000000e-01,2.238159179687500000e-01,-8.577880859375000000e-01,1.810913085937500000e-01
-2.000000000000000000e+00,-1.300000000000000000e+01,-2.000000000000000000e+00,-1.000000000000000000e+00,-4.000000000000000000e+00,0.000000000000000000e+00,-3.000000000000000000e+00,-4.000000000000000000e+00,4.256591796875000000e-01,2.234497070312500000e-01,-8.579711914062500000e-01,1.810913085937500000e-01
-5.000000000000000000e+00,1.000000000000000000e+00,-1.000000000000000000e+00,0.000000000000000000e+00,1.000000000000000000e+00,0.000000000000000000e+00,-5.000000000000000000e+00,-3.000000000000000000e+00,4.256591796875000000e-01,2.234497070312500000e-01,-8.579711914062500000e-01,1.810913085937500000e-01
-9.000000000000000000e+00,-1.200000000000000000e+01,6.000000000000000000e+00,-5.000000000000000000e+00,-5.000000000000000000e+00,-5.000000000000000000e+00,0.000000000000000000e+00,1.000000000000000000e+00,4.256591796875000000e-01,2.234497070312500000e-01,-8.579711914062500000e-01,1.810913085937500000e-01
3.000000000000000000e+00,4.000000000000000000e+00,7.000000000000000000e+00,3.000000000000000000e+00,2.000000000000000000e+00,2.000000000000000000e+00,1.000000000000000000e+00,0.000000000000000000e+00,4.256591796875000000e-01,2.234497070312500000e-01,-8.579711914062500000e-01,1.810913085937500000e-01
4.000000000000000000e+00,3.000000000000000000e+00,-8.000000000000000000e+00,3.000000000000000000e+00,0.000000000000000000e+00,3.000000000000000000e+00,1.000000000000000000e+00,-1.000000000000000000e+00,4.256591796875000000e-01,2.229003906250000000e-01,-8.581542968750000000e-01,1.808471679687500000e-01
-2.000000000000000000e+00,-4.000000000000000000e+00,-6.000000000000000000e+00,-6.000000000000000000e+00,-4.000000000000000000e+00,-6.000000000000000000e+00,-3.000000000000000000e+00,-1.000000000000000000e+00,4.256591796875000000e-01,2.229003906250000000e-01,-8.581542968750000000e-01,1.808471679687500000e-01
8.000000000000000000e+00,4.000000000000000000e+00,0.000000000000000000e+00,-1.000000000000000000e+00,-5.000000000000000000e+00,-3.000000000000000000e+00,-7.000000000000000000e+00,-6.000000000000000000e+00,4.256591796875000000e-01,2.229003906250000000e-01,-8.581542968750000000e-01,1.808471679687500000e-01
-3.000000000000000000e+00,7.000000000000000000e+00,-1.000000000000000000e+00,-1.000000000000000000e+00,4.000000000000000000e+00,2.000000000000000000e+00,2.000000000000000000e+00,0.000000000000000000e+00,4.256591796875000000e-01,2.229003906250000000e-01,-8.581542968750000000e-01,1.808471679687500000e-01
-6.000000000000000000e+00,-9.000000000000000000e+00,-7.000000000000000000e+00,-2.000000000000000000e+00,2.000000000000000000e+00,-3.000000000000000000e+00,-1.000000000000000000e+00,1.000000000000000000e+00,4.255981445312500000e-01,2.225341796875000000e-01,-8.582763671875000000e-01,1.807861328125000000e-01
0.000000000000000000e+00,0.000000000000000000e+00,2.000000000000000000e+00,-5.000000000000000000e+00,-1.000000000000000000e+00,-2.000000000000000000e+00,-5.000000000000000000e+00,-2.000000000000000000e+00,4.255981445312500000e-01,2.225341796875000000e-01,-8.582763671875000000e-01,1.807861328125000000e-01
3.000000000000000000e+00,-1.000000000000000000e+00,-7.000000000000000000e+00,1.000000000000000000e+00,-5.000000000000000000e+00,-1.000000000000000000e+00,4.000000000000000000e+00,2.000000000000000000e+00,4.255981445312500000e-01,2.225341796875000000e-01,-8.582763671875000000e-01,1.807861328125000000e-01
-4.000000000000000000e+00,-8.000000000000000000e+00,6.000000000000000000e+00,-1.000000000000000000e+00,6.000000000000000000e+00,-5.000000000000000000e+00,-5.000000000000000000e+00,-3.000000000000000000e+00,4.255981445312500000e-01,2.225341796875000000e-01,-8.582763671875000000e-01,1.807861328125000000e-01
-4.000000000000000000e+00,4.000000000000000000e+00,1.000000000000000000e+00,1.000000000000000000e+00,-1.100000000000000000e+01,-4.000000000000000000e+00,-2.000000000000000000e+00,0.000000000000000000e+00,4.252929687500000000e-01,2.224121093750000000e-01,-8.584594726562500000e-01,1.808471679687500000e-01
2.000000000000000000e+01,5.000000000000000000e+00,-7.000000000000000000e+00,-7.000000000000000000e+00,-4.000000000000000000e+00,-5.000000000000000000e+00,-1.000000000000000000e+00,0.000000000000000000e+00,4.252929687500000000e-01,2.224121093750000000e-01,-8.584594726562500000e-01,1.808471679687500000e-01
-8.000000000000000000e+00,-8.000000000000000000e+00,2.000000000000000000e+00,1.000000000000000000e+00,1.000000000000000000e+01,7.000000000000000000e+00,4.000000000000000000e+00,1.000000000000000000e+00,4.252929687500000000e-01,2.224121093750000000e-01,-8.584594726562500000e-01,1.808471679687500000e-01
-1.900000000000000000e+01,0.000000000000000000e+00,-4.000000000000000000e+00,-5.000000000000000000e+00,0.000000000000000000e+00,5.000000000000000000e+00,0.000000000000000000e+00,0.000000000000000000e+00,4.252929687500000000e-01,2.224121093750000000e-01,-8.584594726562500000e-01,1.808471679687500000e-01
8.000000000000000000e+00,2.000000000000000000e+00,3.000000000000000000e+00,8.000000000000000000e+00,1.000000000000000000e+00,0.000000000000000000e+00,0.000000000000000000e+00,-1.000000000000000000e+00,4.248657226562500000e-01,2.224121093750000000e-01,-8.586425781250000000e-01,1.809692382812500000e-01
4.000000000000000000e+00,0.000000000000000000e+00,5.000000000000000000e+00,-9.000000000000000000e+00,-4.000000000000000000e+00,0.000000000000000000e+00,2.000000000000000000e+00,3.000000000000000000e+00,4.248657226562500000e-01,2.224121093750000000e-01,-8.586425781250000000e-01,1.809692382812500000e-01
4.000000000000000000e+00,3.000000000000000000e+00,-5.000000000000000000e+00,6.000000000000000000e+00,-3.000000000000000000e+00,-7.000000000000000000e+00,-1.000000000000000000e+00,0.000000000000000000e+00,4.248657226562500000e-01,2.224121093750000000e-01,-8.586425781250000000e-01,1.809692382812500000e-01
-5.000000000000000000e+00,-2.000000000000000000e+00,-4.000000000000000000e+00,-6.000000000000000000e+00,0.000000000000000000e+00,0.000000000000000000e+00,-4.000000000000000000e+00,-5.000000000000000000e+00,4.248657226562500000e-01,2.224121093750000000e-01,-8.586425781250000000e-01,1.809692382812500000e-01
-2.000000000000000000e+00,-8.000000000000000000e+00,6.000000000000000000e+00,1.000000000000000000e+00,0.000000000000000000e+00,0.000000000000000000e+00,-2.000000000000000000e+00,-2.000000000000000000e+00,4.241943359375000000e-01,2.225341796875000000e-01,-8.589477539062500000e-01,1.809692382812500000e-01
-1.000000000000000000e+00,2.000000000000000000e+00,-1.000000000000000000e+00,5.000000000000000000e+00,0.000000000000000000e+00,-2.000000000000000000e+00,1.000000000000000000e+00,-1.000000000000000000e+00,4.241943359375000000e-01,2.225341796875000000e-01,-8.589477539062500000e-01,1.809692382812500000e-01
1.000000000000000000e+00,1.400000000000000000e+01,-5.000000000000000000e+00,-6.000000000000000000e+00,1.000000000000000000e+00,3.000000000000000000e+00,-2.000000000000000000e+00,-3.000000000000000000e+00,4.241943359375000000e-01,2.225341796875000000e-01,-8.589477539062500000e-01,1.809692382812500000e-01
1.000000000000000000e+00,-7.000000000000000000e+00,3.000000000000000000e+00,-4.000000000000000000e+00,-4.000000000000000000e+00,-4.000000000000000000e+00,-2.000000000000000000e+00,-2.000000000000000000e+00,4.241943359375000000e-01,2.225341796875000000e-01,-8.589477539062500000e-01,1.809692382812500000e-01
-1.000000000000000000e+00,2.000000000000000000e+00,-7.000000000000000000e+00,-5.000000000000000000e+00,-6.000000000000000000e+00,-2.000000000000000000e+00,0.000000000000000000e+00,1.000000000000000000e+00,4.237670898437500000e-01,2.223510742187500000e-01,-8.592529296875000000e-01,1.808471679687500000e-01
-7.000000000000000000e+00,-1.000000000000000000e+01,-1.000000000000000000e+00,8.000000000000000000e+00,4.000000000000000000e+00,3.000000000000000000e+00,-1.000000000000000000e+00,-2.000000000000000000e+00,4.237670898437500000e-01,2.223510742187500000e-01,-8.592529296875000000e-01,1.808471679687500000e-01
7.000000000000000000e+00,4.000000000000000000e+00,9.000000000000000000e+00,-2.000000000000000000e+00,1.000000000000000000e+00,-3.000000000000000000e+00,-5.000000000000000000e+00,2.000000000000000000e+00,4.237670898437500000e-01,2.223510742187500000e-01,-8.592529296875000000e-01,1.808471679687500000e-01
5.000000000000000000e+00,4.000000000000000000e+00,-8.000000000000000000e+00,-4.000000000000000000e+00,-7.000000000000000000e+00,-3.000000000000000000e+00,1.000000000000000000e+00,2.000000000000000000e+00,4.237670898437500000e-01,2.223510742187500000e-01,-8.592529296875000000e-01,1.808471679687500000e-01
-2.000000000000000000e+00,6.000000000000000000e+00,5.000000000000000000e+00,-3.000000000000000000e+00,2.000000000000000000e+00,3.000000000000000000e+00,2.000000000000000000e+00,2.000000000000000000e+00,4.234008789062500000e-01,2.220458984375000000e-01,-8.594970703125000000e-01,1.809082031250000000e-01
-4.000000000000000000e+00,-5.000000000000000000e+00,-7.000000000000000000e+00,-1.000000000000000000e+00,-4.000000000000000000e+00,1.000000000000000000e+00,-3.000000000000000000e+00,-2.000000000000000000e+00,4.234008789062500000e-01,2.220458984375000000e-01,-8.594970703125000000e-01,1.809082031250000000e-01
1.000000000000000000e+00,3.000000000000000000e+00,1.000000000000000000e+00,7.000000000000000000e+00,4.000000000000000000e+00,-1.000000000000000000e+00,-1.000000000000000000e+00,1.000000000000000000e+00,4.234008789062500000e-01,2.220458984375000000e-01,-8.594970703125000000e-01,1.809082031250000000e-01
-1.000000000000000000e+00,-8.000000000000000000e+00,0.000000000000000000e+00,-4.000000000000000000e+00,0.000000000000000000e+00,1.000000000000000000e+00,6.000000000000000000e+00,2.000000000000000000e+00,4.234008789062500000e-01,2.220458984375000000e-01,-8.594970703125000000e-01,1.809082031250000000e-01
3.000000000000000000e+00,0.000000000000000000e+00,-1.000000000000000000e+00,0.000000000000000000e+00,0.000000000000000000e+00,-4.000000000000000000e+00,-3.000000000000000000e+00,-1.000000000000000000e+00,4.230346679687500000e-01,2.220458984375000000e-01,-8.596191406250000000e-01,1.809692382812500000e-01
-6.000000000000000000e+00,5.000000000000000000e+00,-2.000000000000000000e+00,4.000000000000000000e+00,-5.000000000000000000e+00,-2.000000000000000000e+00,0.000000000000000000e+00,-1.000000000000000000e+00,4.230346679687500000e-01,2.220458984375000000e-01,-8.596191406250000000e-01,1.809692382812500000e-01
-1.400000000000000000e+01,-9.000000000000000000e+00,-4.000000000000000000e+00,-5.000000000000000000e+00,-5.000000000000000000e+00,-3.000000000000000000e+00,-1.000000000000000000e+00,-3.000000000000000000e+00,4.230346679687500000e-01,2.220458984375000000e-01,-8.596191406250000000e-01,1.809692382812500000e-01
1.700000000000000000e+01,9.000000000000000000e+00,1.000000000000000000e+00,-3.000000000000000000e+00,-9.000000000000000000e+00,-5.000000000000000000e+00,-3.000000000000000000e+00,1.000000000000000000e+00,4.230346679687500000e-01,2.220458984375000000e-01,-8.596191406250000000e-01,1.809692382812500000e-01
-2.000000000000000000e+00,-1.000000000000000000e+00,0.000000000000000000e+00,-3.000000000000000000e+00,-5.000000000000000000e+00,-4.000000000000000000e+00,2.000000000000000000e+00,-2.000000000000000000e+00,4.227905273437500000e-01,2.220458984375000000e-01,-8.598022460937500000e-01,1.808471679687500000e-01
0.000000000000000000e+00,-1.400000000000000000e+01,-2.000000000000000000e+00,6.000000000000000000e+00,9.000000000000000000e+00,3.000000000000000000e+00,-3.000000000000000000e+00,-2.000000000000000000e+00,4.227905273437500000e-01,2.220458984375000000e-01,-8.598022460937500000e-01,1.808471679687500000e-01
5.000000000000000000e+00,-1.000000000000000000e+00,4.000000000000000000e+00,3.000000000000000000e+00,0.000000000000000000e+00,3.000000000000000000e+00,2.000000000000000000e+00,1.000000000000000000e+00,4.227905273437500000e-01,2.220458984375000000e-01,-8.598022460937500000e-01,1.808471679687500000e-01
1.400000000000000000e+01,4.000000000000000000e+00,-7.000000000000000000e+00,1.000000000000000000e+00,1.000000000000000000e+00,-2.000000000000000000e+00,1.000000000000000000e+00,1.000000000000000000e+00,4.227905273437500000e-01,2.220458984375000000e-01,-8.598022460937500000e-01,1.808471679687500000e-01
0.000000000000000000e+00,9.000000000000000000e+00,-2.000000000000000000e+00,-1.000000000000000000e+00,-2.000000000000000000e+00,0.000000000000000000e+00,-2.000000000000000000e+00,-1.000000000000000000e+00,4.227294921875000000e-01,2.220458984375000000e-01,-8.598022460937500000e-01,1.808471679687500000e-01
-4.900000000000000000e+01,-1.500000000000000000e+01,2.000000000000000000e+00,-7.000000000000000000e+00,-8.000000000000000000e+00,-8.000000000000000000e+00,-7.000000000000000000e+00,-4.000000000000000000e+00,4.227294921875000000e-01,2.220458984375000000e-01,-8.598022460937500000e-01,1.808471679687500000e-01
-2.000000000000000000e+00,1.000000000000000000e+00,-5.000000000000000000e+00,1.000000000000000000e+00,0.000000000000000000e+00,-1.000000000000000000e+00,-1.000000000000000000e+00,-3.000000000000000000e+00,4.226074218750000000e-01,2.221679687500000000e-01,-8.598022460937500000e-01,1.809692382812500000e-01
1.000000000000000000e+00,3.000000000000000000e+00,-3.000000000000000000e+00,2.000000000000000000e+00,-1.000000000000000000e+00,2.000000000000000000e+00,3.000000000000000000e+00,3.000000000000000000e+00,4.226074218750000000e-01,2.221679687500000000e-01,-8.598022460937500000e-01,1.809692382812500000e-01
6.000000000000000000e+00,8.000000000000000000e+00,1.100000000000000000e+01,3.000000000000000000e+00,2.000000000000000000e+00,-1.000000000000000000e+00,-1.000000000000000000e+00,0.000000000000000000e+00,4.226074218750000000e-01,2.221679687500000000e-01,-8.598022460937500000e-01,1.809692382812500000e-01
5.000000000000000000e+00,1.000000000000000000e+00,-6.000000000000000000e+00,-7.000000000000000000e+00,-4.000000000000000000e+00,-4.000000000000000000e+00,-4.000000000000000000e+00,0.000000000000000000e+00,4.226074218750000000e-01,2.221679687500000000e-01,-8.598022460937500000e-01,1.809692382812500000e-01
-1.000000000000000000e+00,-8.000000000000000000e+00,4.000000000000000000e+00,-7.000000000000000000e+00,-3.000000000000000000e+00,1.000000000000000000e+00,-2.000000000000000000e+00,-1.000000000000000000e+00,4.226074218750000000e-01,2.222290039062500000e-01,-8.598022460937500000e-01,1.809692382812500000e-01
-8.000000000000000000e+00,-8.000000000000000000e+00,0.000000000000000000e+00,1.000000000000000000e+00,-2.000000000000000000e+00,-4.000000000000000000e+00,-2.000000000000000000e+00,-3.000000000000000000e+00,4.226074218750000000e-01,2.222290039062500000e-01,-8.598022460937500000e-01,1.809692382812500000e-01
-2.000000000000000000e+00,2.000000000000000000e+00,-4.000000000000000000e+00,-1.000000000000000000e+00,-4.000000000000000000e+00,-2.000000000000000000e+00,0.000000000000000000e+00,0.000000000000000000e+00,4.226074218750000000e-01,2.222290039062500000e-01,-8.598022460937500000e-01,1.809692382812500000e-01
7.000000000000000000e+00,4.000000000000000000e+00,3.000000000000000000e+00,2.000000000000000000e+00,3.000000000000000000e+00,3.000000000000000000e+00,0.000000000000000000e+00,0.000000000000000000e+00,4.226074218750000000e-01,2.222290039062500000e-01,-8.598022460937500000e-01,1.809692382812500000e-01
-7.000000000000000000e+00,3.000000000000000000e+00,-1.000000000000000000e+00,2.000000000000000000e+00,4.000000000000000000e+00,-3.000000000000000000e+00,1.000000000000000000e+00,0.000000000000000000e+00,4.225463867187500000e-01,2.222290039062500000e-01,-8.598632812500000000e-01,1.809692382812500000e-01
-5.000000000000000000e+00,-7.000000000000000000e+00,-5.000000000000000000e+00,-3.000000000000000000e+00,3.000000000000000000e+00,1.000000000000000000e+00,-3.000000000000000000e+00,-4.000000000000000000e+00,4.225463867187500000e-01,2.222290039062500000e-01,-8.598632812500000000e-01,1.809692382812500000e-01
5.000000000000000000e+00,-7.000000000000000000e+00,-2.000000000000000000e+00,1.000000000000000000e+00,1.000000000000000000e+00,-2.000000000000000000e+00,2.000000000000000000e+00,2.000000000000000000e+00,4.225463867187500000e-01,2.222290039062500000e-01,-8.598632812500000000e-01,1.809692382812500000e-01
-8.000000000000000000e+00,-6.000000000000000000e+00,-6.000000000000000000e+00,-5.000000000000000000e+00,-7.000000000000000000e+00,-5.000000000000000000e+00,1.000000000000000000e+00,0.000000000000000000e+00,4.225463867187500000e-01,2.222290039062500000e-01,-8.598632812500000000e-01,1.809692382812500000e-01
1.100000000000000000e+01,5.000000000000000000e+00,2.000000000000000000e+00,-4.000000000000000000e+00,-7.000000000000000000e+00,-3.000000000000000000e+00,-2.000000000000000000e+00,-1.000000000000000000e+00,4.225463867187500000e-01,2.222290039062500000e-01,-8.598632812500000000e-01,1.809692382812500000e-01
-1.100000000000000000e+01,-9.000000000000000000e+00,-1.000000000000000000e+00,2.000000000000000000e+00,-1.000000000000000000e+00,-1.000000000000000000e+00,0.000000000000000000e+00,-3.000000000000000000e+00,4.225463867187500000e-01,2.222290039062500000e-01,-8.598632812500000000e-01,1.809692382812500000e-01
-4.000000000000000000e+00,1.000000000000000000e+00,3.000000000000000000e+00,-5.000000000000000000e+00,-8.000000000000000000e+00,-5.000000000000000000e+00,-6.000000000000000000e+00,-2.000000000000000000e+00,4.225463867187500000e-01,2.222290039062500000e-01,-8.598632812500000000e-01,1.809692382812500000e-01
4.000000000000000000e+00,-4.000000000000000000e+00,-5.000000000000000000e+00,0.000000000000000000e+00,3.000000000000000000e+00,1.000000000000000000e+00,-4.000000000000000000e+00,-6.000000000000000000e+00,4.225463867187500000e-01,2.222290039062500000e-01,-8.598632812500000000e-01,1.809692382812500000e-01
6.000000000000000000e+00,-2.000000000000000000e+00,-1.700000000000000000e+01,6.000000000000000000e+00,8.000000000000000000e+00,6.000000000000000000e+00,4.000000000000000000e+00,1.000000000000000000e+00,4.224243164062500000e-01,2.219238281250000000e-01,-8.599243164062500000e-01,1.812133789062500000e-01
5.000000000000000000e+00,-2.000000000000000000e+00,2.000000000000000000e+00,-3.000000000000000000e+00,1.000000000000000000e+00,1.000000000000000000e+00,-1.000000000000000000e+00,0.000000000000000000e+00,4.224243164062500000e-01,2.219238281250000000e-01,-8.599243164062500000e-01,1.812133789062500000e-01
0.000000000000000000e+00,-5.000000000000000000e+00,-1.100000000000000000e+01,-1.000000000000000000e+00,3.000000000000000000e+00,4.000000000000000000e+00,0.000000000000000000e+00,-2.000000000000000000e+00,4.224243164062500000e-01,2.219238281250000000e-01,-8.599243164062500000e-01,1.812133789062500000e-01
6.000000000000000000e+00,4.000000000000000000e+00,5.000000000000000000e+00,0.000000000000000000e+00,-3.000000000000000000e+00,-3.000000000000000000e+00,4.000000000000000000e+00,1.000000000000000000e+00,4.224243164062500000e-01,2.219238281250000000e-01,-8.599243164062500000e-01,1.812133789062500000e-01
-3.000000000000000000e+00,6.000000000000000000e+00,1.000000000000000000e+00,0.000000000000000000e+00,-6.000000000000000000e+00,-5.000000000000000000e+00,-2.000000000000000000e+00,-2.000000000000000000e+00,4.221191406250000000e-01,2.221679687500000000e-01,-8.599243164062500000e-01,1.815185546875000000e-01
-5.000000000000000000e+00,-4.000000000000000000e+00,-4.000000000000000000e+00,-4.000000000000000000e+00,-4.000000000000000000e+00,-4.000000000000000000e+00,-5.000000000000000000e+00,-4.000000000000000000e+00,4.221191406250000000e-01,2.221679687500000000e-01,-8.599243164062500000e-01,1.815185546875000000e-01
1.000000000000000000e+00,-9.000000000000000000e+00,-1.000000000000000000e+00,3.000000000000000000e+00,0.000000000000000000e+00,3.000000000000000000e+00,1.000000000000000000e+00,0.000000000000000000e+00,4.221191406250000000e-01,2.221679687500000000e-01,-8.599243164062500000e-01,1.815185546875000000e-01
1.100000000000000000e+01,7.000000000000000000e+00,5.000000000000000000e+00,1.100000000000000000e+01,1.300000000000000000e+01,0.000000000000000000e+00,2.000000000000000000e+00,1.000000000000000000e+00,4.221191406250000000e-01,2.221679687500000000e-01,-8.599243164062500000e-01,1.815185546875000000e-01
1.400000000000000000e+01,6.000000000000000000e+00,-1.000000000000000000e+00,1.000000000000000000e+00,8.000000000000000000e+00,0.000000000000000000e+00,-1.000000000000000000e+00,-1.000000000000000000e+00,4.218750000000000000e-01,2.221679687500000000e-01,-8.601074218750000000e-01,1.813964843750000000e-01
-2.100000000000000000e+01,0.000000000000000000e+00,1.000000000000000000e+01,-2.000000000000000000e+00,-5.000000000000000000e+00,-1.000000000000000000e+00,1.000000000000000000e+00,-1.000000000000000000e+00,4.218750000000000000e-01,2.221679687500000000e-01,-8.601074218750000000e-01,1.813964843750000000e-01
0.000000000000000000e+00,3.000000000000000000e+00,-2.000000000000000000e+00,-1.000000000000000000e+00,-2.000000000000000000e+00,-1.000000000000000000e+00,-3.000000000000000000e+00,-2.000000000000000000e+00,4.218750000000000000e-01,2.221679687500000000e-01,-8.601074218750000000e-01,1.813964843750000000e-01
-8.000000000000000000e+00,-1.500000000000000000e+01,-5.000000000000000000e+00,-6.000000000000000000e+00,-4.000000000000000000e+00,1.000000000000000000e+00,2.000000000000000000e+00,0.000000000000000000e+00,4.218750000000000000e-01,2.221679687500000000e-01,-8.601074218750000000e-01,1.813964843750000000e-01
1.200000000000000000e+01,0.000000000000000000e+00,2.000000000000000000e+00,-2.000000000000000000e+00,-6.000000000000000000e+00,-3.000000000000000000e+00,-3.000000000000000000e+00,-1.000000000000000000e+00,4.216918945312500000e-01,2.218627929687500000e-01,-8.602905273437500000e-01,1.812744140625000000e-01
4.000000000000000000e+00,7.000000000000000000e+00,3.000000000000000000e+00,-2.000000000000000000e+00,0.000000000000000000e+00,-1.000000000000000000e+00,-2.000000000000000000e+00,-2.000000000000000000e+00,4.216918945312500000e-01,2.218627929687500000e-01,-8.602905273437500000e-01,1.812744140625000000e-01
0.000000000000000000e+00,-2.000000000000000000e+00,-3.000000000000000000e+00,-2.000000000000000000e+00,5.000000000000000000e+00,-1.000000000000000000e+00,-1.000000000000000000e+00,-1.000000000000000000e+00,4.216918945312500000e-01,2.218627929687500000e-01,-8.602905273437500000e-01,1.812744140625000000e-01
0.000000000000000000e+00,1.000000000000000000e+01,5.000000000000000000e+00,8.000000000000000000e+00,4.000000000000000000e+00,2.000000000000000000e+00,2.000000000000000000e+00,0.000000000000000000e+00,4.216918945312500000e-01,2.218627929687500000e-01,-8.602905273437500000e-01,1.812744140625000000e-01
-1.200000000000000000e+01,-1.100000000000000000e+01,-3.000000000000000000e+00,-8.000000000000000000e+00,-5.000000000000000000e+00,-1.000000000000000000e+00,0.000000000000000000e+00,3.000000000000000000e+00,4.214477539062500000e-01,2.217407226562500000e-01,-8.604125976562500000e-01,1.813354492187500000e-01
-2.000000000000000000e+00,-8.000000000000000000e+00,-2.000000000000000000e+00,0.000000000000000000e+00,-3.000000000000000000e+00,-3.000000000000000000e+00,-4.000000000000000000e+00,-5.000000000000000000e+00,4.214477539062500000e-01,2.217407226562500000e-01,-8.604125976562500000e-01,1.813354492187500000e-01
-1.100000000000000000e+01,-7.000000000000000000e+00,-9.000000000000000000e+00,-5.000000000000000000e+00,-4.000000000000000000e+00,-6.000000000000000000e+00,-3.000000000000000000e+00,-3.000000000000000000e+00,4.214477539062500000e-01,2.217407226562500000e-01,-8.604125976562500000e-01,1.813354492187500000e-01
1.000000000000000000e+00,1.000000000000000000e+00,-4.000000000000000000e+00,0.000000000000000000e+00,-3.000000000000000000e+00,-4.000000000000000000e+00,-2.000000000000000000e+00,-1.000000000000000000e+00,4.214477539062500000e-01,2.217407226562500000e-01,-8.604125976562500000e-01,1.813354492187500000e-01
-5.000000000000000000e+00,1.000000000000000000e+00,5.000000000000000000e+00,-3.000000000000000000e+00,-4.000000000000000000e+00,-2.000000000000000000e+00,2.000000000000000000e+00,-1.000000000000000000e+00,4.210205078125000000e-01,2.219238281250000000e-01,-8.605346679687500000e-01,1.817016601562500000e-01
0.000000000000000000e+00,7.000000000000000000e+00,-2.000000000000000000e+00,0.000000000000000000e+00,-2.000000000000000000e+00,1.000000000000000000e+00,5.000000000000000000e+00,0.000000000000000000e+00,4.210205078125000000e-01,2.219238281250000000e-01,-8.605346679687500000e-01,1.817016601562500000e-01
8.000000000000000000e+00,-3.000000000000000000e+00,0.000000000000000000e+00,2.000000000000000000e+00,2.000000000000000000e+00,3.000000000000000000e+00,-1.000000000000000000e+00,2.000000000000000000e+00,4.210205078125000000e-01,2.219238281250000000e-01,-8.605346679687500000e-01,1.817016601562500000e-01
4.000000000000000000e+00,4.000000000000000000e+00,4.000000000000000000e+00,-2.000000000000000000e+00,-3.000000000000000000e+00,-3.000000000000000000e+00,1.000000000000000000e+00,-1.000000000000000000e+00,4.210205078125000000e-01,2.219238281250000000e-01,-8.605346679687500000e-01,1.817016601562500000e-01
-4.000000000000000000e+00,-5.000000000000000000e+00,-9.000000000000000000e+00,-4.000000000000000000e+00,-1.000000000000000000e+00,-7.000000000000000000e+00,-5.000000000000000000e+00,-3.000000000000000000e+00,4.206542968750000000e-01,2.219848632812500000e-01,-8.606567382812500000e-01,1.818847656250000000e-01
-1.300000000000000000e+01,-1.000000000000000000e+00,1.000000000000000000e+00,-4.000000000000000000e+00,-3.000000000000000000e+00,-3.000000000000000000e+00,-1.000000000000000000e+00,-4.000000000000000000e+00,4.206542968750000000e-01,2.219848632812500000e-01,-8.606567382812500000e-01,1.818847656250000000e-01
2.000000000000000000e+00,-2.000000000000000000e+00,6.000000000000000000e+00,2.000000000000000000e+00,-1.000000000000000000e+00,0.000000000000000000e+00,-1.000000000000000000e+00,-1.000000000000000000e+00,4.206542968750000000e-01,2.219848632812500000e-01,-8.606567382812500000e-01,1.818847656250000000e-01
4.000000000000000000e+00,-1.000000000000000000e+00,-1.200000000000000000e+01,-9.000000000000000000e+00,-5.000000000000000000e+00,0.000000000000000000e+00,-2.000000000000000000e+00,-1.000000000000000000e+00,4.206542968750000000e-01,2.219848632812500000e-01,-8.606567382812500000e-01,1.818847656250000000e-01
-2.000000000000000000e+00,7.000000000000000000e+00,1.000000000000000000e+01,2.000000000000000000e+00,-3.000000000000000000e+00,2.000000000000000000e+00,0.000000000000000000e+00,-1.000000000000000000e+00,4.205322265625000000e-01,2.218017578125000000e-01,-8.607177734375000000e-01,1.818847656250000000e-01
2.100000000000000000e+01,1.400000000000000000e+01,-1.000000000000000000e+00,-4.000000000000000000e+00,2.000000000000000000e+00,-3.000000000000000000e+00,-3.000000000000000000e+00,1.000000000000000000e+00,4.205322265625000000e-01,2.218017578125000000e-01,-8.607177734375000000e-01,1.818847656250000000e-01
-1.700000000000000000e+01,-4.000000000000000000e+00,1.000000000000000000e+00,6.000000000000000000e+00,5.000000000000000000e+00,1.000000000000000000e+00,3.000000000000000000e+00,1.000000000000000000e+00,4.205322265625000000e-01,2.218017578125000000e-01,-8.607177734375000000e-01,1.818847656250000000e-01
-5.000000000000000000e+00,-1.300000000000000000e+01,-6.000000000000000000e+00,5.000000000000000000e+00,2.000000000000000000e+00,0.000000000000000000e+00,-2.000000000000000000e+00,-2.000000000000000000e+00,4.205322265625000000e-01,2.218017578125000000e-01,-8.607177734375000000e-01,1.818847656250000000e-01
0.000000000000000000e+00,0.000000000000000000e+00,1.200000000000000000e+01,-2.000000000000000000e+00,-1.000000000000000000e+00,-2.000000000000000000e+00,-3.000000000000000000e+00,-3.000000000000000000e+00,4.204711914062500000e-01,2.214965820312500000e-01,-8.608398437500000000e-01,1.819458007812500000e-01
1.000000000000000000e+01,-2.000000000000000000e+00,-9.000000000000000000e+00,-2.000000000000000000e+00,-3.000000000000000000e+00,-1.000000000000000000e+00,-3.000000000000000000e+00,-1.000000000000000000e+00,4.204711914062500000e-01,2.214965820312500000e-01,-8.608398437500000000e-01,1.819458007812500000e-01
-4.000000000000000000e+00,-7.000000000000000000e+00,-1.000000000000000000e+00,-6.000000000000000000e+00,-4.000000000000000000e+00,1.000000000000000000e+00,-1.000000000000000000e+00,-1.000000000000000000e+00,4.204711914062500000e-01,2.214965820312500000e-01,-8.608398437500000000e-01,1.819458007812500000e-01
7.000000000000000000e+00,4.000000000000000000e+00,2.000000000000000000e+00,-3.000000000000000000e+00,-3.000000000000000000e+00,-4.000000000000000000e+00,-4.000000000000000000e+00,-1.000000000000000000e+00,4.204711914062500000e-01,2.214965820312500000e-01,-8.608398437500000000e-01,1.819458007812500000e-01
-1.500000000000000000e+01,-1.100000000000000000e+01,-1.100000000000000000e+01,-1.000000000000000000e+00,-5.000000000000000000e+00,-1.000000000000000000e+00,2.000000000000000000e+00,2.000000000000000000e+00,4.202270507812500000e-01,2.216796875000000000e-01,-8.609008789062500000e-01,1.821289062500000000e-01
-8.000000000000000000e+00,3.000000000000000000e+00,9.000000000000000000e+00,-2.000000000000000000e+00,4.000000000000000000e+00,1.000000000000000000e+00,1.000000000000000000e+00,0.000000000000000000e+00,4.202270507812500000e-01,2.216796875000000000e-01,-8.609008789062500000e-01,1.821289062500000000e-01
2.000000000000000000e+00,-6.000000000000000000e+00,-1.000000000000000000e+00,-3.000000000000000000e+00,-3.000000000000000000e+00,-3.000000000000000000e+00,0.000000000000000000e+00,-1.000000000000000000e+00,4.202270507812500000e-01,2.216796875000000000e-01,-8.609008789062500000e-01,1.821289062500000000e-01
-7.000000000000000000e+00,3.000000000000000000e+00,-1.000000000000000000e+00,0.000000000000000000e+00,8.000000000000000000e+00,6.000000000000000000e+00,1.000000000000000000e+00,1.000000000000000000e+00,4.202270507812500000e-01,2.216796875000000000e-01,-8.609008789062500000e-01,1.821289062500000000e-01
4.000000000000000000e+00,6.000000000000000000e+00,-6.000000000000000000e+00,-3.000000000000000000e+00,1.000000000000000000e+00,1.000000000000000000e+00,-1.000000000000000000e+00,-1.000000000000000000e+00,4.200439453125000000e-01,2.219848632812500000e-01,-8.608398437500000000e-01,1.823120117187500000e-01
-5.000000000000000000e+00,-1.400000000000000000e+01,1.000000000000000000e+00,6.000000000000000000e+00,-1.000000000000000000e+01,-4.000000000000000000e+00,0.000000000000000000e+00,1.000000000000000000e+00,4.200439453125000000e-01,2.219848632812500000e-01,-8.608398437500000000e-01,1.823120117187500000e-01
4.000000000000000000e+00,3.000000000000000000e+00,1.000000000000000000e+00,-3.000000000000000000e+00,7.000000000000000000e+00,2.000000000000000000e+00,0.000000000000000000e+00,-1.000000000000000000e+00,4.200439453125000000e-01,2.219848632812500000e-01,-8.608398437500000000e-01,1.823120117187500000e-01
-2.000000000000000000e+00,-3.000000000000000000e+00,4.000000000000000000e+00,-5.000000000000000000e+00,1.000000000000000000e+00,-2.000000000000000000e+00,2.000000000000000000e+00,-3.000000000000000000e+00,4.200439453125000000e-01,2.219848632812500000e-01,-8.608398437500000000e-01,1.823120117187500000e-01
1.400000000000000000e+01,6.000000000000000000e+00,2.000000000000000000e+00,-1.000000000000000000e+00,-4.000000000000000000e+00,-4.000000000000000000e+00,-6.000000000000000000e+00,-3.000000000000000000e+00,4.200439453125000000e-01,2.219848632812500000e-01,-8.608398437500000000e-01,1.823120117187500000e-01
-3.000000000000000000e+01,-1.500000000000000000e+01,-1.000000000000000000e+01,0.000000000000000000e+00,4.000000000000000000e+00,5.000000000000000000e+00,0.000000000000000000e+00,-3.000000000000000000e+00,4.200439453125000000e-01,2.219848632812500000e-01,-8.608398437500000000e-01,1.823120117187500000e-01
2.000000000000000000e+00,6.000000000000000000e+00,-1.000000000000000000e+00,-2.000000000000000000e+00,-6.000000000000000000e+00,-6.000000000000000000e+00,1.000000000000000000e+00,-1.000000000000000000e+00,4.200439453125000000e-01,2.219848632812500000e-01,-8.608398437500000000e-01,1.823120117187500000e-01
-6.000000000000000000e+00,-1.300000000000000000e+01,-4.000000000000000000e+00,-2.000000000000000000e+00,-7.000000000000000000e+00,-2.000000000000000000e+00,-1.000000000000000000e+00,-1.000000000000000000e+00,4.200439453125000000e-01,2.219848632812500000e-01,-8.608398437500000000e-01,1.823120117187500000e-01
-3.000000000000000000e+00,-3.000000000000000000e+00,5.000000000000000000e+00,2.000000000000000000e+00,-8.000000000000000000e+00,-2.000000000000000000e+00,0.000000000000000000e+00,-3.000000000000000000e+00,4.200439453125000000e-01,2.219238281250000000e-01,-8.609008789062500000e-01,1.820678710937500000e-01
2.500000000000000000e+01,1.300000000000000000e+01,3.000000000000000000e+00,0.000000000000000000e+00,1.300000000000000000e+01,3.000000000000000000e+00,1.000000000000000000e+00,6.000000000000000000e+00,4.200439453125000000e-01,2.219238281250000000e-01,-8.609008789062500000e-01,1.820678710937500000e-01
-2.300000000000000000e+01,-3.000000000000000000e+00,2.000000000000000000e+00,5.000000000000000000e+00,0.000000000000000000e+00,-1.000000000000000000e+00,-4.000000000000000000e+00,-5.000000000000000000e+00,4.200439453125000000e-01,2.219238281250000000e-01,-8.609008789062500000e-01,1.820678710937500000e-01
-3.000000000000000000e+00,-3.000000000000000000e+00,0.000000000000000000e+00,-1.000000000000000000e+00,1.000000000000000000e+00,2.000000000000000000e+00,1.000000000000000000e+00,1.000000000000000000e+00,4.200439453125000000e-01,2.219238281250000000e-01,-8.609008789062500000e-01,1.820678710937500000e-01
-3.000000000000000000e+00,-2.000000000000000000e+00,-1.000000000000000000e+01,-1.000000000000000000e+00,-2.000000000000000000e+00,-1.000000000000000000e+00,-1.000000000000000000e+00,-1.000000000000000000e+00,4.201049804687500000e-01,2.218627929687500000e-01,-8.609008789062500000e-01,1.820678710937500000e-01
1.500000000000000000e+01,1.400000000000000000e+01,3.000000000000000000e+00,-2.000000000000000000e+00,-9.000000000000000000e+00,-4.000000000000000000e+00,-1.000000000000000000e+00,0.000000000000000000e+00,4.201049804687500000e-01,2.218627929687500000e-01,-8.609008789062500000e-01,1.820678710937500000e-01
0.000000000000000000e+00,-1.000000000000000000e+01,-8.000000000000000000e+00,-2.000000000000000000e+00,1.000000000000000000e+00,1.000000000000000000e+00,-2.000000000000000000e+00,-3.000000000000000000e+00,4.201049804687500000e-01,2.218627929687500000e-01,-8.609008789062500000e-01,1.820678710937500000e-01
-2.000000000000000000e+00,-4.000000000000000000e+00,-2.000000000000000000e+00,-3.000000000000000000e+00,-1.000000000000000000e+00,0.000000000000000000e+00,-1.000000000000000000e+00,-4.000000000000000000e+00,4.201049804687500000e-01,2.218627929687500000e-01,-8.609008789062500000e-01,1.820678710937500000e-01
-1.000000000000000000e+00,-8.000000000000000000e+00,-2.000000000000000000e+00,-7.000000000000000000e+00,-1.000000000000000000e+00,-2.000000000000000000e+00,-6.000000000000000000e+00,-3.000000000000000000e+00,4.200439453125000000e-01,2.221679687500000000e-01,-8.608398437500000000e-01,1.822509765625000000e-01
-2.000000000000000000e+00,-6.000000000000000000e+00,5.000000000000000000e+00,1.100000000000000000e+01,2.000000000000000000e+00,-4.000000000000000000e+00,0.000000000000000000e+00,-3.000000000000000000e+00,4.200439453125000000e-01,2.221679687500000000e-01,-8.608398437500000000e-01,1.822509765625000000e-01
4.000000000000000000e+00,7.000000000000000000e+00,9.000000000000000000e+00,-6.000000000000000000e+00,-1.000000000000000000e+00,-2.000000000000000000e+00,2.000000000000000000e+00,3.000000000000000000e+00,4.200439453125000000e-01,2.221679687500000000e-01,-8.608398437500000000e-01,1.822509765625000000e-01
0.000000000000000000e+00,8.000000000000000000e+00,-1.600000000000000000e+01,-6.000000000000000000e+00,-8.000000000000000000e+00,-5.000000000000000000e+00,-5.000000000000000000e+00,-2.000000000000000000e+00,4.200439453125000000e-01,2.221679687500000000e-01,-8.608398437500000000e-01,1.822509765625000000e-01
-4.000000000000000000e+00,-1.600000000000000000e+01,0.000000000000000000e+00,3.000000000000000000e+00,4.000000000000000000e+00,2.000000000000000000e+00,0.000000000000000000e+00,3.000000000000000000e+00,4.199218750000000000e-01,2.225341796875000000e-01,-8.607177734375000000e-01,1.823730468750000000e-01
-5.000000000000000000e+00,1.000000000000000000e+00,-5.000000000000000000e+00,-2.000000000000000000e+00,7.000000000000000000e+00,5.000000000000000000e+00,0.000000000000000000e+00,-1.000000000000000000e+00,4.199218750000000000e-01,2.225341796875000000e-01,-8.607177734375000000e-01,1.823730468750000000e-01
