9.000000000000000000e+00,-5.000000000000000000e+00,-3.000000000000000000e+00,5.000000000000000000e+00,1.000000000000000000e+00,-3.000000000000000000e+00,-5.000000000000000000e+00,0.000000000000000000e+00,-3.869628906250000000e-01,3.354492187500000000e-01,6.867675781250000000e-01,5.157470703125000000e-01
-8.000000000000000000e+00,-7.000000000000000000e+00,-6.000000000000000000e+00,-1.000000000000000000e+01,-3.000000000000000000e+00,9.000000000000000000e+00,6.000000000000000000e+00,-2.000000000000000000e+00,-3.869628906250000000e-01,3.354492187500000000e-01,6.867675781250000000e-01,5.157470703125000000e-01
7.000000000000000000e+00,3.000000000000000000e+00,3.000000000000000000e+00,-1.000000000000000000e+00,2.000000000000000000e+00,-8.000000000000000000e+00,-3.000000000000000000e+00,2.000000000000000000e+00,-3.888549804687500000e-01,3.324584960937500000e-01,6.862792968750000000e-01,5.169067382812500000e-01
1.000000000000000000e+00,2.000000000000000000e+00,-5.000000000000000000e+00,9.000000000000000000e+00,4.000000000000000000e+00,4.000000000000000000e+00,-1.000000000000000000e+00,-2.000000000000000000e+00,-3.888549804687500000e-01,3.324584960937500000e-01,6.862792968750000000e-01,5.169067382812500000e-01
-6.000000000000000000e+00,0.000000000000000000e+00,1.200000000000000000e+01,-1.000000000000000000e+01,-6.000000000000000000e+00,-1.300000000000000000e+01,-8.000000000000000000e+00,0.000000000000000000e+00,-3.888549804687500000e-01,3.324584960937500000e-01,6.862792968750000000e-01,5.169067382812500000e-01
-2.000000000000000000e+00,0.000000000000000000e+00,1.000000000000000000e+00,3.000000000000000000e+00,1.000000000000000000e+00,-4.000000000000000000e+00,-3.000000000000000000e+00,-6.000000000000000000e+00,-3.888549804687500000e-01,3.324584960937500000e-01,6.862792968750000000e-01,5.169067382812500000e-01
-4.000000000000000000e+00,-4.000000000000000000e+00,-3.000000000000000000e+00,-4.000000000000000000e+00,-1.000000000000000000e+00,6.000000000000000000e+00,3.000000000000000000e+00,-1.000000000000000000e+00,-3.908081054687500000e-01,3.296508789062500000e-01,6.857299804687500000e-01,5.180053710937500000e-01
1.000000000000000000e+00,1.000000000000000000e+00,1.000000000000000000e+00,-3.000000000000000000e+00,0.000000000000000000e+00,-6.000000000000000000e+00,-7.000000000000000000e+00,-4.000000000000000000e+00,-3.908081054687500000e-01,3.296508789062500000e-01,6.857299804687500000e-01,5.180053710937500000e-01
-4.000000000000000000e+00,-1.000000000000000000e+00,-5.000000000000000000e+00,-8.000000000000000000e+00,-2.000000000000000000e+00,-8.000000000000000000e+00,-1.000000000000000000e+00,-1.000000000000000000e+00,-3.908081054687500000e-01,3.296508789062500000e-01,6.857299804687500000e-01,5.180053710937500000e-01
5.000000000000000000e+00,1.000000000000000000e+00,5.000000000000000000e+00,9.000000000000000000e+00,1.000000000000000000e+00,2.700000000000000000e+01,-5.000000000000000000e+00,-1.000000000000000000e+00,-3.908081054687500000e-01,3.296508789062500000e-01,6.857299804687500000e-01,5.180053710937500000e-01
-1.000000000000000000e+00,-1.000000000000000000e+00,-5.000000000000000000e+00,-3.000000000000000000e+00,0.000000000000000000e+00,-8.000000000000000000e+00,1.500000000000000000e+01,1.000000000000000000e+00,-3.922119140625000000e-01,3.270263671875000000e-01,6.848144531250000000e-01,5.197753906250000000e-01
1.000000000000000000e+00,-3.000000000000000000e+00,-6.000000000000000000e+00,-5.000000000000000000e+00,-7.000000000000000000e+00,-7.000000000000000000e+00,-1.300000000000000000e+01,-1.000000000000000000e+00,-3.922119140625000000e-01,3.270263671875000000e-01,6.848144531250000000e-01,5.197753906250000000e-01
-1.000000000000000000e+00,-6.000000000000000000e+00,-5.000000000000000000e+00,-5.000000000000000000e+00,-4.000000000000000000e+00,-1.600000000000000000e+01,2.000000000000000000e+00,1.000000000000000000e+00,-3.922119140625000000e-01,3.270263671875000000e-01,6.848144531250000000e-01,5.197753906250000000e-01
4.000000000000000000e+00,6.000000000000000000e+00,1.600000000000000000e+01,1.500000000000000000e+01,2.000000000000000000e+00,-1.400000000000000000e+01,-4.000000000000000000e+00,-2.000000000000000000e+00,-3.922119140625000000e-01,3.270263671875000000e-01,6.848144531250000000e-01,5.197753906250000000e-01
0.000000000000000000e+00,-5.000000000000000000e+00,-9.000000000000000000e+00,-6.000000000000000000e+00,4.000000000000000000e+00,2.800000000000000000e+01,-1.200000000000000000e+01,-1.000000000000000000e+00,-3.934326171875000000e-01,3.248901367187500000e-01,6.834716796875000000e-01,5.219726562500000000e-01
-2.000000000000000000e+00,0.000000000000000000e+00,1.000000000000000000e+00,2.000000000000000000e+00,-3.000000000000000000e+00,-1.000000000000000000e+00,-1.300000000000000000e+01,-6.000000000000000000e+00,-3.934326171875000000e-01,3.248901367187500000e-01,6.834716796875000000e-01,5.219726562500000000e-01
1.000000000000000000e+00,-2.000000000000000000e+00,1.600000000000000000e+01,5.000000000000000000e+00,0.000000000000000000e+00,1.400000000000000000e+01,6.000000000000000000e+00,0.000000000000000000e+00,-3.934326171875000000e-01,3.248901367187500000e-01,6.834716796875000000e-01,5.219726562500000000e-01
1.100000000000000000e+01,0.000000000000000000e+00,0.000000000000000000e+00,-1.400000000000000000e+01,-3.000000000000000000e+00,-3.800000000000000000e+01,-8.000000000000000000e+00,1.000000000000000000e+01,-3.934326171875000000e-01,3.248901367187500000e-01,6.834716796875000000e-01,5.219726562500000000e-01
-5.300000000000000000e+01,-6.000000000000000000e+00,4.000000000000000000e+00,-1.000000000000000000e+00,-3.000000000000000000e+00,1.400000000000000000e+01,1.000000000000000000e+01,-1.300000000000000000e+01,-3.945312500000000000e-01,3.237304687500000000e-01,6.817626953125000000e-01,5.240478515625000000e-01
4.000000000000000000e+00,8.000000000000000000e+00,5.000000000000000000e+00,6.000000000000000000e+00,-2.000000000000000000e+00,-2.100000000000000000e+01,-2.000000000000000000e+00,-3.000000000000000000e+00,-3.945312500000000000e-01,3.237304687500000000e-01,6.817626953125000000e-01,5.240478515625000000e-01
-4.000000000000000000e+00,-1.100000000000000000e+01,-9.000000000000000000e+00,-1.000000000000000000e+01,-3.000000000000000000e+00,1.200000000000000000e+01,-4.000000000000000000e+00,-3.000000000000000000e+00,-3.945312500000000000e-01,3.237304687500000000e-01,6.817626953125000000e-01,5.240478515625000000e-01
1.200000000000000000e+01,1.000000000000000000e+01,1.000000000000000000e+00,5.000000000000000000e+00,-1.000000000000000000e+00,-3.000000000000000000e+00,0.000000000000000000e+00,-4.000000000000000000e+00,-3.945312500000000000e-01,3.237304687500000000e-01,6.817626953125000000e-01,5.240478515625000000e-01
-3.000000000000000000e+00,-1.000000000000000000e+00,-6.000000000000000000e+00,4.000000000000000000e+00,1.000000000000000000e+00,-1.400000000000000000e+01,1.000000000000000000e+00,2.000000000000000000e+00,-3.956909179687500000e-01,3.229980468750000000e-01,6.802368164062500000e-01,5.256958007812500000e-01
4.000000000000000000e+00,0.000000000000000000e+00,3.000000000000000000e+00,-1.100000000000000000e+01,-1.000000000000000000e+00,1.000000000000000000e+01,8.000000000000000000e+00,1.000000000000000000e+00,-3.956909179687500000e-01,3.229980468750000000e-01,6.802368164062500000e-01,5.256958007812500000e-01
-8.000000000000000000e+00,3.000000000000000000e+00,-1.000000000000000000e+00,1.500000000000000000e+01,-4.000000000000000000e+00,-9.000000000000000000e+00,-7.000000000000000000e+00,-4.000000000000000000e+00,-3.956909179687500000e-01,3.229980468750000000e-01,6.802368164062500000e-01,5.256958007812500000e-01
-1.000000000000000000e+00,-6.000000000000000000e+00,-2.000000000000000000e+00,-1.800000000000000000e+01,-4.000000000000000000e+00,1.000000000000000000e+01,8.000000000000000000e+00,2.000000000000000000e+00,-3.956909179687500000e-01,3.229980468750000000e-01,6.802368164062500000e-01,5.256958007812500000e-01
1.400000000000000000e+01,3.000000000000000000e+00,9.000000000000000000e+00,6.000000000000000000e+00,1.000000000000000000e+00,-8.000000000000000000e+00,-2.000000000000000000e+00,8.000000000000000000e+00,-3.971557617187500000e-01,3.220214843750000000e-01,6.796875000000000000e-01,5.258789062500000000e-01
-1.200000000000000000e+01,-5.000000000000000000e+00,-1.000000000000000000e+00,-8.000000000000000000e+00,-6.000000000000000000e+00,-1.000000000000000000e+00,-1.000000000000000000e+00,-1.500000000000000000e+01,-3.971557617187500000e-01,3.220214843750000000e-01,6.796875000000000000e-01,5.258789062500000000e-01
1.200000000000000000e+01,3.000000000000000000e+00,-2.000000000000000000e+00,-1.000000000000000000e+01,-5.000000000000000000e+00,-3.000000000000000000e+00,2.000000000000000000e+00,1.100000000000000000e+01,-3.971557617187500000e-01,3.220214843750000000e-01,6.796875000000000000e-01,5.258789062500000000e-01
-1.100000000000000000e+01,-2.000000000000000000e+00,-2.000000000000000000e+00,1.200000000000000000e+01,1.600000000000000000e+01,9.000000000000000000e+00,-4.000000000000000000e+00,-4.000000000000000000e+00,-3.971557617187500000e-01,3.220214843750000000e-01,6.796875000000000000e-01,5.258789062500000000e-01
3.000000000000000000e+00,2.000000000000000000e+00,-1.000000000000000000e+00,-8.000000000000000000e+00,-1.100000000000000000e+01,-8.000000000000000000e+00,-5.000000000000000000e+00,-2.000000000000000000e+00,-3.963623046875000000e-01,3.224487304687500000e-01,6.798706054687500000e-01,5.260009765625000000e-01
3.000000000000000000e+00,-3.000000000000000000e+00,-1.000000000000000000e+01,-4.000000000000000000e+00,2.000000000000000000e+00,-3.000000000000000000e+00,-2.000000000000000000e+00,2.000000000000000000e+00,-3.963623046875000000e-01,3.224487304687500000e-01,6.798706054687500000e-01,5.260009765625000000e-01
-7.000000000000000000e+00,-3.000000000000000000e+00,4.000000000000000000e+00,0.000000000000000000e+00,-3.000000000000000000e+00,2.000000000000000000e+00,4.000000000000000000e+00,-2.000000000000000000e+00,-3.963623046875000000e-01,3.224487304687500000e-01,6.798706054687500000e-01,5.260009765625000000e-01
0.000000000000000000e+00,-2.000000000000000000e+00,-2.000000000000000000e+00,-2.000000000000000000e+00,-1.000000000000000000e+01,-7.000000000000000000e+00,-8.000000000000000000e+00,-1.000000000000000000e+00,-3.963623046875000000e-01,3.224487304687500000e-01,6.798706054687500000e-01,5.260009765625000000e-01
9.000000000000000000e+00,-2.000000000000000000e+00,-8.000000000000000000e+00,-4.000000000000000000e+00,-2.000000000000000000e+00,-2.000000000000000000e+00,1.000000000000000000e+01,-4.000000000000000000e+00,-3.961181640625000000e-01,3.207397460937500000e-01,6.804199218750000000e-01,5.264282226562500000e-01
-1.000000000000000000e+01,-1.000000000000000000e+00,6.000000000000000000e+00,5.000000000000000000e+00,3.000000000000000000e+00,4.000000000000000000e+00,-7.000000000000000000e+00,-8.000000000000000000e+00,-3.961181640625000000e-01,3.207397460937500000e-01,6.804199218750000000e-01,5.264282226562500000e-01
1.200000000000000000e+01,1.000000000000000000e+01,4.000000000000000000e+00,-5.000000000000000000e+00,-4.000000000000000000e+00,-1.900000000000000000e+01,-1.000000000000000000e+01,4.000000000000000000e+00,-3.961181640625000000e-01,3.207397460937500000e-01,6.804199218750000000e-01,5.264282226562500000e-01
-1.800000000000000000e+01,-1.300000000000000000e+01,-1.400000000000000000e+01,-7.000000000000000000e+00,-4.000000000000000000e+00,1.700000000000000000e+01,2.800000000000000000e+01,-2.000000000000000000e+00,-3.961181640625000000e-01,3.207397460937500000e-01,6.804199218750000000e-01,5.264282226562500000e-01
6.000000000000000000e+00,-2.000000000000000000e+00,-1.000000000000000000e+00,-5.000000000000000000e+00,2.000000000000000000e+00,0.000000000000000000e+00,-4.000000000000000000e+00,-4.000000000000000000e+00,-3.972167968750000000e-01,3.170776367187500000e-01,6.812133789062500000e-01,5.268554687500000000e-01
-8.000000000000000000e+00,-3.000000000000000000e+00,-4.000000000000000000e+00,3.000000000000000000e+00,-8.000000000000000000e+00,-2.900000000000000000e+01,-1.500000000000000000e+01,0.000000000000000000e+00,-3.972167968750000000e-01,3.170776367187500000e-01,6.812133789062500000e-01,5.268554687500000000e-01
-7.000000000000000000e+00,-4.000000000000000000e+00,1.000000000000000000e+01,-9.000000000000000000e+00,4.000000000000000000e+00,4.000000000000000000e+00,2.700000000000000000e+01,-1.200000000000000000e+01,-3.972167968750000000e-01,3.170776367187500000e-01,6.812133789062500000e-01,5.268554687500000000e-01
1.000000000000000000e+00,3.000000000000000000e+00,-1.100000000000000000e+01,1.500000000000000000e+01,-1.000000000000000000e+00,1.100000000000000000e+01,-1.000000000000000000e+00,0.000000000000000000e+00,-3.972167968750000000e-01,3.170776367187500000e-01,6.812133789062500000e-01,5.268554687500000000e-01
-1.000000000000000000e+00,-4.000000000000000000e+00,-6.000000000000000000e+00,-1.300000000000000000e+01,-7.000000000000000000e+00,-5.000000000000000000e+00,-1.000000000000000000e+00,1.000000000000000000e+00,-3.987426757812500000e-01,3.134765625000000000e-01,6.814575195312500000e-01,5.275268554687500000e-01
-1.000000000000000000e+00,2.000000000000000000e+00,2.000000000000000000e+00,1.300000000000000000e+01,3.000000000000000000e+00,1.000000000000000000e+01,9.000000000000000000e+00,0.000000000000000000e+00,-3.987426757812500000e-01,3.134765625000000000e-01,6.814575195312500000e-01,5.275268554687500000e-01
-1.000000000000000000e+00,-1.000000000000000000e+00,1.000000000000000000e+00,-7.000000000000000000e+00,-4.000000000000000000e+00,-1.700000000000000000e+01,-1.300000000000000000e+01,3.000000000000000000e+00,-3.987426757812500000e-01,3.134765625000000000e-01,6.814575195312500000e-01,5.275268554687500000e-01
-1.000000000000000000e+00,-2.000000000000000000e+00,-1.000000000000000000e+01,-1.300000000000000000e+01,0.000000000000000000e+00,-3.000000000000000000e+00,-2.000000000000000000e+00,-3.000000000000000000e+00,-3.987426757812500000e-01,3.134765625000000000e-01,6.814575195312500000e-01,5.275268554687500000e-01
-4.000000000000000000e+00,2.000000000000000000e+00,1.100000000000000000e+01,1.300000000000000000e+01,4.000000000000000000e+00,1.000000000000000000e+00,-1.000000000000000000e+00,0.000000000000000000e+00,-3.997192382812500000e-01,3.125000000000000000e-01,6.801757812500000000e-01,5.290527343750000000e-01
-2.000000000000000000e+00,-5.000000000000000000e+00,-1.300000000000000000e+01,-7.000000000000000000e+00,-2.000000000000000000e+00,2.000000000000000000e+00,-1.000000000000000000e+00,3.000000000000000000e+00,-3.997192382812500000e-01,3.125000000000000000e-01,6.801757812500000000e-01,5.290527343750000000e-01
4.000000000000000000e+00,1.000000000000000000e+00,-8.000000000000000000e+00,6.000000000000000000e+00,5.000000000000000000e+00,8.000000000000000000e+00,1.000000000000000000e+00,3.000000000000000000e+00,-3.997192382812500000e-01,3.125000000000000000e-01,6.801757812500000000e-01,5.290527343750000000e-01
-3.000000000000000000e+00,0.000000000000000000e+00,2.000000000000000000e+00,-7.000000000000000000e+00,-3.000000000000000000e+00,-2.000000000000000000e+00,-5.000000000000000000e+00,-4.000000000000000000e+00,-3.997192382812500000e-01,3.125000000000000000e-01,6.801757812500000000e-01,5.290527343750000000e-01
3.000000000000000000e+00,-2.000000000000000000e+00,-2.000000000000000000e+00,1.000000000000000000e+00,-1.000000000000000000e+00,-3.000000000000000000e+00,-1.400000000000000000e+01,-2.000000000000000000e+00,-3.987426757812500000e-01,3.150024414062500000e-01,6.778564453125000000e-01,5.312500000000000000e-01
3.000000000000000000e+00,1.000000000000000000e+00,8.000000000000000000e+00,-1.000000000000000000e+00,6.000000000000000000e+00,7.000000000000000000e+00,1.500000000000000000e+01,5.000000000000000000e+00,-3.987426757812500000e-01,3.150024414062500000e-01,6.778564453125000000e-01,5.312500000000000000e-01
-4.000000000000000000e+00,-2.000000000000000000e+00,-3.000000000000000000e+00,0.000000000000000000e+00,-1.000000000000000000e+00,-1.000000000000000000e+00,-6.000000000000000000e+00,-1.000000000000000000e+00,-3.987426757812500000e-01,3.150024414062500000e-01,6.778564453125000000e-01,5.312500000000000000e-01
-2.000000000000000000e+00,-3.000000000000000000e+00,4.000000000000000000e+00,-4.000000000000000000e+00,-2.000000000000000000e+00,6.000000000000000000e+00,-6.000000000000000000e+00,-6.000000000000000000e+00,-3.987426757812500000e-01,3.150024414062500000e-01,6.778564453125000000e-01,5.312500000000000000e-01
3.000000000000000000e+00,3.000000000000000000e+00,0.000000000000000000e+00,-4.000000000000000000e+00,-6.000000000000000000e+00,-1.400000000000000000e+01,1.000000000000000000e+00,1.000000000000000000e+00,-3.972167968750000000e-01,3.175659179687500000e-01,6.762695312500000000e-01,5.328979492187500000e-01
3.000000000000000000e+00,1.000000000000000000e+00,9.000000000000000000e+00,5.000000000000000000e+00,-1.000000000000000000e+00,1.000000000000000000e+00,4.000000000000000000e+00,1.000000000000000000e+00,-3.972167968750000000e-01,3.175659179687500000e-01,6.762695312500000000e-01,5.328979492187500000e-01
-4.000000000000000000e+00,-4.000000000000000000e+00,-1.000000000000000000e+01,-1.000000000000000000e+00,-3.000000000000000000e+00,-1.800000000000000000e+01,-1.200000000000000000e+01,-3.000000000000000000e+00,-3.972167968750000000e-01,3.175659179687500000e-01,6.762695312500000000e-01,5.328979492187500000e-01
1.000000000000000000e+01,3.000000000000000000e+00,0.000000000000000000e+00,5.000000000000000000e+00,9.000000000000000000e+00,3.800000000000000000e+01,3.000000000000000000e+00,4.000000000000000000e+00,-3.972167968750000000e-01,3.175659179687500000e-01,6.762695312500000000e-01,5.328979492187500000e-01
2.000000000000000000e+00,-3.000000000000000000e+00,-2.000000000000000000e+00,-1.000000000000000000e+00,-2.000000000000000000e+00,-1.000000000000000000e+01,4.000000000000000000e+00,-3.000000000000000000e+00,-3.964843750000000000e-01,3.173828125000000000e-01,6.763305664062500000e-01,5.335083007812500000e-01
-1.000000000000000000e+00,3.000000000000000000e+00,-2.000000000000000000e+00,-4.000000000000000000e+00,-2.000000000000000000e+00,-5.000000000000000000e+00,-2.000000000000000000e+00,1.000000000000000000e+00,-3.964843750000000000e-01,3.173828125000000000e-01,6.763305664062500000e-01,5.335083007812500000e-01
-2.000000000000000000e+00,-6.000000000000000000e+00,-3.000000000000000000e+00,-6.000000000000000000e+00,-1.000000000000000000e+00,3.000000000000000000e+00,-2.300000000000000000e+01,-5.000000000000000000e+00,-3.964843750000000000e-01,3.173828125000000000e-01,6.763305664062500000e-01,5.335083007812500000e-01
-5.000000000000000000e+00,-4.000000000000000000e+00,-1.500000000000000000e+01,-1.000000000000000000e+00,-5.000000000000000000e+00,-4.000000000000000000e+00,-9.000000000000000000e+00,-3.000000000000000000e+00,-3.964843750000000000e-01,3.173828125000000000e-01,6.763305664062500000e-01,5.335083007812500000e-01
-6.000000000000000000e+00,-8.000000000000000000e+00,-7.000000000000000000e+00,-7.000000000000000000e+00,-7.000000000000000000e+00,2.000000000000000000e+00,3.000000000000000000e+00,2.000000000000000000e+00,-3.966674804687500000e-01,3.137817382812500000e-01,6.782836914062500000e-01,5.330200195312500000e-01
2.000000000000000000e+00,-4.000000000000000000e+00,2.000000000000000000e+00,-2.000000000000000000e+00,-1.000000000000000000e+00,6.000000000000000000e+00,-4.000000000000000000e+00,-1.000000000000000000e+00,-3.966674804687500000e-01,3.137817382812500000e-01,6.782836914062500000e-01,5.330200195312500000e-01
-7.000000000000000000e+00,-2.000000000000000000e+00,-7.000000000000000000e+00,-3.000000000000000000e+00,-4.000000000000000000e+00,-3.000000000000000000e+00,1.000000000000000000e+00,-2.000000000000000000e+00,-3.966674804687500000e-01,3.137817382812500000e-01,6.782836914062500000e-01,5.330200195312500000e-01
2.000000000000000000e+00,4.000000000000000000e+00,1.400000000000000000e+01,0.000000000000000000e+00,-2.000000000000000000e+00,-1.500000000000000000e+01,-1.000000000000000000e+00,-3.000000000000000000e+00,-3.966674804687500000e-01,3.137817382812500000e-01,6.782836914062500000e-01,5.330200195312500000e-01
-1.000000000000000000e+00,-5.000000000000000000e+00,-4.000000000000000000e+00,1.000000000000000000e+01,4.000000000000000000e+00,6.000000000000000000e+00,-2.000000000000000000e+00,1.000000000000000000e+00,-3.980102539062500000e-01,3.097534179687500000e-01,6.798095703125000000e-01,5.324096679687500000e-01
2.000000000000000000e+00,-1.000000000000000000e+00,1.000000000000000000e+00,-4.000000000000000000e+00,-2.000000000000000000e+00,-1.000000000000000000e+00,1.000000000000000000e+00,1.000000000000000000e+00,-3.980102539062500000e-01,3.097534179687500000e-01,6.798095703125000000e-01,5.324096679687500000e-01
-2.000000000000000000e+00,3.000000000000000000e+00,-3.000000000000000000e+00,3.000000000000000000e+00,1.000000000000000000e+00,5.000000000000000000e+00,3.000000000000000000e+00,2.000000000000000000e+00,-3.980102539062500000e-01,3.097534179687500000e-01,6.798095703125000000e-01,5.324096679687500000e-01
4.000000000000000000e+00,-3.000000000000000000e+00,-2.000000000000000000e+00,2.000000000000000000e+00,-3.000000000000000000e+00,-6.000000000000000000e+00,-1.000000000000000000e+00,-3.000000000000000000e+00,-3.980102539062500000e-01,3.097534179687500000e-01,6.798095703125000000e-01,5.324096679687500000e-01
6.000000000000000000e+00,3.000000000000000000e+00,6.000000000000000000e+00,3.000000000000000000e+00,0.000000000000000000e+00,-5.000000000000000000e+00,-3.000000000000000000e+00,3.000000000000000000e+00,-3.983154296875000000e-01,3.088378906250000000e-01,6.798095703125000000e-01,5.327148437500000000e-01
-6.000000000000000000e+00,-6.000000000000000000e+00,-1.600000000000000000e+01,-1.000000000000000000e+00,0.000000000000000000e+00,5.000000000000000000e+00,4.000000000000000000e+00,-3.000000000000000000e+00,-3.983154296875000000e-01,3.088378906250000000e-01,6.798095703125000000e-01,5.327148437500000000e-01
1.000000000000000000e+00,3.000000000000000000e+00,2.000000000000000000e+00,-2.000000000000000000e+00,0.000000000000000000e+00,-1.000000000000000000e+00,2.400000000000000000e+01,0.000000000000000000e+00,-3.983154296875000000e-01,3.088378906250000000e-01,6.798095703125000000e-01,5.327148437500000000e-01
-4.000000000000000000e+00,2.000000000000000000e+00,4.000000000000000000e+00,2.000000000000000000e+00,1.000000000000000000e+00,-6.000000000000000000e+00,-4.000000000000000000e+00,-2.000000000000000000e+00,-3.983154296875000000e-01,3.088378906250000000e-01,6.798095703125000000e-01,5.327148437500000000e-01
-3.000000000000000000e+00,-2.000000000000000000e+00,-6.000000000000000000e+00,-3.000000000000000000e+00,-3.000000000000000000e+00,2.000000000000000000e+00,2.000000000000000000e+00,-4.000000000000000000e+00,-3.962402343750000000e-01,3.117675781250000000e-01,6.784057617187500000e-01,5.343017578125000000e-01
-2.000000000000000000e+00,-2.000000000000000000e+00,1.000000000000000000e+00,-3.000000000000000000e+00,-7.000000000000000000e+00,-1.600000000000000000e+01,-1.000000000000000000e+00,-4.000000000000000000e+00,-3.962402343750000000e-01,3.117675781250000000e-01,6.784057617187500000e-01,5.343017578125000000e-01
2.000000000000000000e+00,3.000000000000000000e+00,8.000000000000000000e+00,-2.000000000000000000e+00,7.000000000000000000e+00,1.700000000000000000e+01,1.400000000000000000e+01,3.000000000000000000e+00,-3.962402343750000000e-01,3.117675781250000000e-01,6.784057617187500000e-01,5.343017578125000000e-01
-7.000000000000000000e+00,-4.000000000000000000e+00,-1.800000000000000000e+01,4.000000000000000000e+00,2.000000000000000000e+00,2.600000000000000000e+01,1.800000000000000000e+01,0.000000000000000000e+00,-3.962402343750000000e-01,3.117675781250000000e-01,6.784057617187500000e-01,5.343017578125000000e-01
0.000000000000000000e+00,3.000000000000000000e+00,7.000000000000000000e+00,-8.000000000000000000e+00,-1.000000000000000000e+00,-1.200000000000000000e+01,-2.400000000000000000e+01,-1.000000000000000000e+00,-3.938598632812500000e-01,3.143920898437500000e-01,6.768798828125000000e-01,5.364990234375000000e-01
4.000000000000000000e+00,1.000000000000000000e+00,-1.000000000000000000e+00,6.000000000000000000e+00,0.000000000000000000e+00,-4.000000000000000000e+00,1.100000000000000000e+01,6.000000000000000000e+00,-3.938598632812500000e-01,3.143920898437500000e-01,6.768798828125000000e-01,5.364990234375000000e-01
-4.000000000000000000e+00,-1.000000000000000000e+01,-5.000000000000000000e+00,-9.000000000000000000e+00,-7.000000000000000000e+00,-8.000000000000000000e+00,-7.000000000000000000e+00,-6.000000000000000000e+00,-3.938598632812500000e-01,3.143920898437500000e-01,6.768798828125000000e-01,5.364990234375000000e-01
2.000000000000000000e+00,2.000000000000000000e+00,1.800000000000000000e+01,0.000000000000000000e+00,1.000000000000000000e+00,-1.200000000000000000e+01,-1.100000000000000000e+01,1.000000000000000000e+00,-3.938598632812500000e-01,3.143920898437500000e-01,6.768798828125000000e-01,5.364990234375000000e-01
-8.000000000000000000e+00,-6.000000000000000000e+00,-1.000000000000000000e+00,-2.000000000000000000e+00,-1.000000000000000000e+00,5.000000000000000000e+00,1.000000000000000000e+00,-2.000000000000000000e+00,-3.922119140625000000e-01,3.145141601562500000e-01,6.768188476562500000e-01,5.376586914062500000e-01
1.000000000000000000e+00,1.000000000000000000e+00,3.000000000000000000e+00,-3.000000000000000000e+00,2.000000000000000000e+00,1.700000000000000000e+01,-2.000000000000000000e+00,-3.000000000000000000e+00,-3.922119140625000000e-01,3.145141601562500000e-01,6.768188476562500000e-01,5.376586914062500000e-01
4.000000000000000000e+00,0.000000000000000000e+00,-4.000000000000000000e+00,0.000000000000000000e+00,-1.000000000000000000e+00,-1.000000000000000000e+01,-9.000000000000000000e+00,0.000000000000000000e+00,-3.922119140625000000e-01,3.145141601562500000e-01,6.768188476562500000e-01,5.376586914062500000e-01
-1.000000000000000000e+00,0.000000000000000000e+00,1.200000000000000000e+01,4.000000000000000000e+00,-3.000000000000000000e+00,-1.100000000000000000e+01,-8.000000000000000000e+00,-2.000000000000000000e+00,-3.922119140625000000e-01,3.145141601562500000e-01,6.768188476562500000e-01,5.376586914062500000e-01
-1.000000000000000000e+00,2.000000000000000000e+00,-8.000000000000000000e+00,4.000000000000000000e+00,2.000000000000000000e+00,2.000000000000000000e+00,-1.100000000000000000e+01,-1.000000000000000000e+00,-3.925170898437500000e-01,3.120117187500000000e-01,6.782226562500000000e-01,5.371704101562500000e-01
-1.000000000000000000e+00,-3.000000000000000000e+00,-6.000000000000000000e+00,-7.000000000000000000e+00,-3.000000000000000000e+00,-6.000000000000000000e+00,-5.000000000000000000e+00,0.000000000000000000e+00,-3.925170898437500000e-01,3.120117187500000000e-01,6.782226562500000000e-01,5.371704101562500000e-01
0.000000000000000000e+00,0.000000000000000000e+00,7.000000000000000000e+00,2.000000000000000000e+00,1.000000000000000000e+00,7.000000000000000000e+00,5.000000000000000000e+00,1.000000000000000000e+00,-3.925170898437500000e-01,3.120117187500000000e-01,6.782226562500000000e-01,5.371704101562500000e-01
3.000000000000000000e+00,1.000000000000000000e+00,-4.000000000000000000e+00,0.000000000000000000e+00,2.000000000000000000e+00,-6.000000000000000000e+00,2.000000000000000000e+00,1.000000000000000000e+00,-3.925170898437500000e-01,3.120117187500000000e-01,6.782226562500000000e-01,5.371704101562500000e-01
-1.000000000000000000e+00,-4.000000000000000000e+00,-2.000000000000000000e+00,0.000000000000000000e+00,-1.000000000000000000e+00,5.000000000000000000e+00,2.000000000000000000e+00,0.000000000000000000e+00,-3.937377929687500000e-01,3.092041015625000000e-01,6.790161132812500000e-01,5.368652343750000000e-01
-1.100000000000000000e+01,2.000000000000000000e+00,-1.000000000000000000e+00,-3.000000000000000000e+00,-3.000000000000000000e+00,-3.000000000000000000e+00,-7.000000000000000000e+00,-2.000000000000000000e+00,-3.937377929687500000e-01,3.092041015625000000e-01,6.790161132812500000e-01,5.368652343750000000e-01
6.000000000000000000e+00,-3.000000000000000000e+00,-1.000000000000000000e+00,-7.000000000000000000e+00,-3.000000000000000000e+00,-3.000000000000000000e+00,-9.000000000000000000e+00,-1.000000000000000000e+00,-3.937377929687500000e-01,3.092041015625000000e-01,6.790161132812500000e-01,5.368652343750000000e-01
-6.000000000000000000e+00,-2.000000000000000000e+00,-3.000000000000000000e+00,-1.000000000000000000e+00,-4.000000000000000000e+00,-3.000000000000000000e+00,1.000000000000000000e+00,-4.000000000000000000e+00,-3.937377929687500000e-01,3.092041015625000000e-01,6.790161132812500000e-01,5.368652343750000000e-01
-3.000000000000000000e+00,4.000000000000000000e+00,6.000000000000000000e+00,3.000000000000000000e+00,-5.000000000000000000e+00,-1.000000000000000000e+01,7.000000000000000000e+00,-2.000000000000000000e+00,-3.943481445312500000e-01,3.078613281250000000e-01,6.787719726562500000e-01,5.375366210937500000e-01
2.000000000000000000e+00,-5.000000000000000000e+00,-1.000000000000000000e+01,-5.000000000000000000e+00,-2.000000000000000000e+00,-1.400000000000000000e+01,-1.900000000000000000e+01,-5.000000000000000000e+00,-3.943481445312500000e-01,3.078613281250000000e-01,6.787719726562500000e-01,5.375366210937500000e-01
-4.000000000000000000e+00,1.000000000000000000e+00,1.000000000000000000e+00,-1.000000000000000000e+00,2.000000000000000000e+00,2.100000000000000000e+01,-4.000000000000000000e+00,1.000000000000000000e+00,-3.943481445312500000e-01,3.078613281250000000e-01,6.787719726562500000e-01,5.375366210937500000e-01
-3.000000000000000000e+00,0.000000000000000000e+00,-7.000000000000000000e+00,-2.000000000000000000e+00,-7.000000000000000000e+00,-1.100000000000000000e+01,1.000000000000000000e+00,-3.000000000000000000e+00,-3.943481445312500000e-01,3.078613281250000000e-01,6.787719726562500000e-01,5.375366210937500000e-01
5.000000000000000000e+00,2.000000000000000000e+00,6.000000000000000000e+00,-1.000000000000000000e+00,-1.000000000000000000e+00,9.000000000000000000e+00,1.700000000000000000e+01,0.000000000000000000e+00,-3.931884765625000000e-01,3.087158203125000000e-01,6.774902343750000000e-01,5.394897460937500000e-01
-1.200000000000000000e+01,0.000000000000000000e+00,-1.000000000000000000e+00,-8.000000000000000000e+00,-6.000000000000000000e+00,-1.100000000000000000e+01,-1.300000000000000000e+01,-4.000000000000000000e+00,-3.931884765625000000e-01,3.087158203125000000e-01,6.774902343750000000e-01,5.394897460937500000e-01
7.000000000000000000e+00,1.000000000000000000e+00,5.000000000000000000e+00,5.000000000000000000e+00,3.000000000000000000e+00,-2.000000000000000000e+00,4.000000000000000000e+00,0.000000000000000000e+00,-3.931884765625000000e-01,3.087158203125000000e-01,6.774902343750000000e-01,5.394897460937500000e-01
5.000000000000000000e+00,-3.000000000000000000e+00,-1.000000000000000000e+00,-6.000000000000000000e+00,1.000000000000000000e+00,-1.300000000000000000e+01,-4.000000000000000000e+00,0.000000000000000000e+00,-3.931884765625000000e-01,3.087158203125000000e-01,6.774902343750000000e-01,5.394897460937500000e-01
2.000000000000000000e+00,-1.000000000000000000e+00,-3.000000000000000000e+00,-9.000000000000000000e+00,-7.000000000000000000e+00,-8.000000000000000000e+00,-7.000000000000000000e+00,-2.000000000000000000e+00,-3.928222656250000000e-01,3.087768554687500000e-01,6.759643554687500000e-01,5.416259765625000000e-01
-3.000000000000000000e+00,-1.000000000000000000e+00,1.000000000000000000e+00,3.000000000000000000e+00,1.000000000000000000e+00,9.000000000000000000e+00,3.000000000000000000e+00,1.000000000000000000e+00,-3.928222656250000000e-01,3.087768554687500000e-01,6.759643554687500000e-01,5.416259765625000000e-01
-6.000000000000000000e+00,-1.000000000000000000e+00,-1.000000000000000000e+00,8.000000000000000000e+00,-1.000000000000000000e+00,-5.000000000000000000e+00,-1.000000000000000000e+01,-4.000000000000000000e+00,-3.928222656250000000e-01,3.087768554687500000e-01,6.759643554687500000e-01,5.416259765625000000e-01
1.000000000000000000e+01,1.000000000000000000e+00,4.000000000000000000e+00,-6.000000000000000000e+00,-4.000000000000000000e+00,-9.000000000000000000e+00,0.000000000000000000e+00,1.000000000000000000e+00,-3.928222656250000000e-01,3.087768554687500000e-01,6.759643554687500000e-01,5.416259765625000000e-01
-1.400000000000000000e+01,-1.000000000000000000e+00,-5.000000000000000000e+00,1.000000000000000000e+00,3.000000000000000000e+00,3.000000000000000000e+00,5.000000000000000000e+00,2.000000000000000000e+00,-3.931274414062500000e-01,3.076782226562500000e-01,6.748046875000000000e-01,5.434570312500000000e-01
1.100000000000000000e+01,-2.000000000000000000e+00,5.000000000000000000e+00,-3.000000000000000000e+00,2.000000000000000000e+00,6.000000000000000000e+00,2.000000000000000000e+00,3.000000000000000000e+00,-3.931274414062500000e-01,3.076782226562500000e-01,6.748046875000000000e-01,5.434570312500000000e-01
-4.000000000000000000e+00,-6.000000000000000000e+00,-6.000000000000000000e+00,3.000000000000000000e+00,-2.000000000000000000e+00,-5.000000000000000000e+00,-4.000000000000000000e+00,-1.000000000000000000e+00,-3.931274414062500000e-01,3.076782226562500000e-01,6.748046875000000000e-01,5.434570312500000000e-01
-6.000000000000000000e+00,-2.000000000000000000e+00,-7.000000000000000000e+00,-8.000000000000000000e+00,-1.000000000000000000e+00,2.000000000000000000e+00,3.000000000000000000e+00,0.000000000000000000e+00,-3.931274414062500000e-01,3.076782226562500000e-01,6.748046875000000000e-01,5.434570312500000000e-01
1.100000000000000000e+01,3.000000000000000000e+00,0.000000000000000000e+00,-2.000000000000000000e+00,-1.000000000000000000e+00,3.000000000000000000e+00,-1.000000000000000000e+00,1.000000000000000000e+00,-3.937988281250000000e-01,3.062133789062500000e-01,6.740112304687500000e-01,5.447998046875000000e-01
-7.000000000000000000e+00,4.000000000000000000e+00,2.000000000000000000e+00,1.400000000000000000e+01,4.000000000000000000e+00,3.000000000000000000e+00,7.000000000000000000e+00,-3.000000000000000000e+00,-3.937988281250000000e-01,3.062133789062500000e-01,6.740112304687500000e-01,5.447998046875000000e-01
0.000000000000000000e+00,-2.000000000000000000e+00,2.000000000000000000e+00,-3.000000000000000000e+00,1.000000000000000000e+00,0.000000000000000000e+00,1.000000000000000000e+00,1.000000000000000000e+00,-3.937988281250000000e-01,3.062133789062500000e-01,6.740112304687500000e-01,5.447998046875000000e-01
-3.000000000000000000e+00,3.000000000000000000e+00,3.000000000000000000e+00,-1.000000000000000000e+00,-1.000000000000000000e+00,2.000000000000000000e+00,2.000000000000000000e+00,-1.000000000000000000e+00,-3.937988281250000000e-01,3.062133789062500000e-01,6.740112304687500000e-01,5.447998046875000000e-01
-4.000000000000000000e+00,-4.000000000000000000e+00,0.000000000000000000e+00,-4.000000000000000000e+00,0.000000000000000000e+00,1.000000000000000000e+00,-5.000000000000000000e+00,-2.000000000000000000e+00,-3.937988281250000000e-01,3.056030273437500000e-01,6.734008789062500000e-01,5.458984375000000000e-01
7.000000000000000000e+00,0.000000000000000000e+00,4.000000000000000000e+00,-1.000000000000000000e+00,1.000000000000000000e+00,-1.000000000000000000e+00,7.000000000000000000e+00,2.000000000000000000e+00,-3.937988281250000000e-01,3.056030273437500000e-01,6.734008789062500000e-01,5.458984375000000000e-01
-2.000000000000000000e+00,0.000000000000000000e+00,-3.000000000000000000e+00,-6.000000000000000000e+00,-4.000000000000000000e+00,0.000000000000000000e+00,5.000000000000000000e+00,2.000000000000000000e+00,-3.937988281250000000e-01,3.056030273437500000e-01,6.734008789062500000e-01,5.458984375000000000e-01
-4.000000000000000000e+00,1.000000000000000000e+00,7.000000000000000000e+00,-5.000000000000000000e+00,-2.000000000000000000e+00,2.000000000000000000e+00,-6.000000000000000000e+00,-2.000000000000000000e+00,-3.937988281250000000e-01,3.056030273437500000e-01,6.734008789062500000e-01,5.458984375000000000e-01
3.000000000000000000e+00,2.000000000000000000e+00,-7.000000000000000000e+00,3.000000000000000000e+00,-2.000000000000000000e+00,-4.000000000000000000e+00,2.000000000000000000e+00,0.000000000000000000e+00,-3.933715820312500000e-01,3.048706054687500000e-01,6.730346679687500000e-01,5.469970703125000000e-01
3.000000000000000000e+00,-5.000000000000000000e+00,-3.000000000000000000e+00,-3.000000000000000000e+00,-5.000000000000000000e+00,-4.000000000000000000e+00,5.000000000000000000e+00,1.000000000000000000e+00,-3.933715820312500000e-01,3.048706054687500000e-01,6.730346679687500000e-01,5.469970703125000000e-01
-3.000000000000000000e+00,2.000000000000000000e+00,7.000000000000000000e+00,5.000000000000000000e+00,4.000000000000000000e+00,-6.000000000000000000e+00,-1.200000000000000000e+01,-2.000000000000000000e+00,-3.933715820312500000e-01,3.048706054687500000e-01,6.730346679687500000e-01,5.469970703125000000e-01
0.000000000000000000e+00,0.000000000000000000e+00,-4.000000000000000000e+00,1.000000000000000000e+00,-4.000000000000000000e+00,1.000000000000000000e+00,2.000000000000000000e+00,3.000000000000000000e+00,-3.933715820312500000e-01,3.048706054687500000e-01,6.730346679687500000e-01,5.469970703125000000e-01
1.000000000000000000e+00,3.000000000000000000e+00,9.000000000000000000e+00,1.000000000000000000e+00,3.000000000000000000e+00,-1.200000000000000000e+01,-2.300000000000000000e+01,-1.000000000000000000e+00,-3.929443359375000000e-01,3.033447265625000000e-01,6.730346679687500000e-01,5.481567382812500000e-01
1.000000000000000000e+00,0.000000000000000000e+00,-7.000000000000000000e+00,-3.000000000000000000e+00,0.000000000000000000e+00,2.300000000000000000e+01,3.500000000000000000e+01,2.000000000000000000e+00,-3.929443359375000000e-01,3.033447265625000000e-01,6.730346679687500000e-01,5.481567382812500000e-01
-8.000000000000000000e+00,-4.000000000000000000e+00,-7.000000000000000000e+00,-1.000000000000000000e+00,-4.000000000000000000e+00,-1.100000000000000000e+01,-1.400000000000000000e+01,-4.000000000000000000e+00,-3.929443359375000000e-01,3.033447265625000000e-01,6.730346679687500000e-01,5.481567382812500000e-01
0.000000000000000000e+00,-2.000000000000000000e+00,5.000000000000000000e+00,0.000000000000000000e+00,3.000000000000000000e+00,1.300000000000000000e+01,-1.100000000000000000e+01,-6.000000000000000000e+00,-3.929443359375000000e-01,3.033447265625000000e-01,6.730346679687500000e-01,5.481567382812500000e-01
-5.000000000000000000e+00,0.000000000000000000e+00,-5.000000000000000000e+00,3.000000000000000000e+00,-3.000000000000000000e+00,-8.000000000000000000e+00,0.000000000000000000e+00,-2.000000000000000000e+00,-3.930053710937500000e-01,3.004760742187500000e-01,6.734619140625000000e-01,5.491943359375000000e-01
2.000000000000000000e+00,-5.000000000000000000e+00,-3.000000000000000000e+00,5.000000000000000000e+00,1.000000000000000000e+00,-6.000000000000000000e+00,-4.000000000000000000e+00,0.000000000000000000e+00,-3.930053710937500000e-01,3.004760742187500000e-01,6.734619140625000000e-01,5.491943359375000000e-01
1.000000000000000000e+01,5.000000000000000000e+00,6.000000000000000000e+00,3.000000000000000000e+00,2.000000000000000000e+00,8.000000000000000000e+00,-2.000000000000000000e+00,4.000000000000000000e+00,-3.930053710937500000e-01,3.004760742187500000e-01,6.734619140625000000e-01,5.491943359375000000e-01
-2.000000000000000000e+00,-4.000000000000000000e+00,2.000000000000000000e+00,-2.000000000000000000e+00,-3.000000000000000000e+00,1.000000000000000000e+00,6.000000000000000000e+00,-1.000000000000000000e+00,-3.930053710937500000e-01,3.004760742187500000e-01,6.734619140625000000e-01,5.491943359375000000e-01
4.000000000000000000e+00,-1.000000000000000000e+00,2.000000000000000000e+00,-2.000000000000000000e+00,2.000000000000000000e+00,1.000000000000000000e+00,-2.000000000000000000e+00,-2.000000000000000000e+00,-3.934326171875000000e-01,2.978515625000000000e-01,6.733398437500000000e-01,5.504760742187500000e-01
-2.500000000000000000e+01,-1.000000000000000000e+00,-6.000000000000000000e+00,-3.000000000000000000e+00,-1.000000000000000000e+00,1.000000000000000000e+00,-1.000000000000000000e+01,-5.000000000000000000e+00,-3.934326171875000000e-01,2.978515625000000000e-01,6.733398437500000000e-01,5.504760742187500000e-01
4.000000000000000000e+00,-2.000000000000000000e+00,-8.000000000000000000e+00,-1.000000000000000000e+00,-2.000000000000000000e+00,0.000000000000000000e+00,1.300000000000000000e+01,-1.000000000000000000e+00,-3.934326171875000000e-01,2.978515625000000000e-01,6.733398437500000000e-01,5.504760742187500000e-01
2.000000000000000000e+00,-3.000000000000000000e+00,-2.000000000000000000e+00,-4.000000000000000000e+00,-1.000000000000000000e+00,-7.000000000000000000e+00,-4.000000000000000000e+00,-1.000000000000000000e+00,-3.934326171875000000e-01,2.978515625000000000e-01,6.733398437500000000e-01,5.504760742187500000e-01
9.000000000000000000e+00,1.000000000000000000e+00,3.000000000000000000e+00,-1.000000000000000000e+00,-3.000000000000000000e+00,-2.000000000000000000e+00,1.500000000000000000e+01,0.000000000000000000e+00,-3.927001953125000000e-01,2.970581054687500000e-01,6.725463867187500000e-01,5.523681640625000000e-01
-1.000000000000000000e+00,-2.000000000000000000e+00,5.000000000000000000e+00,-4.000000000000000000e+00,6.000000000000000000e+00,-1.000000000000000000e+00,-1.400000000000000000e+01,1.000000000000000000e+00,-3.927001953125000000e-01,2.970581054687500000e-01,6.725463867187500000e-01,5.523681640625000000e-01
-5.000000000000000000e+00,-1.000000000000000000e+00,-1.000000000000000000e+01,-1.000000000000000000e+00,0.000000000000000000e+00,8.000000000000000000e+00,4.000000000000000000e+00,-1.000000000000000000e+00,-3.927001953125000000e-01,2.970581054687500000e-01,6.725463867187500000e-01,5.523681640625000000e-01
-6.000000000000000000e+00,-1.000000000000000000e+00,-4.000000000000000000e+00,8.000000000000000000e+00,-1.000000000000000000e+00,-6.000000000000000000e+00,2.000000000000000000e+00,-3.000000000000000000e+00,-3.927001953125000000e-01,2.970581054687500000e-01,6.725463867187500000e-01,5.523681640625000000e-01
2.000000000000000000e+00,-2.000000000000000000e+00,6.000000000000000000e+00,1.000000000000000000e+00,2.000000000000000000e+00,-1.000000000000000000e+00,5.000000000000000000e+00,0.000000000000000000e+00,-3.916015625000000000e-01,2.969360351562500000e-01,6.719360351562500000e-01,5.540161132812500000e-01
1.000000000000000000e+00,-4.000000000000000000e+00,-1.200000000000000000e+01,-4.000000000000000000e+00,-4.000000000000000000e+00,0.000000000000000000e+00,-5.000000000000000000e+00,0.000000000000000000e+00,-3.916015625000000000e-01,2.969360351562500000e-01,6.719360351562500000e-01,5.540161132812500000e-01
-3.000000000000000000e+00,2.000000000000000000e+00,4.000000000000000000e+00,-1.000000000000000000e+00,-1.000000000000000000e+00,-1.200000000000000000e+01,-7.000000000000000000e+00,-4.000000000000000000e+00,-3.916015625000000000e-01,2.969360351562500000e-01,6.719360351562500000e-01,5.540161132812500000e-01
1.000000000000000000e+00,-4.000000000000000000e+00,-6.000000000000000000e+00,-4.000000000000000000e+00,1.000000000000000000e+00,6.000000000000000000e+00,5.000000000000000000e+00,2.000000000000000000e+00,-3.916015625000000000e-01,2.969360351562500000e-01,6.719360351562500000e-01,5.540161132812500000e-01
-1.000000000000000000e+00,1.000000000000000000e+00,-1.000000000000000000e+00,-4.000000000000000000e+00,-1.000000000000000000e+00,-3.000000000000000000e+00,0.000000000000000000e+00,0.000000000000000000e+00,-3.912353515625000000e-01,2.960205078125000000e-01,6.721801757812500000e-01,5.545043945312500000e-01
2.000000000000000000e+00,-7.000000000000000000e+00,-1.300000000000000000e+01,-3.000000000000000000e+00,-4.000000000000000000e+00,-1.000000000000000000e+00,7.000000000000000000e+00,-1.000000000000000000e+00,-3.912353515625000000e-01,2.960205078125000000e-01,6.721801757812500000e-01,5.545043945312500000e-01
-3.000000000000000000e+00,-2.000000000000000000e+00,-1.100000000000000000e+01,-2.000000000000000000e+00,0.000000000000000000e+00,4.000000000000000000e+00,-1.000000000000000000e+01,-2.000000000000000000e+00,-3.912353515625000000e-01,2.960205078125000000e-01,6.721801757812500000e-01,5.545043945312500000e-01
-2.000000000000000000e+00,-1.000000000000000000e+00,-2.000000000000000000e+00,2.000000000000000000e+00,-1.000000000000000000e+00,-1.400000000000000000e+01,-1.000000000000000000e+01,-2.000000000000000000e+00,-3.912353515625000000e-01,2.960205078125000000e-01,6.721801757812500000e-01,5.545043945312500000e-01
-1.000000000000000000e+00,1.000000000000000000e+00,8.000000000000000000e+00,-3.000000000000000000e+00,1.000000000000000000e+00,2.300000000000000000e+01,1.400000000000000000e+01,0.000000000000000000e+00,-3.910522460937500000e-01,2.946166992187500000e-01,6.727905273437500000e-01,5.545654296875000000e-01
1.000000000000000000e+00,-1.000000000000000000e+00,1.000000000000000000e+00,-5.000000000000000000e+00,-3.000000000000000000e+00,-5.000000000000000000e+00,-2.000000000000000000e+00,-4.000000000000000000e+00,-3.910522460937500000e-01,2.946166992187500000e-01,6.727905273437500000e-01,5.545654296875000000e-01
2.000000000000000000e+00,0.000000000000000000e+00,1.000000000000000000e+00,2.000000000000000000e+00,-3.000000000000000000e+00,-2.000000000000000000e+00,7.000000000000000000e+00,-1.000000000000000000e+00,-3.910522460937500000e-01,2.946166992187500000e-01,6.727905273437500000e-01,5.545654296875000000e-01
-2.000000000000000000e+00,-1.000000000000000000e+00,-7.000000000000000000e+00,-6.000000000000000000e+00,-1.000000000000000000e+00,-4.000000000000000000e+00,1.000000000000000000e+01,-1.000000000000000000e+00,-3.910522460937500000e-01,2.946166992187500000e-01,6.727905273437500000e-01,5.545654296875000000e-01
3.000000000000000000e+00,-4.000000000000000000e+00,-8.000000000000000000e+00,4.000000000000000000e+00,1.000000000000000000e+00,-4.000000000000000000e+00,-1.300000000000000000e+01,-2.000000000000000000e+00,-3.912963867187500000e-01,2.926025390625000000e-01,6.734008789062500000e-01,5.547485351562500000e-01
-3.000000000000000000e+00,-1.000000000000000000e+00,4.000000000000000000e+00,1.000000000000000000e+00,1.000000000000000000e+00,-4.000000000000000000e+00,-1.200000000000000000e+01,0.000000000000000000e+00,-3.912963867187500000e-01,2.926025390625000000e-01,6.734008789062500000e-01,5.547485351562500000e-01
1.300000000000000000e+01,2.000000000000000000e+00,-2.000000000000000000e+00,-4.000000000000000000e+00,-5.000000000000000000e+00,-1.100000000000000000e+01,1.000000000000000000e+00,3.000000000000000000e+00,-3.912963867187500000e-01,2.926025390625000000e-01,6.734008789062500000e-01,5.547485351562500000e-01
0.000000000000000000e+00,1.000000000000000000e+00,6.000000000000000000e+00,5.000000000000000000e+00,4.000000000000000000e+00,3.200000000000000000e+01,1.700000000000000000e+01,2.000000000000000000e+00,-3.912963867187500000e-01,2.926025390625000000e-01,6.734008789062500000e-01,5.547485351562500000e-01
-3.000000000000000000e+00,-6.000000000000000000e+00,-1.300000000000000000e+01,-7.000000000000000000e+00,-5.000000000000000000e+00,-6.000000000000000000e+00,-8.000000000000000000e+00,-3.000000000000000000e+00,-3.916015625000000000e-01,2.910766601562500000e-01,6.735839843750000000e-01,5.551147460937500000e-01
-4.000000000000000000e+00,-1.000000000000000000e+00,-2.000000000000000000e+00,0.000000000000000000e+00,-1.000000000000000000e+00,3.000000000000000000e+00,5.000000000000000000e+00,-2.000000000000000000e+00,-3.916015625000000000e-01,2.910766601562500000e-01,6.735839843750000000e-01,5.551147460937500000e-01
-5.000000000000000000e+00,2.000000000000000000e+00,2.000000000000000000e+00,2.000000000000000000e+00,2.000000000000000000e+00,-6.000000000000000000e+00,-2.000000000000000000e+00,-2.000000000000000000e+00,-3.916015625000000000e-01,2.910766601562500000e-01,6.735839843750000000e-01,5.551147460937500000e-01
-7.000000000000000000e+00,-2.000000000000000000e+00,1.000000000000000000e+00,-1.000000000000000000e+00,-1.000000000000000000e+00,-2.000000000000000000e+00,-7.000000000000000000e+00,1.000000000000000000e+00,-3.916015625000000000e-01,2.910766601562500000e-01,6.735839843750000000e-01,5.551147460937500000e-01
-2.000000000000000000e+00,4.000000000000000000e+00,0.000000000000000000e+00,9.000000000000000000e+00,1.000000000000000000e+00,-5.000000000000000000e+00,-8.000000000000000000e+00,-1.000000000000000000e+00,-3.917236328125000000e-01,2.907104492187500000e-01,6.734008789062500000e-01,5.554199218750000000e-01
0.000000000000000000e+00,-3.000000000000000000e+00,-1.200000000000000000e+01,-6.000000000000000000e+00,-3.000000000000000000e+00,1.200000000000000000e+01,-1.000000000000000000e+00,2.000000000000000000e+00,-3.917236328125000000e-01,2.907104492187500000e-01,6.734008789062500000e-01,5.554199218750000000e-01
-6.000000000000000000e+00,-2.000000000000000000e+00,7.000000000000000000e+00,-1.200000000000000000e+01,-1.000000000000000000e+00,5.000000000000000000e+00,-1.100000000000000000e+01,-4.000000000000000000e+00,-3.917236328125000000e-01,2.907104492187500000e-01,6.734008789062500000e-01,5.554199218750000000e-01
1.000000000000000000e+00,-1.000000000000000000e+00,-1.200000000000000000e+01,-6.000000000000000000e+00,-6.000000000000000000e+00,-1.400000000000000000e+01,-1.300000000000000000e+01,-3.000000000000000000e+00,-3.917236328125000000e-01,2.907104492187500000e-01,6.734008789062500000e-01,5.554199218750000000e-01
-8.000000000000000000e+00,-5.000000000000000000e+00,0.000000000000000000e+00,-4.000000000000000000e+00,-5.000000000000000000e+00,-1.000000000000000000e+00,3.000000000000000000e+00,-1.000000000000000000e+00,-3.923339843750000000e-01,2.908325195312500000e-01,6.729736328125000000e-01,5.554199218750000000e-01
7.000000000000000000e+00,4.000000000000000000e+00,1.300000000000000000e+01,6.000000000000000000e+00,0.000000000000000000e+00,-8.000000000000000000e+00,-9.000000000000000000e+00,-1.000000000000000000e+00,-3.923339843750000000e-01,2.908325195312500000e-01,6.729736328125000000e-01,5.554199218750000000e-01
0.000000000000000000e+00,-3.000000000000000000e+00,2.000000000000000000e+00,-8.000000000000000000e+00,-7.000000000000000000e+00,-1.200000000000000000e+01,-3.300000000000000000e+01,0.000000000000000000e+00,-3.923339843750000000e-01,2.908325195312500000e-01,6.729736328125000000e-01,5.554199218750000000e-01
-3.000000000000000000e+00,-3.000000000000000000e+00,-3.000000000000000000e+00,-1.000000000000000000e+00,2.000000000000000000e+00,7.000000000000000000e+00,3.000000000000000000e+00,-2.000000000000000000e+00,-3.923339843750000000e-01,2.908325195312500000e-01,6.729736328125000000e-01,5.554199218750000000e-01
-3.000000000000000000e+00,0.000000000000000000e+00,-1.000000000000000000e+00,-5.000000000000000000e+00,0.000000000000000000e+00,-1.000000000000000000e+01,-8.000000000000000000e+00,-1.000000000000000000e+00,-3.929443359375000000e-01,2.907104492187500000e-01,6.726684570312500000e-01,5.554809570312500000e-01
3.000000000000000000e+00,2.000000000000000000e+00,6.000000000000000000e+00,0.000000000000000000e+00,-1.000000000000000000e+00,9.000000000000000000e+00,1.600000000000000000e+01,1.000000000000000000e+00,-3.929443359375000000e-01,2.907104492187500000e-01,6.726684570312500000e-01,5.554809570312500000e-01
-2.000000000000000000e+00,-2.000000000000000000e+00,-8.000000000000000000e+00,-9.000000000000000000e+00,-3.000000000000000000e+00,1.300000000000000000e+01,1.700000000000000000e+01,2.000000000000000000e+00,-3.929443359375000000e-01,2.907104492187500000e-01,6.726684570312500000e-01,5.554809570312500000e-01
-1.000000000000000000e+00,0.000000000000000000e+00,4.000000000000000000e+00,1.000000000000000000e+00,1.000000000000000000e+00,-9.000000000000000000e+00,-1.000000000000000000e+01,-2.000000000000000000e+00,-3.929443359375000000e-01,2.907104492187500000e-01,6.726684570312500000e-01,5.554809570312500000e-01
-1.000000000000000000e+00,-3.000000000000000000e+00,6.000000000000000000e+00,-7.000000000000000000e+00,-4.000000000000000000e+00,-1.200000000000000000e+01,-1.400000000000000000e+01,-2.000000000000000000e+00,-3.930664062500000000e-01,2.908935546875000000e-01,6.722412109375000000e-01,5.558471679687500000e-01
0.000000000000000000e+00,-3.000000000000000000e+00,-7.000000000000000000e+00,6.000000000000000000e+00,-2.000000000000000000e+00,-1.600000000000000000e+01,-5.000000000000000000e+00,-3.000000000000000000e+00,-3.930664062500000000e-01,2.908935546875000000e-01,6.722412109375000000e-01,5.558471679687500000e-01
-1.800000000000000000e+01,0.000000000000000000e+00,2.000000000000000000e+00,2.000000000000000000e+00,2.000000000000000000e+00,2.100000000000000000e+01,2.300000000000000000e+01,1.000000000000000000e+00,-3.930664062500000000e-01,2.908935546875000000e-01,6.722412109375000000e-01,5.558471679687500000e-01
3.300000000000000000e+01,5.000000000000000000e+00,1.000000000000000000e+00,1.100000000000000000e+01,-2.000000000000000000e+00,-1.200000000000000000e+01,0.000000000000000000e+00,5.000000000000000000e+00,-3.930664062500000000e-01,2.908935546875000000e-01,6.722412109375000000e-01,5.558471679687500000e-01
3.000000000000000000e+00,2.000000000000000000e+00,-2.000000000000000000e+00,0.000000000000000000e+00,4.000000000000000000e+00,1.700000000000000000e+01,2.500000000000000000e+01,2.000000000000000000e+00,-3.935546875000000000e-01,2.908935546875000000e-01,6.718750000000000000e-01,5.558471679687500000e-01
3.000000000000000000e+00,3.000000000000000000e+00,6.000000000000000000e+00,-3.000000000000000000e+00,-2.000000000000000000e+00,-9.000000000000000000e+00,-1.800000000000000000e+01,-2.000000000000000000e+00,-3.935546875000000000e-01,2.908935546875000000e-01,6.718750000000000000e-01,5.558471679687500000e-01
-1.100000000000000000e+01,-5.000000000000000000e+00,-2.000000000000000000e+00,-3.000000000000000000e+00,-3.000000000000000000e+00,-1.100000000000000000e+01,-4.000000000000000000e+00,-6.000000000000000000e+00,-3.935546875000000000e-01,2.908935546875000000e-01,6.718750000000000000e-01,5.558471679687500000e-01
-9.000000000000000000e+00,-6.000000000000000000e+00,-5.000000000000000000e+00,-4.000000000000000000e+00,-4.000000000000000000e+00,3.000000000000000000e+00,1.000000000000000000e+01,-3.000000000000000000e+00,-3.935546875000000000e-01,2.908935546875000000e-01,6.718750000000000000e-01,5.558471679687500000e-01
-1.000000000000000000e+00,-2.000000000000000000e+00,1.000000000000000000e+01,1.000000000000000000e+00,0.000000000000000000e+00,-3.000000000000000000e+00,-1.800000000000000000e+01,0.000000000000000000e+00,-3.944091796875000000e-01,2.904052734375000000e-01,6.717529296875000000e-01,5.556640625000000000e-01
-2.000000000000000000e+00,3.000000000000000000e+00,5.000000000000000000e+00,1.000000000000000000e+00,-1.000000000000000000e+00,-1.000000000000000000e+00,-3.000000000000000000e+00,-1.000000000000000000e+00,-3.944091796875000000e-01,2.904052734375000000e-01,6.717529296875000000e-01,5.556640625000000000e-01
3.000000000000000000e+00,-4.000000000000000000e+00,-1.100000000000000000e+01,2.000000000000000000e+00,2.000000000000000000e+00,1.000000000000000000e+00,5.000000000000000000e+00,1.000000000000000000e+00,-3.944091796875000000e-01,2.904052734375000000e-01,6.717529296875000000e-01,5.556640625000000000e-01
-6.000000000000000000e+00,4.000000000000000000e+00,1.500000000000000000e+01,-2.000000000000000000e+00,1.000000000000000000e+00,5.000000000000000000e+00,-1.000000000000000000e+00,0.000000000000000000e+00,-3.944091796875000000e-01,2.904052734375000000e-01,6.717529296875000000e-01,5.556640625000000000e-01
2.000000000000000000e+00,-4.000000000000000000e+00,-1.600000000000000000e+01,-1.200000000000000000e+01,-4.000000000000000000e+00,-3.000000000000000000e+00,-3.000000000000000000e+00,-1.000000000000000000e+00,-3.950195312500000000e-01,2.899780273437500000e-01,6.715698242187500000e-01,5.557250976562500000e-01
-9.000000000000000000e+00,-2.000000000000000000e+00,1.800000000000000000e+01,7.000000000000000000e+00,-2.000000000000000000e+00,-6.000000000000000000e+00,-7.000000000000000000e+00,-5.000000000000000000e+00,-3.950195312500000000e-01,2.899780273437500000e-01,6.715698242187500000e-01,5.557250976562500000e-01
5.000000000000000000e+00,4.000000000000000000e+00,9.000000000000000000e+00,0.000000000000000000e+00,-3.000000000000000000e+00,-3.000000000000000000e+00,0.000000000000000000e+00,0.000000000000000000e+00,-3.950195312500000000e-01,2.899780273437500000e-01,6.715698242187500000e-01,5.557250976562500000e-01
-4.000000000000000000e+00,-5.000000000000000000e+00,-4.000000000000000000e+00,-5.000000000000000000e+00,-3.000000000000000000e+00,-8.000000000000000000e+00,-1.000000000000000000e+00,-1.000000000000000000e+00,-3.950195312500000000e-01,2.899780273437500000e-01,6.715698242187500000e-01,5.557250976562500000e-01
-2.000000000000000000e+00,1.000000000000000000e+00,-2.000000000000000000e+00,8.000000000000000000e+00,0.000000000000000000e+00,5.000000000000000000e+00,4.000000000000000000e+00,0.000000000000000000e+00,-3.951416015625000000e-01,2.902832031250000000e-01,6.713256835937500000e-01,5.557861328125000000e-01
2.000000000000000000e+00,4.000000000000000000e+00,1.000000000000000000e+00,-2.000000000000000000e+00,-1.000000000000000000e+00,-1.100000000000000000e+01,5.000000000000000000e+00,0.000000000000000000e+00,-3.951416015625000000e-01,2.902832031250000000e-01,6.713256835937500000e-01,5.557861328125000000e-01
1.000000000000000000e+00,-9.000000000000000000e+00,-9.000000000000000000e+00,1.000000000000000000e+00,1.000000000000000000e+00,5.000000000000000000e+00,-1.000000000000000000e+00,-2.000000000000000000e+00,-3.951416015625000000e-01,2.902832031250000000e-01,6.713256835937500000e-01,5.557861328125000000e-01
-5.000000000000000000e+00,0.000000000000000000e+00,6.000000000000000000e+00,0.000000000000000000e+00,4.000000000000000000e+00,6.000000000000000000e+00,-5.000000000000000000e+00,0.000000000000000000e+00,-3.951416015625000000e-01,2.902832031250000000e-01,6.713256835937500000e-01,5.557861328125000000e-01
0.000000000000000000e+00,1.000000000000000000e+00,4.000000000000000000e+00,3.000000000000000000e+00,-1.000000000000000000e+00,0.000000000000000000e+00,1.200000000000000000e+01,1.000000000000000000e+00,-3.950805664062500000e-01,2.905883789062500000e-01,6.715087890625000000e-01,5.554199218750000000e-01
0.000000000000000000e+00,-3.000000000000000000e+00,-7.000000000000000000e+00,-6.000000000000000000e+00,0.000000000000000000e+00,1.200000000000000000e+01,-5.000000000000000000e+00,-2.000000000000000000e+00,-3.950805664062500000e-01,2.905883789062500000e-01,6.715087890625000000e-01,5.554199218750000000e-01
3.000000000000000000e+00,2.000000000000000000e+00,9.000000000000000000e+00,7.000000000000000000e+00,3.000000000000000000e+00,6.000000000000000000e+00,1.000000000000000000e+01,1.000000000000000000e+00,-3.950805664062500000e-01,2.905883789062500000e-01,6.715087890625000000e-01,5.554199218750000000e-01
-5.000000000000000000e+00,-2.000000000000000000e+00,-4.000000000000000000e+00,-2.000000000000000000e+00,-1.000000000000000000e+00,-5.000000000000000000e+00,-4.000000000000000000e+00,-2.000000000000000000e+00,-3.950805664062500000e-01,2.905883789062500000e-01,6.715087890625000000e-01,5.554199218750000000e-01
-6.000000000000000000e+00,-3.000000000000000000e+00,5.000000000000000000e+00,1.000000000000000000e+00,-1.000000000000000000e+00,0.000000000000000000e+00,-3.000000000000000000e+00,-3.000000000000000000e+00,-3.950805664062500000e-01,2.909545898437500000e-01,6.715698242187500000e-01,5.551147460937500000e-01
2.000000000000000000e+00,-2.000000000000000000e+00,-3.000000000000000000e+00,9.000000000000000000e+00,4.000000000000000000e+00,4.000000000000000000e+00,5.000000000000000000e+00,1.000000000000000000e+00,-3.950805664062500000e-01,2.909545898437500000e-01,6.715698242187500000e-01,5.551147460937500000e-01
6.000000000000000000e+00,3.000000000000000000e+00,4.000000000000000000e+00,-5.000000000000000000e+00,-4.000000000000000000e+00,-2.000000000000000000e+00,0.000000000000000000e+00,0.000000000000000000e+00,-3.950805664062500000e-01,2.909545898437500000e-01,6.715698242187500000e-01,5.551147460937500000e-01
-6.000000000000000000e+00,-1.000000000000000000e+00,5.000000000000000000e+00,2.000000000000000000e+00,-2.000000000000000000e+00,-3.000000000000000000e+00,-1.000000000000000000e+01,-4.000000000000000000e+00,-3.950805664062500000e-01,2.909545898437500000e-01,6.715698242187500000e-01,5.551147460937500000e-01
-2.000000000000000000e+00,-4.000000000000000000e+00,-2.000000000000000000e+00,-2.000000000000000000e+00,-1.000000000000000000e+00,0.000000000000000000e+00,2.000000000000000000e+00,-3.000000000000000000e+00,-3.950195312500000000e-01,2.911987304687500000e-01,6.716918945312500000e-01,5.549316406250000000e-01
5.000000000000000000e+00,1.000000000000000000e+00,3.000000000000000000e+00,-2.000000000000000000e+00,-3.000000000000000000e+00,0.000000000000000000e+00,6.000000000000000000e+00,0.000000000000000000e+00,-3.950195312500000000e-01,2.911987304687500000e-01,6.716918945312500000e-01,5.549316406250000000e-01
-2.000000000000000000e+00,-2.000000000000000000e+00,5.000000000000000000e+00,2.000000000000000000e+00,1.000000000000000000e+00,-5.000000000000000000e+00,-6.000000000000000000e+00,-2.000000000000000000e+00,-3.950195312500000000e-01,2.911987304687500000e-01,6.716918945312500000e-01,5.549316406250000000e-01
6.000000000000000000e+00,1.000000000000000000e+00,-2.000000000000000000e+00,-2.000000000000000000e+00,-3.000000000000000000e+00,-5.000000000000000000e+00,2.000000000000000000e+00,2.000000000000000000e+00,-3.950195312500000000e-01,2.911987304687500000e-01,6.716918945312500000e-01,5.549316406250000000e-01
-1.000000000000000000e+00,3.000000000000000000e+00,2.000000000000000000e+00,-6.000000000000000000e+00,-6.000000000000000000e+00,-1.400000000000000000e+01,-1.700000000000000000e+01,-3.000000000000000000e+00,-3.945922851562500000e-01,2.918090820312500000e-01,6.718139648437500000e-01,5.546875000000000000e-01
2.000000000000000000e+00,-2.000000000000000000e+00,-2.000000000000000000e+00,-5.000000000000000000e+00,-1.000000000000000000e+00,-5.000000000000000000e+00,-6.000000000000000000e+00,1.000000000000000000e+00,-3.945922851562500000e-01,2.918090820312500000e-01,6.718139648437500000e-01,5.546875000000000000e-01
-4.000000000000000000e+00,-2.000000000000000000e+00,-6.000000000000000000e+00,3.000000000000000000e+00,2.000000000000000000e+00,9.000000000000000000e+00,1.400000000000000000e+01,0.000000000000000000e+00,-3.945922851562500000e-01,2.918090820312500000e-01,6.718139648437500000e-01,5.546875000000000000e-01
-6.000000000000000000e+00,-4.000000000000000000e+00,-9.000000000000000000e+00,-3.000000000000000000e+00,1.000000000000000000e+00,5.000000000000000000e+00,-1.000000000000000000e+00,0.000000000000000000e+00,-3.945922851562500000e-01,2.918090820312500000e-01,6.718139648437500000e-01,5.546875000000000000e-01
-1.000000000000000000e+00,1.000000000000000000e+00,1.000000000000000000e+00,0.000000000000000000e+00,4.000000000000000000e+00,9.000000000000000000e+00,-3.000000000000000000e+00,-2.000000000000000000e+00,-3.941650390625000000e-01,2.924194335937500000e-01,6.719360351562500000e-01,5.545654296875000000e-01
-5.000000000000000000e+00,-2.000000000000000000e+00,-6.000000000000000000e+00,5.000000000000000000e+00,-1.000000000000000000e+00,6.000000000000000000e+00,1.000000000000000000e+00,-2.000000000000000000e+00,-3.941650390625000000e-01,2.924194335937500000e-01,6.719360351562500000e-01,5.545654296875000000e-01
-1.000000000000000000e+00,0.000000000000000000e+00,3.000000000000000000e+00,-1.000000000000000000e+00,-3.000000000000000000e+00,-6.000000000000000000e+00,-4.000000000000000000e+00,1.000000000000000000e+00,-3.941650390625000000e-01,2.924194335937500000e-01,6.719360351562500000e-01,5.545654296875000000e-01
-2.000000000000000000e+00,1.000000000000000000e+00,1.000000000000000000e+00,3.000000000000000000e+00,2.000000000000000000e+00,0.000000000000000000e+00,9.000000000000000000e+00,1.000000000000000000e+00,-3.941650390625000000e-01,2.924194335937500000e-01,6.719360351562500000e-01,5.545654296875000000e-01
-4.000000000000000000e+00,-5.000000000000000000e+00,-1.100000000000000000e+01,-6.000000000000000000e+00,0.000000000000000000e+00,3.000000000000000000e+00,6.000000000000000000e+00,0.000000000000000000e+00,-3.941040039062500000e-01,2.922973632812500000e-01,6.721191406250000000e-01,5.545043945312500000e-01
-1.100000000000000000e+01,-2.000000000000000000e+00,2.000000000000000000e+00,-5.000000000000000000e+00,-3.000000000000000000e+00,-5.000000000000000000e+00,6.000000000000000000e+00,-1.000000000000000000e+00,-3.941040039062500000e-01,2.922973632812500000e-01,6.721191406250000000e-01,5.545043945312500000e-01
5.000000000000000000e+00,0.000000000000000000e+00,-7.000000000000000000e+00,2.000000000000000000e+00,1.000000000000000000e+00,-6.000000000000000000e+00,-5.000000000000000000e+00,-3.000000000000000000e+00,-3.941040039062500000e-01,2.922973632812500000e-01,6.721191406250000000e-01,5.545043945312500000e-01
0.000000000000000000e+00,-3.000000000000000000e+00,-4.000000000000000000e+00,-1.000000000000000000e+01,-7.000000000000000000e+00,-1.100000000000000000e+01,-2.900000000000000000e+01,-4.000000000000000000e+00,-3.941040039062500000e-01,2.922973632812500000e-01,6.721191406250000000e-01,5.545043945312500000e-01
-1.000000000000000000e+00,-3.000000000000000000e+00,-1.000000000000000000e+00,1.000000000000000000e+00,0.000000000000000000e+00,5.000000000000000000e+00,1.000000000000000000e+00,-2.000000000000000000e+00,-3.941040039062500000e-01,2.919311523437500000e-01,6.721191406250000000e-01,5.546264648437500000e-01
2.000000000000000000e+00,0.000000000000000000e+00,1.000000000000000000e+00,-4.000000000000000000e+00,-3.000000000000000000e+00,-1.000000000000000000e+00,1.000000000000000000e+00,-1.000000000000000000e+00,-3.941040039062500000e-01,2.919311523437500000e-01,6.721191406250000000e-01,5.546264648437500000e-01
-1.000000000000000000e+00,-1.000000000000000000e+00,-6.000000000000000000e+00,-6.000000000000000000e+00,-4.000000000000000000e+00,-1.200000000000000000e+01,-1.000000000000000000e+01,0.000000000000000000e+00,-3.941040039062500000e-01,2.919311523437500000e-01,6.721191406250000000e-01,5.546264648437500000e-01
-2.000000000000000000e+00,0.000000000000000000e+00,4.000000000000000000e+00,1.300000000000000000e+01,1.000000000000000000e+00,0.000000000000000000e+00,3.000000000000000000e+00,-2.000000000000000000e+00,-3.941040039062500000e-01,2.919311523437500000e-01,6.721191406250000000e-01,5.546264648437500000e-01
-2.000000000000000000e+00,-7.000000000000000000e+00,-3.000000000000000000e+00,-1.000000000000000000e+00,-2.000000000000000000e+00,-2.000000000000000000e+00,0.000000000000000000e+00,1.000000000000000000e+00,-3.941040039062500000e-01,2.918701171875000000e-01,6.722412109375000000e-01,5.545043945312500000e-01
-1.000000000000000000e+00,-4.000000000000000000e+00,-1.100000000000000000e+01,-6.000000000000000000e+00,-2.000000000000000000e+00,-9.000000000000000000e+00,-8.000000000000000000e+00,-2.000000000000000000e+00,-3.941040039062500000e-01,2.918701171875000000e-01,6.722412109375000000e-01,5.545043945312500000e-01
-5.000000000000000000e+00,-5.000000000000000000e+00,7.000000000000000000e+00,-3.000000000000000000e+00,-2.000000000000000000e+00,5.000000000000000000e+00,3.000000000000000000e+00,-2.000000000000000000e+00,-3.941040039062500000e-01,2.918701171875000000e-01,6.722412109375000000e-01,5.545043945312500000e-01
1.000000000000000000e+00,1.000000000000000000e+00,4.000000000000000000e+00,-1.000000000000000000e+00,0.000000000000000000e+00,0.000000000000000000e+00,2.000000000000000000e+00,-2.000000000000000000e+00,-3.941040039062500000e-01,2.918701171875000000e-01,6.722412109375000000e-01,5.545043945312500000e-01
-3.000000000000000000e+00,2.000000000000000000e+00,-3.000000000000000000e+00,-2.000000000000000000e+00,-1.000000000000000000e+00,-1.000000000000000000e+00,-4.000000000000000000e+00,0.000000000000000000e+00,-3.942871093750000000e-01,2.915649414062500000e-01,6.724243164062500000e-01,5.543212890625000000e-01
1.000000000000000000e+00,3.000000000000000000e+00,2.000000000000000000e+00,4.000000000000000000e+00,3.000000000000000000e+00,9.000000000000000000e+00,3.000000000000000000e+00,1.000000000000000000e+00,-3.942871093750000000e-01,2.915649414062500000e-01,6.724243164062500000e-01,5.543212890625000000e-01
-4.000000000000000000e+00,-5.000000000000000000e+00,-1.000000000000000000e+01,2.000000000000000000e+00,2.000000000000000000e+00,-6.000000000000000000e+00,-6.000000000000000000e+00,-3.000000000000000000e+00,-3.942871093750000000e-01,2.915649414062500000e-01,6.724243164062500000e-01,5.543212890625000000e-01
-3.000000000000000000e+00,-1.000000000000000000e+00,-3.000000000000000000e+00,-2.000000000000000000e+00,-1.000000000000000000e+00,3.000000000000000000e+00,1.300000000000000000e+01,-1.000000000000000000e+00,-3.942871093750000000e-01,2.915649414062500000e-01,6.724243164062500000e-01,5.543212890625000000e-01
1.000000000000000000e+00,-2.000000000000000000e+00,-3.000000000000000000e+00,3.000000000000000000e+00,-1.000000000000000000e+00,2.000000000000000000e+00,-2.000000000000000000e+00,1.000000000000000000e+00,-3.943481445312500000e-01,2.916870117187500000e-01,6.724243164062500000e-01,5.543212890625000000e-01
1.000000000000000000e+00,-1.000000000000000000e+00,-4.000000000000000000e+00,-7.000000000000000000e+00,-2.000000000000000000e+00,-2.000000000000000000e+00,1.000000000000000000e+00,1.000000000000000000e+00,-3.943481445312500000e-01,2.916870117187500000e-01,6.724243164062500000e-01,5.543212890625000000e-01
-1.000000000000000000e+00,-2.000000000000000000e+00,-2.000000000000000000e+00,1.000000000000000000e+00,2.000000000000000000e+00,1.000000000000000000e+00,2.000000000000000000e+00,-1.000000000000000000e+00,-3.943481445312500000e-01,2.916870117187500000e-01,6.724243164062500000e-01,5.543212890625000000e-01
-4.000000000000000000e+00,-5.000000000000000000e+00,1.000000000000000000e+00,0.000000000000000000e+00,-8.000000000000000000e+00,-7.000000000000000000e+00,3.000000000000000000e+00,-2.000000000000000000e+00,-3.943481445312500000e-01,2.916870117187500000e-01,6.724243164062500000e-01,5.543212890625000000e-01
-2.000000000000000000e+00,2.000000000000000000e+00,-1.000000000000000000e+00,1.000000000000000000e+00,0.000000000000000000e+00,8.000000000000000000e+00,2.300000000000000000e+01,0.000000000000000000e+00,-3.945312500000000000e-01,2.917480468750000000e-01,6.718750000000000000e-01,5.546875000000000000e-01
1.300000000000000000e+01,1.000000000000000000e+00,-3.000000000000000000e+00,2.000000000000000000e+00,0.000000000000000000e+00,-5.000000000000000000e+00,-1.300000000000000000e+01,-2.000000000000000000e+00,-3.945312500000000000e-01,2.917480468750000000e-01,6.718750000000000000e-01,5.546875000000000000e-01
-1.100000000000000000e+01,1.000000000000000000e+00,4.000000000000000000e+00,-5.000000000000000000e+00,-3.000000000000000000e+00,-2.000000000000000000e+00,-5.000000000000000000e+00,-1.000000000000000000e+00,-3.945312500000000000e-01,2.917480468750000000e-01,6.718750000000000000e-01,5.546875000000000000e-01
2.000000000000000000e+00,-1.000000000000000000e+00,-1.000000000000000000e+00,8.000000000000000000e+00,-1.000000000000000000e+00,-6.000000000000000000e+00,-1.600000000000000000e+01,-3.000000000000000000e+00,-3.945312500000000000e-01,2.917480468750000000e-01,6.718750000000000000e-01,5.546875000000000000e-01
-8.000000000000000000e+00,-5.000000000000000000e+00,1.000000000000000000e+00,-5.000000000000000000e+00,-6.000000000000000000e+00,-1.300000000000000000e+01,0.000000000000000000e+00,-2.000000000000000000e+00,-3.947753906250000000e-01,2.915649414062500000e-01,6.716308593750000000e-01,5.549926757812500000e-01
0.000000000000000000e+00,1.000000000000000000e+00,0.000000000000000000e+00,0.000000000000000000e+00,1.000000000000000000e+00,1.200000000000000000e+01,3.000000000000000000e+00,-1.000000000000000000e+00,-3.947753906250000000e-01,2.915649414062500000e-01,6.716308593750000000e-01,5.549926757812500000e-01
2.000000000000000000e+00,-1.000000000000000000e+00,-8.000000000000000000e+00,0.000000000000000000e+00,2.000000000000000000e+00,-4.000000000000000000e+00,-1.000000000000000000e+00,-1.000000000000000000e+00,-3.947753906250000000e-01,2.915649414062500000e-01,6.716308593750000000e-01,5.549926757812500000e-01
-3.000000000000000000e+00,0.000000000000000000e+00,1.000000000000000000e+00,-4.000000000000000000e+00,-1.000000000000000000e+00,2.000000000000000000e+00,-3.000000000000000000e+00,1.000000000000000000e+00,-3.947753906250000000e-01,2.915649414062500000e-01,6.716308593750000000e-01,5.549926757812500000e-01
3.000000000000000000e+00,-2.000000000000000000e+00,-3.000000000000000000e+00,-3.000000000000000000e+00,-5.000000000000000000e+00,-1.100000000000000000e+01,-8.000000000000000000e+00,0.000000000000000000e+00,-3.950805664062500000e-01,2.912597656250000000e-01,6.713867187500000000e-01,5.551757812500000000e-01
-6.000000000000000000e+00,3.000000000000000000e+00,3.000000000000000000e+00,2.000000000000000000e+00,1.000000000000000000e+00,-1.000000000000000000e+00,0.000000000000000000e+00,-1.000000000000000000e+00,-3.950805664062500000e-01,2.912597656250000000e-01,6.713867187500000000e-01,5.551757812500000000e-01
1.000000000000000000e+00,-2.000000000000000000e+00,0.000000000000000000e+00,1.000000000000000000e+00,-1.000000000000000000e+00,-7.000000000000000000e+00,-8.000000000000000000e+00,-2.000000000000000000e+00,-3.950805664062500000e-01,2.912597656250000000e-01,6.713867187500000000e-01,5.551757812500000000e-01
-4.000000000000000000e+00,-4.000000000000000000e+00,-4.000000000000000000e+00,-5.000000000000000000e+00,0.000000000000000000e+00,6.000000000000000000e+00,2.000000000000000000e+00,0.000000000000000000e+00,-3.950805664062500000e-01,2.912597656250000000e-01,6.713867187500000000e-01,5.551757812500000000e-01
-8.000000000000000000e+00,1.000000000000000000e+00,-7.000000000000000000e+00,-6.000000000000000000e+00,0.000000000000000000e+00,3.000000000000000000e+00,-7.000000000000000000e+00,-3.000000000000000000e+00,-3.957519531250000000e-01,2.909545898437500000e-01,6.710815429687500000e-01,5.552978515625000000e-01
2.000000000000000000e+00,-1.000000000000000000e+00,6.000000000000000000e+00,5.000000000000000000e+00,1.000000000000000000e+00,-3.000000000000000000e+00,5.000000000000000000e+00,2.000000000000000000e+00,-3.957519531250000000e-01,2.909545898437500000e-01,6.710815429687500000e-01,5.552978515625000000e-01
5.000000000000000000e+00,-1.000000000000000000e+00,-9.000000000000000000e+00,4.000000000000000000e+00,1.000000000000000000e+00,8.000000000000000000e+00,7.000000000000000000e+00,2.000000000000000000e+00,-3.957519531250000000e-01,2.909545898437500000e-01,6.710815429687500000e-01,5.552978515625000000e-01
1.000000000000000000e+00,-2.000000000000000000e+00,5.000000000000000000e+00,-8.000000000000000000e+00,1.000000000000000000e+00,-2.000000000000000000e+00,-9.000000000000000000e+00,0.000000000000000000e+00,-3.957519531250000000e-01,2.909545898437500000e-01,6.710815429687500000e-01,5.552978515625000000e-01
1.000000000000000000e+00,1.000000000000000000e+00,8.000000000000000000e+00,7.000000000000000000e+00,-2.000000000000000000e+00,-1.000000000000000000e+00,-8.000000000000000000e+00,-2.000000000000000000e+00,-3.963623046875000000e-01,2.910766601562500000e-01,6.708984375000000000e-01,5.549926757812500000e-01
-9.000000000000000000e+00,-5.000000000000000000e+00,-6.000000000000000000e+00,-1.500000000000000000e+01,-4.000000000000000000e+00,-5.000000000000000000e+00,-9.000000000000000000e+00,-5.000000000000000000e+00,-3.963623046875000000e-01,2.910766601562500000e-01,6.708984375000000000e-01,5.549926757812500000e-01
-1.000000000000000000e+00,3.000000000000000000e+00,3.000000000000000000e+00,6.000000000000000000e+00,0.000000000000000000e+00,-3.000000000000000000e+00,-2.000000000000000000e+00,-1.000000000000000000e+00,-3.963623046875000000e-01,2.910766601562500000e-01,6.708984375000000000e-01,5.549926757812500000e-01
-5.000000000000000000e+00,-5.000000000000000000e+00,-4.000000000000000000e+00,-6.000000000000000000e+00,-6.000000000000000000e+00,3.000000000000000000e+00,8.000000000000000000e+00,0.000000000000000000e+00,-3.963623046875000000e-01,2.910766601562500000e-01,6.708984375000000000e-01,5.549926757812500000e-01
