0.000000000000000000e+00,2.000000000000000000e+00,-2.000000000000000000e+00,3.000000000000000000e+01,1.200000000000000000e+01,0.000000000000000000e+00,7.000000000000000000e+00,-1.000000000000000000e+00,4.178466796875000000e-01,3.481445312500000000e-01,-8.242797851562500000e-01,1.573486328125000000e-01
0.000000000000000000e+00,2.000000000000000000e+00,-6.000000000000000000e+00,-2.100000000000000000e+01,-7.000000000000000000e+00,1.000000000000000000e+00,1.100000000000000000e+01,-1.000000000000000000e+00,4.178466796875000000e-01,3.481445312500000000e-01,-8.242797851562500000e-01,1.573486328125000000e-01
-3.000000000000000000e+00,-1.000000000000000000e+00,-9.000000000000000000e+00,-4.000000000000000000e+00,-7.000000000000000000e+00,-3.000000000000000000e+00,-6.000000000000000000e+00,1.000000000000000000e+00,4.182128906250000000e-01,3.479614257812500000e-01,-8.242797851562500000e-01,1.569824218750000000e-01
6.000000000000000000e+00,3.000000000000000000e+00,9.000000000000000000e+00,7.000000000000000000e+00,1.000000000000000000e+00,-1.000000000000000000e+00,-1.600000000000000000e+01,-3.000000000000000000e+00,4.182128906250000000e-01,3.479614257812500000e-01,-8.242797851562500000e-01,1.569824218750000000e-01
-8.000000000000000000e+00,3.000000000000000000e+00,-4.000000000000000000e+00,-1.200000000000000000e+01,-5.000000000000000000e+00,-1.200000000000000000e+01,-1.300000000000000000e+01,0.000000000000000000e+00,4.182128906250000000e-01,3.479614257812500000e-01,-8.242797851562500000e-01,1.569824218750000000e-01
2.000000000000000000e+00,-1.300000000000000000e+01,-1.000000000000000000e+01,3.100000000000000000e+01,1.000000000000000000e+01,1.100000000000000000e+01,2.300000000000000000e+01,0.000000000000000000e+00,4.182128906250000000e-01,3.479614257812500000e-01,-8.242797851562500000e-01,1.569824218750000000e-01
-5.000000000000000000e+00,-1.000000000000000000e+01,5.000000000000000000e+00,-2.500000000000000000e+01,-1.300000000000000000e+01,-4.000000000000000000e+00,1.000000000000000000e+00,-3.000000000000000000e+00,4.182128906250000000e-01,3.479614257812500000e-01,-8.242797851562500000e-01,1.569213867187500000e-01
-4.000000000000000000e+00,-5.000000000000000000e+00,-9.000000000000000000e+00,1.000000000000000000e+00,3.000000000000000000e+00,-2.000000000000000000e+00,-1.100000000000000000e+01,-2.000000000000000000e+00,4.182128906250000000e-01,3.479614257812500000e-01,-8.242797851562500000e-01,1.569213867187500000e-01
3.000000000000000000e+00,5.000000000000000000e+00,1.600000000000000000e+01,6.000000000000000000e+00,3.000000000000000000e+00,0.000000000000000000e+00,-5.000000000000000000e+00,-2.000000000000000000e+00,4.182128906250000000e-01,3.479614257812500000e-01,-8.242797851562500000e-01,1.569213867187500000e-01
0.000000000000000000e+00,1.000000000000000000e+01,0.000000000000000000e+00,0.000000000000000000e+00,-8.000000000000000000e+00,-4.000000000000000000e+00,-4.000000000000000000e+00,-2.000000000000000000e+00,4.182128906250000000e-01,3.479614257812500000e-01,-8.242797851562500000e-01,1.569213867187500000e-01
7.000000000000000000e+00,2.000000000000000000e+00,2.000000000000000000e+00,1.000000000000000000e+00,0.000000000000000000e+00,-2.000000000000000000e+00,-1.000000000000000000e+00,-3.000000000000000000e+00,4.179687500000000000e-01,3.479003906250000000e-01,-8.243408203125000000e-01,1.572265625000000000e-01
-2.000000000000000000e+01,-1.100000000000000000e+01,1.800000000000000000e+01,1.100000000000000000e+01,1.000000000000000000e+00,-2.000000000000000000e+00,-1.000000000000000000e+00,-4.000000000000000000e+00,4.179687500000000000e-01,3.479003906250000000e-01,-8.243408203125000000e-01,1.572265625000000000e-01
-4.000000000000000000e+00,-1.400000000000000000e+01,1.300000000000000000e+01,-1.700000000000000000e+01,-1.600000000000000000e+01,-1.300000000000000000e+01,-1.200000000000000000e+01,-3.000000000000000000e+00,4.179687500000000000e-01,3.479003906250000000e-01,-8.243408203125000000e-01,1.572265625000000000e-01
9.000000000000000000e+00,1.100000000000000000e+01,-9.000000000000000000e+00,-1.400000000000000000e+01,-2.000000000000000000e+00,6.000000000000000000e+00,3.500000000000000000e+01,2.000000000000000000e+00,4.179687500000000000e-01,3.479003906250000000e-01,-8.243408203125000000e-01,1.572265625000000000e-01
0.000000000000000000e+00,3.000000000000000000e+00,2.000000000000000000e+01,9.000000000000000000e+00,1.500000000000000000e+01,2.000000000000000000e+00,-1.100000000000000000e+01,0.000000000000000000e+00,4.174804687500000000e-01,3.482055664062500000e-01,-8.244628906250000000e-01,1.572875976562500000e-01
5.000000000000000000e+00,2.000000000000000000e+00,-3.200000000000000000e+01,-2.000000000000000000e+00,-1.100000000000000000e+01,-3.000000000000000000e+00,-6.000000000000000000e+00,0.000000000000000000e+00,4.174804687500000000e-01,3.482055664062500000e-01,-8.244628906250000000e-01,1.572875976562500000e-01
1.000000000000000000e+00,4.000000000000000000e+00,9.000000000000000000e+00,-9.000000000000000000e+00,2.000000000000000000e+00,2.000000000000000000e+00,-1.000000000000000000e+00,-1.000000000000000000e+00,4.174804687500000000e-01,3.482055664062500000e-01,-8.244628906250000000e-01,1.572875976562500000e-01
-5.000000000000000000e+00,5.000000000000000000e+00,1.000000000000000000e+00,2.000000000000000000e+00,-1.000000000000000000e+01,-1.300000000000000000e+01,-2.500000000000000000e+01,2.000000000000000000e+00,4.174804687500000000e-01,3.482055664062500000e-01,-8.244628906250000000e-01,1.572875976562500000e-01
-3.000000000000000000e+00,-8.000000000000000000e+00,1.000000000000000000e+01,1.500000000000000000e+01,-2.100000000000000000e+01,4.000000000000000000e+00,1.400000000000000000e+01,1.000000000000000000e+00,4.171752929687500000e-01,3.477783203125000000e-01,-8.248291015625000000e-01,1.570434570312500000e-01
0.000000000000000000e+00,-4.000000000000000000e+00,-2.300000000000000000e+01,-2.200000000000000000e+01,3.100000000000000000e+01,1.000000000000000000e+01,1.800000000000000000e+01,2.000000000000000000e+00,4.171752929687500000e-01,3.477783203125000000e-01,-8.248291015625000000e-01,1.570434570312500000e-01
1.000000000000000000e+00,1.000000000000000000e+00,-3.000000000000000000e+00,3.000000000000000000e+00,9.000000000000000000e+00,8.000000000000000000e+00,1.200000000000000000e+01,2.000000000000000000e+00,4.171752929687500000e-01,3.477783203125000000e-01,-8.248291015625000000e-01,1.570434570312500000e-01
7.000000000000000000e+00,0.000000000000000000e+00,-9.000000000000000000e+00,1.000000000000000000e+00,-9.000000000000000000e+00,-1.000000000000000000e+01,-1.700000000000000000e+01,-5.000000000000000000e+00,4.171752929687500000e-01,3.477783203125000000e-01,-8.248291015625000000e-01,1.570434570312500000e-01
-1.000000000000000000e+01,-3.000000000000000000e+00,-7.000000000000000000e+00,3.000000000000000000e+00,-2.000000000000000000e+00,-1.000000000000000000e+00,-7.000000000000000000e+00,-2.000000000000000000e+00,4.171142578125000000e-01,3.471679687500000000e-01,-8.251342773437500000e-01,1.569824218750000000e-01
4.000000000000000000e+00,1.000000000000000000e+00,2.700000000000000000e+01,6.000000000000000000e+00,-6.000000000000000000e+00,-4.000000000000000000e+00,-7.000000000000000000e+00,-2.000000000000000000e+00,4.171142578125000000e-01,3.471679687500000000e-01,-8.251342773437500000e-01,1.569824218750000000e-01
7.000000000000000000e+00,1.000000000000000000e+00,-1.800000000000000000e+01,-3.000000000000000000e+00,-3.000000000000000000e+00,-2.000000000000000000e+00,-5.000000000000000000e+00,-4.000000000000000000e+00,4.171142578125000000e-01,3.471679687500000000e-01,-8.251342773437500000e-01,1.569824218750000000e-01
-1.300000000000000000e+01,-5.000000000000000000e+00,2.200000000000000000e+01,-3.000000000000000000e+00,-7.000000000000000000e+00,-1.000000000000000000e+00,-2.900000000000000000e+01,-2.000000000000000000e+00,4.171142578125000000e-01,3.471679687500000000e-01,-8.251342773437500000e-01,1.569824218750000000e-01
-3.000000000000000000e+00,2.000000000000000000e+00,-1.400000000000000000e+01,-8.000000000000000000e+00,1.000000000000000000e+01,7.000000000000000000e+00,6.000000000000000000e+00,-1.000000000000000000e+00,4.169921875000000000e-01,3.468627929687500000e-01,-8.253784179687500000e-01,1.567382812500000000e-01
-3.000000000000000000e+00,-1.600000000000000000e+01,1.600000000000000000e+01,7.000000000000000000e+00,0.000000000000000000e+00,0.000000000000000000e+00,3.000000000000000000e+00,0.000000000000000000e+00,4.169921875000000000e-01,3.468627929687500000e-01,-8.253784179687500000e-01,1.567382812500000000e-01
3.000000000000000000e+00,3.000000000000000000e+00,-8.000000000000000000e+00,-1.000000000000000000e+01,-9.000000000000000000e+00,-6.000000000000000000e+00,1.000000000000000000e+00,1.000000000000000000e+00,4.169921875000000000e-01,3.468627929687500000e-01,-8.253784179687500000e-01,1.567382812500000000e-01
9.000000000000000000e+00,1.000000000000000000e+01,4.000000000000000000e+00,7.000000000000000000e+00,1.000000000000000000e+00,1.000000000000000000e+00,-6.000000000000000000e+00,-1.000000000000000000e+00,4.169921875000000000e-01,3.468627929687500000e-01,-8.253784179687500000e-01,1.567382812500000000e-01
-8.000000000000000000e+00,-8.000000000000000000e+00,1.300000000000000000e+01,-5.000000000000000000e+00,-6.000000000000000000e+00,-9.000000000000000000e+00,-2.000000000000000000e+00,0.000000000000000000e+00,4.166870117187500000e-01,3.467407226562500000e-01,-8.255615234375000000e-01,1.569213867187500000e-01
4.000000000000000000e+00,1.000000000000000000e+01,-2.000000000000000000e+00,0.000000000000000000e+00,-8.000000000000000000e+00,-3.000000000000000000e+00,-4.000000000000000000e+00,-2.000000000000000000e+00,4.166870117187500000e-01,3.467407226562500000e-01,-8.255615234375000000e-01,1.569213867187500000e-01
-6.000000000000000000e+00,-1.400000000000000000e+01,4.000000000000000000e+00,7.000000000000000000e+00,-1.900000000000000000e+01,-7.000000000000000000e+00,-6.000000000000000000e+00,-4.000000000000000000e+00,4.166870117187500000e-01,3.467407226562500000e-01,-8.255615234375000000e-01,1.569213867187500000e-01
4.000000000000000000e+00,-7.000000000000000000e+00,-9.000000000000000000e+00,-3.100000000000000000e+01,1.500000000000000000e+01,6.000000000000000000e+00,-1.000000000000000000e+00,0.000000000000000000e+00,4.166870117187500000e-01,3.467407226562500000e-01,-8.255615234375000000e-01,1.569213867187500000e-01
-2.000000000000000000e+00,-4.000000000000000000e+00,-1.800000000000000000e+01,2.000000000000000000e+01,1.400000000000000000e+01,1.000000000000000000e+00,-3.000000000000000000e+00,0.000000000000000000e+00,4.161376953125000000e-01,3.469848632812500000e-01,-8.257446289062500000e-01,1.566772460937500000e-01
5.000000000000000000e+00,9.000000000000000000e+00,2.000000000000000000e+01,2.000000000000000000e+00,1.000000000000000000e+00,0.000000000000000000e+00,3.000000000000000000e+00,-1.000000000000000000e+00,4.161376953125000000e-01,3.469848632812500000e-01,-8.257446289062500000e-01,1.566772460937500000e-01
7.000000000000000000e+00,3.000000000000000000e+00,-4.000000000000000000e+00,5.000000000000000000e+00,3.000000000000000000e+00,2.000000000000000000e+00,3.000000000000000000e+00,0.000000000000000000e+00,4.161376953125000000e-01,3.469848632812500000e-01,-8.257446289062500000e-01,1.566772460937500000e-01
-7.000000000000000000e+00,-5.000000000000000000e+00,-1.400000000000000000e+01,1.000000000000000000e+01,-2.000000000000000000e+00,1.000000000000000000e+00,8.000000000000000000e+00,4.000000000000000000e+00,4.161376953125000000e-01,3.469848632812500000e-01,-8.257446289062500000e-01,1.566772460937500000e-01
-2.000000000000000000e+00,3.000000000000000000e+00,1.500000000000000000e+01,-2.200000000000000000e+01,-9.000000000000000000e+00,-1.600000000000000000e+01,-1.500000000000000000e+01,-2.000000000000000000e+00,4.156494140625000000e-01,3.469848632812500000e-01,-8.261108398437500000e-01,1.563110351562500000e-01
-4.000000000000000000e+00,0.000000000000000000e+00,2.000000000000000000e+00,-3.000000000000000000e+00,-1.200000000000000000e+01,9.000000000000000000e+00,1.100000000000000000e+01,-5.000000000000000000e+00,4.156494140625000000e-01,3.469848632812500000e-01,-8.261108398437500000e-01,1.563110351562500000e-01
-5.000000000000000000e+00,-5.000000000000000000e+00,-1.900000000000000000e+01,-5.000000000000000000e+00,0.000000000000000000e+00,-8.000000000000000000e+00,-6.000000000000000000e+00,2.000000000000000000e+00,4.156494140625000000e-01,3.469848632812500000e-01,-8.261108398437500000e-01,1.563110351562500000e-01
1.000000000000000000e+01,4.000000000000000000e+00,-1.000000000000000000e+00,5.000000000000000000e+00,1.300000000000000000e+01,4.000000000000000000e+00,4.000000000000000000e+00,-5.000000000000000000e+00,4.156494140625000000e-01,3.469848632812500000e-01,-8.261108398437500000e-01,1.563110351562500000e-01
9.000000000000000000e+00,2.000000000000000000e+00,-9.000000000000000000e+00,1.300000000000000000e+01,2.000000000000000000e+01,4.000000000000000000e+00,-2.000000000000000000e+00,1.000000000000000000e+00,4.151611328125000000e-01,3.471069335937500000e-01,-8.263549804687500000e-01,1.559448242187500000e-01
-1.000000000000000000e+00,1.000000000000000000e+00,9.000000000000000000e+00,1.000000000000000000e+00,-1.100000000000000000e+01,-1.100000000000000000e+01,-2.300000000000000000e+01,3.000000000000000000e+00,4.151611328125000000e-01,3.471069335937500000e-01,-8.263549804687500000e-01,1.559448242187500000e-01
-1.000000000000000000e+00,-7.000000000000000000e+00,7.000000000000000000e+00,-2.000000000000000000e+00,-4.000000000000000000e+00,9.000000000000000000e+00,1.400000000000000000e+01,-3.000000000000000000e+00,4.151611328125000000e-01,3.471069335937500000e-01,-8.263549804687500000e-01,1.559448242187500000e-01
3.000000000000000000e+00,-6.000000000000000000e+00,-2.600000000000000000e+01,-3.000000000000000000e+00,-2.000000000000000000e+00,-8.000000000000000000e+00,-1.300000000000000000e+01,-2.000000000000000000e+00,4.151611328125000000e-01,3.471069335937500000e-01,-8.263549804687500000e-01,1.559448242187500000e-01
-4.000000000000000000e+00,2.000000000000000000e+00,-6.000000000000000000e+00,-2.500000000000000000e+01,-1.500000000000000000e+01,-5.000000000000000000e+00,1.600000000000000000e+01,-1.000000000000000000e+00,4.144897460937500000e-01,3.475341796875000000e-01,-8.264770507812500000e-01,1.558227539062500000e-01
-3.000000000000000000e+00,2.000000000000000000e+00,6.000000000000000000e+00,1.700000000000000000e+01,1.300000000000000000e+01,7.000000000000000000e+00,-4.000000000000000000e+00,-4.000000000000000000e+00,4.144897460937500000e-01,3.475341796875000000e-01,-8.264770507812500000e-01,1.558227539062500000e-01
-1.100000000000000000e+01,-7.000000000000000000e+00,1.800000000000000000e+01,-1.300000000000000000e+01,-5.000000000000000000e+00,5.000000000000000000e+00,1.000000000000000000e+01,0.000000000000000000e+00,4.144897460937500000e-01,3.475341796875000000e-01,-8.264770507812500000e-01,1.558227539062500000e-01
4.000000000000000000e+00,1.000000000000000000e+00,0.000000000000000000e+00,2.200000000000000000e+01,1.700000000000000000e+01,2.000000000000000000e+00,2.000000000000000000e+00,0.000000000000000000e+00,4.144897460937500000e-01,3.475341796875000000e-01,-8.264770507812500000e-01,1.558227539062500000e-01
1.200000000000000000e+01,1.100000000000000000e+01,1.300000000000000000e+01,3.000000000000000000e+00,-5.000000000000000000e+00,-6.000000000000000000e+00,-1.900000000000000000e+01,1.000000000000000000e+00,4.140625000000000000e-01,3.482666015625000000e-01,-8.264160156250000000e-01,1.558837890625000000e-01
-1.400000000000000000e+01,-9.000000000000000000e+00,-2.100000000000000000e+01,-9.000000000000000000e+00,-1.500000000000000000e+01,-4.000000000000000000e+00,6.000000000000000000e+00,-2.000000000000000000e+00,4.140625000000000000e-01,3.482666015625000000e-01,-8.264160156250000000e-01,1.558837890625000000e-01
1.000000000000000000e+00,2.000000000000000000e+00,-1.200000000000000000e+01,-3.000000000000000000e+00,1.000000000000000000e+01,6.000000000000000000e+00,0.000000000000000000e+00,0.000000000000000000e+00,4.140625000000000000e-01,3.482666015625000000e-01,-8.264160156250000000e-01,1.558837890625000000e-01
-8.000000000000000000e+00,-7.000000000000000000e+00,7.000000000000000000e+00,-3.000000000000000000e+00,-6.000000000000000000e+00,-1.000000000000000000e+00,3.200000000000000000e+01,-1.000000000000000000e+00,4.140625000000000000e-01,3.482666015625000000e-01,-8.264160156250000000e-01,1.558837890625000000e-01
5.000000000000000000e+00,1.000000000000000000e+01,-1.000000000000000000e+00,2.000000000000000000e+00,-8.000000000000000000e+00,-4.000000000000000000e+00,-1.600000000000000000e+01,-2.000000000000000000e+00,4.141235351562500000e-01,3.483886718750000000e-01,-8.263549804687500000e-01,1.556396484375000000e-01
4.000000000000000000e+00,0.000000000000000000e+00,1.700000000000000000e+01,-3.000000000000000000e+00,-7.000000000000000000e+00,-3.000000000000000000e+00,1.200000000000000000e+01,-1.000000000000000000e+00,4.141235351562500000e-01,3.483886718750000000e-01,-8.263549804687500000e-01,1.556396484375000000e-01
-1.000000000000000000e+00,3.000000000000000000e+00,-5.000000000000000000e+00,5.000000000000000000e+00,1.100000000000000000e+01,0.000000000000000000e+00,-4.000000000000000000e+00,0.000000000000000000e+00,4.141235351562500000e-01,3.483886718750000000e-01,-8.263549804687500000e-01,1.556396484375000000e-01
-1.200000000000000000e+01,-6.000000000000000000e+00,-1.000000000000000000e+00,-1.000000000000000000e+01,8.000000000000000000e+00,1.000000000000000000e+00,-1.100000000000000000e+01,-4.000000000000000000e+00,4.141235351562500000e-01,3.483886718750000000e-01,-8.263549804687500000e-01,1.556396484375000000e-01
-9.000000000000000000e+00,-1.300000000000000000e+01,-1.300000000000000000e+01,6.000000000000000000e+00,-1.000000000000000000e+00,-2.000000000000000000e+00,1.800000000000000000e+01,-1.000000000000000000e+00,4.144897460937500000e-01,3.481445312500000000e-01,-8.263549804687500000e-01,1.554565429687500000e-01
5.000000000000000000e+00,3.000000000000000000e+00,-8.000000000000000000e+00,-1.600000000000000000e+01,-1.200000000000000000e+01,-7.000000000000000000e+00,-2.000000000000000000e+01,-2.000000000000000000e+00,4.144897460937500000e-01,3.481445312500000000e-01,-8.263549804687500000e-01,1.554565429687500000e-01
-1.000000000000000000e+00,2.000000000000000000e+00,-5.000000000000000000e+00,1.800000000000000000e+01,-2.000000000000000000e+00,-4.000000000000000000e+00,5.000000000000000000e+00,-4.000000000000000000e+00,4.144897460937500000e-01,3.481445312500000000e-01,-8.263549804687500000e-01,1.554565429687500000e-01
1.200000000000000000e+01,3.000000000000000000e+00,1.300000000000000000e+01,4.000000000000000000e+00,4.000000000000000000e+00,-1.100000000000000000e+01,-4.300000000000000000e+01,0.000000000000000000e+00,4.144897460937500000e-01,3.481445312500000000e-01,-8.263549804687500000e-01,1.554565429687500000e-01
-1.300000000000000000e+01,-7.000000000000000000e+00,-6.000000000000000000e+00,-5.000000000000000000e+00,8.000000000000000000e+00,2.100000000000000000e+01,4.900000000000000000e+01,3.000000000000000000e+00,4.150390625000000000e-01,3.479003906250000000e-01,-8.261108398437500000e-01,1.554565429687500000e-01
1.000000000000000000e+00,1.000000000000000000e+00,1.100000000000000000e+01,-5.000000000000000000e+00,6.000000000000000000e+00,1.000000000000000000e+00,-5.000000000000000000e+00,0.000000000000000000e+00,4.150390625000000000e-01,3.479003906250000000e-01,-8.261108398437500000e-01,1.554565429687500000e-01
1.000000000000000000e+00,1.000000000000000000e+01,-7.000000000000000000e+00,1.200000000000000000e+01,0.000000000000000000e+00,1.000000000000000000e+00,-1.200000000000000000e+01,-2.000000000000000000e+00,4.150390625000000000e-01,3.479003906250000000e-01,-8.261108398437500000e-01,1.554565429687500000e-01
-5.000000000000000000e+00,-1.000000000000000000e+00,-1.000000000000000000e+00,-9.000000000000000000e+00,-1.600000000000000000e+01,-1.000000000000000000e+00,-4.000000000000000000e+00,-2.000000000000000000e+00,4.150390625000000000e-01,3.479003906250000000e-01,-8.261108398437500000e-01,1.554565429687500000e-01
5.000000000000000000e+00,-2.000000000000000000e+00,0.000000000000000000e+00,-5.000000000000000000e+00,-3.000000000000000000e+00,-8.000000000000000000e+00,-1.800000000000000000e+01,0.000000000000000000e+00,4.153442382812500000e-01,3.478393554687500000e-01,-8.259277343750000000e-01,1.558227539062500000e-01
-2.000000000000000000e+00,-8.000000000000000000e+00,8.000000000000000000e+00,-1.000000000000000000e+00,1.000000000000000000e+00,3.000000000000000000e+00,7.000000000000000000e+00,-1.000000000000000000e+00,4.153442382812500000e-01,3.478393554687500000e-01,-8.259277343750000000e-01,1.558227539062500000e-01
0.000000000000000000e+00,-1.000000000000000000e+00,1.000000000000000000e+00,3.000000000000000000e+00,8.000000000000000000e+00,-3.000000000000000000e+00,-2.000000000000000000e+00,0.000000000000000000e+00,4.153442382812500000e-01,3.478393554687500000e-01,-8.259277343750000000e-01,1.558227539062500000e-01
-7.000000000000000000e+00,-7.000000000000000000e+00,-1.000000000000000000e+01,1.000000000000000000e+00,-7.000000000000000000e+00,0.000000000000000000e+00,0.000000000000000000e+00,-3.000000000000000000e+00,4.153442382812500000e-01,3.478393554687500000e-01,-8.259277343750000000e-01,1.558227539062500000e-01
1.000000000000000000e+00,-2.000000000000000000e+00,3.000000000000000000e+00,-3.000000000000000000e+00,-3.000000000000000000e+00,0.000000000000000000e+00,-1.000000000000000000e+00,-1.000000000000000000e+00,4.155883789062500000e-01,3.480224609375000000e-01,-8.256225585937500000e-01,1.564331054687500000e-01
4.000000000000000000e+00,8.000000000000000000e+00,-1.000000000000000000e+01,-1.000000000000000000e+00,-1.000000000000000000e+00,-2.000000000000000000e+00,1.000000000000000000e+00,-1.000000000000000000e+01,4.155883789062500000e-01,3.480224609375000000e-01,-8.256225585937500000e-01,1.564331054687500000e-01
5.000000000000000000e+00,-3.000000000000000000e+00,-2.200000000000000000e+01,-1.400000000000000000e+01,-6.000000000000000000e+00,-6.000000000000000000e+00,0.000000000000000000e+00,6.000000000000000000e+00,4.155883789062500000e-01,3.480224609375000000e-01,-8.256225585937500000e-01,1.564331054687500000e-01
-1.300000000000000000e+01,4.000000000000000000e+00,1.300000000000000000e+01,1.000000000000000000e+01,0.000000000000000000e+00,-2.000000000000000000e+00,4.000000000000000000e+00,-3.000000000000000000e+00,4.155883789062500000e-01,3.480224609375000000e-01,-8.256225585937500000e-01,1.564331054687500000e-01
-5.000000000000000000e+00,-1.200000000000000000e+01,-9.000000000000000000e+00,-2.500000000000000000e+01,-9.000000000000000000e+00,2.000000000000000000e+00,-3.000000000000000000e+00,-5.000000000000000000e+00,4.161987304687500000e-01,3.477172851562500000e-01,-8.253784179687500000e-01,1.569824218750000000e-01
4.000000000000000000e+00,1.000000000000000000e+00,1.300000000000000000e+01,2.200000000000000000e+01,1.000000000000000000e+00,-2.000000000000000000e+00,-2.300000000000000000e+01,-1.000000000000000000e+00,4.161987304687500000e-01,3.477172851562500000e-01,-8.253784179687500000e-01,1.569824218750000000e-01
4.000000000000000000e+00,4.000000000000000000e+00,9.000000000000000000e+00,7.000000000000000000e+00,2.500000000000000000e+01,8.000000000000000000e+00,-1.600000000000000000e+01,2.000000000000000000e+00,4.161987304687500000e-01,3.477172851562500000e-01,-8.253784179687500000e-01,1.569824218750000000e-01
-8.000000000000000000e+00,-3.000000000000000000e+00,-1.600000000000000000e+01,-4.000000000000000000e+00,-1.200000000000000000e+01,-2.000000000000000000e+00,-1.600000000000000000e+01,0.000000000000000000e+00,4.161987304687500000e-01,3.477172851562500000e-01,-8.253784179687500000e-01,1.569824218750000000e-01
-3.000000000000000000e+00,-3.000000000000000000e+00,-3.100000000000000000e+01,0.000000000000000000e+00,2.000000000000000000e+00,-1.000000000000000000e+01,-7.000000000000000000e+00,0.000000000000000000e+00,4.169921875000000000e-01,3.472290039062500000e-01,-8.250732421875000000e-01,1.574096679687500000e-01
-3.000000000000000000e+00,-6.000000000000000000e+00,5.000000000000000000e+00,-1.300000000000000000e+01,-2.200000000000000000e+01,-7.000000000000000000e+00,5.000000000000000000e+00,1.000000000000000000e+00,4.169921875000000000e-01,3.472290039062500000e-01,-8.250732421875000000e-01,1.574096679687500000e-01
0.000000000000000000e+00,-1.000000000000000000e+01,-2.800000000000000000e+01,-1.000000000000000000e+01,-2.000000000000000000e+00,0.000000000000000000e+00,-6.000000000000000000e+00,-5.000000000000000000e+00,4.169921875000000000e-01,3.472290039062500000e-01,-8.250732421875000000e-01,1.574096679687500000e-01
5.000000000000000000e+00,5.000000000000000000e+00,3.600000000000000000e+01,-7.000000000000000000e+00,-7.000000000000000000e+00,3.000000000000000000e+00,1.200000000000000000e+01,0.000000000000000000e+00,4.169921875000000000e-01,3.472290039062500000e-01,-8.250732421875000000e-01,1.574096679687500000e-01
9.000000000000000000e+00,1.800000000000000000e+01,8.000000000000000000e+00,3.500000000000000000e+01,3.400000000000000000e+01,4.000000000000000000e+00,-9.000000000000000000e+00,2.000000000000000000e+00,4.174804687500000000e-01,3.467407226562500000e-01,-8.249511718750000000e-01,1.577148437500000000e-01
-5.000000000000000000e+00,3.000000000000000000e+00,-1.000000000000000000e+01,-5.000000000000000000e+00,3.000000000000000000e+00,1.000000000000000000e+00,5.000000000000000000e+00,3.000000000000000000e+00,4.174804687500000000e-01,3.467407226562500000e-01,-8.249511718750000000e-01,1.577148437500000000e-01
-5.000000000000000000e+00,-1.800000000000000000e+01,5.000000000000000000e+00,-2.000000000000000000e+00,-9.000000000000000000e+00,-2.000000000000000000e+00,2.000000000000000000e+00,-1.000000000000000000e+00,4.174804687500000000e-01,3.467407226562500000e-01,-8.249511718750000000e-01,1.577148437500000000e-01
-2.000000000000000000e+00,1.000000000000000000e+00,-9.000000000000000000e+00,-1.200000000000000000e+01,-1.100000000000000000e+01,-1.000000000000000000e+00,1.200000000000000000e+01,-2.000000000000000000e+00,4.174804687500000000e-01,3.467407226562500000e-01,-8.249511718750000000e-01,1.577148437500000000e-01
-3.000000000000000000e+00,-1.100000000000000000e+01,-1.100000000000000000e+01,-2.000000000000000000e+01,-7.000000000000000000e+00,-5.000000000000000000e+00,-7.000000000000000000e+00,-4.000000000000000000e+00,4.176635742187500000e-01,3.466186523437500000e-01,-8.248901367187500000e-01,1.579589843750000000e-01
7.000000000000000000e+00,8.000000000000000000e+00,3.000000000000000000e+00,1.300000000000000000e+01,1.500000000000000000e+01,1.400000000000000000e+01,3.100000000000000000e+01,2.000000000000000000e+00,4.176635742187500000e-01,3.466186523437500000e-01,-8.248901367187500000e-01,1.579589843750000000e-01
-2.000000000000000000e+00,1.100000000000000000e+01,8.000000000000000000e+00,-8.000000000000000000e+00,-6.000000000000000000e+00,-5.000000000000000000e+00,-6.000000000000000000e+00,-8.000000000000000000e+00,4.176635742187500000e-01,3.466186523437500000e-01,-8.248901367187500000e-01,1.579589843750000000e-01
5.000000000000000000e+00,-1.000000000000000000e+00,6.000000000000000000e+00,1.100000000000000000e+01,3.000000000000000000e+00,-7.000000000000000000e+00,5.000000000000000000e+00,2.000000000000000000e+00,4.176635742187500000e-01,3.466186523437500000e-01,-8.248901367187500000e-01,1.579589843750000000e-01
-5.000000000000000000e+00,4.000000000000000000e+00,5.000000000000000000e+00,-8.000000000000000000e+00,-1.600000000000000000e+01,3.000000000000000000e+00,0.000000000000000000e+00,-1.000000000000000000e+00,4.179687500000000000e-01,3.465576171875000000e-01,-8.247070312500000000e-01,1.582641601562500000e-01
2.000000000000000000e+00,-5.000000000000000000e+00,-6.000000000000000000e+00,1.000000000000000000e+01,1.000000000000000000e+01,1.000000000000000000e+00,6.000000000000000000e+00,4.000000000000000000e+00,4.179687500000000000e-01,3.465576171875000000e-01,-8.247070312500000000e-01,1.582641601562500000e-01
-5.000000000000000000e+00,3.000000000000000000e+00,-8.000000000000000000e+00,-1.200000000000000000e+01,-1.400000000000000000e+01,-4.000000000000000000e+00,1.000000000000000000e+01,-1.000000000000000000e+00,4.179687500000000000e-01,3.465576171875000000e-01,-8.247070312500000000e-01,1.582641601562500000e-01
3.000000000000000000e+00,-1.300000000000000000e+01,-1.600000000000000000e+01,-2.200000000000000000e+01,3.000000000000000000e+00,5.000000000000000000e+00,-2.000000000000000000e+00,-3.000000000000000000e+00,4.179687500000000000e-01,3.465576171875000000e-01,-8.247070312500000000e-01,1.582641601562500000e-01
-2.100000000000000000e+01,-7.000000000000000000e+00,-8.000000000000000000e+00,1.400000000000000000e+01,4.000000000000000000e+00,-3.000000000000000000e+00,-8.000000000000000000e+00,-2.000000000000000000e+00,4.182128906250000000e-01,3.467407226562500000e-01,-8.244628906250000000e-01,1.585693359375000000e-01
3.000000000000000000e+00,1.000000000000000000e+00,1.200000000000000000e+01,-8.000000000000000000e+00,3.000000000000000000e+00,-1.000000000000000000e+00,-2.000000000000000000e+00,2.000000000000000000e+00,4.182128906250000000e-01,3.467407226562500000e-01,-8.244628906250000000e-01,1.585693359375000000e-01
0.000000000000000000e+00,6.000000000000000000e+00,2.500000000000000000e+01,3.000000000000000000e+00,-1.000000000000000000e+00,4.000000000000000000e+00,2.800000000000000000e+01,1.000000000000000000e+00,4.182128906250000000e-01,3.467407226562500000e-01,-8.244628906250000000e-01,1.585693359375000000e-01
4.000000000000000000e+00,-1.000000000000000000e+00,-2.000000000000000000e+00,1.200000000000000000e+01,-6.000000000000000000e+00,-7.000000000000000000e+00,-1.000000000000000000e+00,-1.000000000000000000e+00,4.182128906250000000e-01,3.467407226562500000e-01,-8.244628906250000000e-01,1.585693359375000000e-01
9.000000000000000000e+00,1.000000000000000000e+00,-1.300000000000000000e+01,-4.000000000000000000e+00,0.000000000000000000e+00,0.000000000000000000e+00,1.000000000000000000e+00,2.000000000000000000e+00,4.185180664062500000e-01,3.468627929687500000e-01,-8.242187500000000000e-01,1.587524414062500000e-01
-5.000000000000000000e+00,-8.000000000000000000e+00,-3.000000000000000000e+00,-1.500000000000000000e+01,-6.000000000000000000e+00,4.000000000000000000e+00,-2.000000000000000000e+00,0.000000000000000000e+00,4.185180664062500000e-01,3.468627929687500000e-01,-8.242187500000000000e-01,1.587524414062500000e-01
1.000000000000000000e+00,-3.000000000000000000e+00,-2.700000000000000000e+01,-8.000000000000000000e+00,-6.000000000000000000e+00,0.000000000000000000e+00,-1.000000000000000000e+00,0.000000000000000000e+00,4.185180664062500000e-01,3.468627929687500000e-01,-8.242187500000000000e-01,1.587524414062500000e-01
3.000000000000000000e+00,8.000000000000000000e+00,-6.000000000000000000e+00,1.300000000000000000e+01,1.000000000000000000e+01,6.000000000000000000e+00,6.000000000000000000e+00,2.000000000000000000e+00,4.185180664062500000e-01,3.468627929687500000e-01,-8.242187500000000000e-01,1.587524414062500000e-01
5.000000000000000000e+00,-2.000000000000000000e+00,1.500000000000000000e+01,-6.000000000000000000e+00,-7.000000000000000000e+00,-3.000000000000000000e+00,0.000000000000000000e+00,-1.000000000000000000e+00,4.190063476562500000e-01,3.464965820312500000e-01,-8.240966796875000000e-01,1.587524414062500000e-01
-1.100000000000000000e+01,-2.000000000000000000e+00,-1.000000000000000000e+01,-1.000000000000000000e+01,-1.600000000000000000e+01,-7.000000000000000000e+00,5.000000000000000000e+00,-3.000000000000000000e+00,4.190063476562500000e-01,3.464965820312500000e-01,-8.240966796875000000e-01,1.587524414062500000e-01
2.000000000000000000e+00,0.000000000000000000e+00,2.000000000000000000e+01,4.000000000000000000e+00,3.000000000000000000e+00,0.000000000000000000e+00,-5.000000000000000000e+00,-6.000000000000000000e+00,4.190063476562500000e-01,3.464965820312500000e-01,-8.240966796875000000e-01,1.587524414062500000e-01
-1.200000000000000000e+01,-2.000000000000000000e+00,6.000000000000000000e+00,1.100000000000000000e+01,3.000000000000000000e+00,-4.000000000000000000e+00,-9.000000000000000000e+00,3.000000000000000000e+00,4.190063476562500000e-01,3.464965820312500000e-01,-8.240966796875000000e-01,1.587524414062500000e-01
-3.000000000000000000e+00,-1.600000000000000000e+01,-8.000000000000000000e+00,-1.600000000000000000e+01,4.000000000000000000e+00,5.000000000000000000e+00,-5.000000000000000000e+00,-3.000000000000000000e+00,4.194946289062500000e-01,3.458862304687500000e-01,-8.240966796875000000e-01,1.587524414062500000e-01
8.000000000000000000e+00,1.200000000000000000e+01,8.000000000000000000e+00,8.000000000000000000e+00,-2.000000000000000000e+00,-4.000000000000000000e+00,-8.000000000000000000e+00,1.000000000000000000e+00,4.194946289062500000e-01,3.458862304687500000e-01,-8.240966796875000000e-01,1.587524414062500000e-01
-1.000000000000000000e+00,0.000000000000000000e+00,9.000000000000000000e+00,-5.000000000000000000e+00,-8.000000000000000000e+00,-5.000000000000000000e+00,-1.000000000000000000e+00,2.000000000000000000e+00,4.194946289062500000e-01,3.458862304687500000e-01,-8.240966796875000000e-01,1.587524414062500000e-01
6.000000000000000000e+00,3.000000000000000000e+00,-3.500000000000000000e+01,3.700000000000000000e+01,-1.000000000000000000e+01,0.000000000000000000e+00,4.000000000000000000e+00,-7.000000000000000000e+00,4.194946289062500000e-01,3.458862304687500000e-01,-8.240966796875000000e-01,1.587524414062500000e-01
-3.000000000000000000e+00,-1.000000000000000000e+00,7.800000000000000000e+01,-1.900000000000000000e+01,1.400000000000000000e+01,-1.000000000000000000e+00,8.000000000000000000e+00,-2.000000000000000000e+00,4.199829101562500000e-01,3.452148437500000000e-01,-8.240966796875000000e-01,1.591186523437500000e-01
-6.000000000000000000e+00,-1.700000000000000000e+01,-5.600000000000000000e+01,-1.100000000000000000e+01,1.000000000000000000e+00,-5.000000000000000000e+00,2.000000000000000000e+00,-6.000000000000000000e+00,4.199829101562500000e-01,3.452148437500000000e-01,-8.240966796875000000e-01,1.591186523437500000e-01
-1.300000000000000000e+01,-4.000000000000000000e+00,1.800000000000000000e+01,1.500000000000000000e+01,1.100000000000000000e+01,2.000000000000000000e+00,2.000000000000000000e+00,-1.000000000000000000e+00,4.199829101562500000e-01,3.452148437500000000e-01,-8.240966796875000000e-01,1.591186523437500000e-01
9.000000000000000000e+00,0.000000000000000000e+00,6.000000000000000000e+00,0.000000000000000000e+00,-1.000000000000000000e+00,2.000000000000000000e+00,1.000000000000000000e+01,2.000000000000000000e+00,4.199829101562500000e-01,3.452148437500000000e-01,-8.240966796875000000e-01,1.591186523437500000e-01
8.000000000000000000e+00,1.200000000000000000e+01,-1.000000000000000000e+01,1.000000000000000000e+01,-1.200000000000000000e+01,-3.000000000000000000e+00,8.000000000000000000e+00,0.000000000000000000e+00,4.207153320312500000e-01,3.445434570312500000e-01,-8.239135742187500000e-01,1.594848632812500000e-01
-2.000000000000000000e+00,-4.000000000000000000e+00,9.000000000000000000e+00,-6.000000000000000000e+00,0.000000000000000000e+00,-1.000000000000000000e+00,-7.000000000000000000e+00,-3.000000000000000000e+00,4.207153320312500000e-01,3.445434570312500000e-01,-8.239135742187500000e-01,1.594848632812500000e-01
-4.000000000000000000e+00,4.000000000000000000e+00,1.000000000000000000e+01,-2.000000000000000000e+00,8.000000000000000000e+00,-2.000000000000000000e+00,-1.300000000000000000e+01,2.000000000000000000e+00,4.215087890625000000e-01,3.438720703125000000e-01,-8.237915039062500000e-01,1.595458984375000000e-01
6.000000000000000000e+00,1.000000000000000000e+00,-1.000000000000000000e+00,-1.800000000000000000e+01,-1.000000000000000000e+01,-1.000000000000000000e+00,5.000000000000000000e+00,0.000000000000000000e+00,4.215087890625000000e-01,3.438720703125000000e-01,-8.237915039062500000e-01,1.595458984375000000e-01
9.000000000000000000e+00,0.000000000000000000e+00,-2.000000000000000000e+01,1.000000000000000000e+00,-8.000000000000000000e+00,-6.000000000000000000e+00,-9.000000000000000000e+00,0.000000000000000000e+00,4.215087890625000000e-01,3.438720703125000000e-01,-8.237915039062500000e-01,1.595458984375000000e-01
-2.300000000000000000e+01,-5.000000000000000000e+00,8.000000000000000000e+00,-7.000000000000000000e+00,6.000000000000000000e+00,-3.000000000000000000e+00,-3.000000000000000000e+00,-2.000000000000000000e+00,4.215087890625000000e-01,3.438720703125000000e-01,-8.237915039062500000e-01,1.595458984375000000e-01
2.000000000000000000e+00,-1.000000000000000000e+01,-9.000000000000000000e+00,9.000000000000000000e+00,0.000000000000000000e+00,-3.000000000000000000e+00,-1.600000000000000000e+01,-1.000000000000000000e+00,4.225463867187500000e-01,3.429565429687500000e-01,-8.236694335937500000e-01,1.593627929687500000e-01
-6.000000000000000000e+00,-1.000000000000000000e+00,5.000000000000000000e+00,-9.000000000000000000e+00,8.000000000000000000e+00,4.000000000000000000e+00,7.000000000000000000e+00,1.000000000000000000e+00,4.225463867187500000e-01,3.429565429687500000e-01,-8.236694335937500000e-01,1.593627929687500000e-01
1.600000000000000000e+01,8.000000000000000000e+00,-5.000000000000000000e+00,-4.000000000000000000e+00,-9.000000000000000000e+00,-2.000000000000000000e+00,-4.000000000000000000e+00,-2.000000000000000000e+00,4.225463867187500000e-01,3.429565429687500000e-01,-8.236694335937500000e-01,1.593627929687500000e-01
-9.000000000000000000e+00,0.000000000000000000e+00,-5.000000000000000000e+00,2.800000000000000000e+01,1.100000000000000000e+01,2.000000000000000000e+00,-5.000000000000000000e+00,2.000000000000000000e+00,4.225463867187500000e-01,3.429565429687500000e-01,-8.236694335937500000e-01,1.593627929687500000e-01
-4.000000000000000000e+00,-2.000000000000000000e+00,2.000000000000000000e+00,-1.700000000000000000e+01,-3.000000000000000000e+00,3.000000000000000000e+00,0.000000000000000000e+00,-4.000000000000000000e+00,4.235229492187500000e-01,3.419799804687500000e-01,-8.236083984375000000e-01,1.591186523437500000e-01
-1.000000000000000000e+00,0.000000000000000000e+00,7.000000000000000000e+00,-2.000000000000000000e+01,-1.100000000000000000e+01,-6.000000000000000000e+00,-2.000000000000000000e+00,-3.000000000000000000e+00,4.235229492187500000e-01,3.419799804687500000e-01,-8.236083984375000000e-01,1.591186523437500000e-01
-4.000000000000000000e+00,0.000000000000000000e+00,-4.200000000000000000e+01,2.200000000000000000e+01,1.500000000000000000e+01,-1.000000000000000000e+00,-8.000000000000000000e+00,-1.000000000000000000e+00,4.235229492187500000e-01,3.419799804687500000e-01,-8.236083984375000000e-01,1.591186523437500000e-01
5.000000000000000000e+00,-2.000000000000000000e+00,1.500000000000000000e+01,-1.000000000000000000e+00,-1.300000000000000000e+01,-1.000000000000000000e+01,-4.400000000000000000e+01,-1.000000000000000000e+00,4.235229492187500000e-01,3.419799804687500000e-01,-8.236083984375000000e-01,1.591186523437500000e-01
4.000000000000000000e+00,6.000000000000000000e+00,-5.000000000000000000e+00,-1.200000000000000000e+01,1.300000000000000000e+01,1.100000000000000000e+01,7.000000000000000000e+00,3.000000000000000000e+00,4.241943359375000000e-01,3.413085937500000000e-01,-8.236083984375000000e-01,1.589355468750000000e-01
-2.000000000000000000e+00,-1.500000000000000000e+01,-1.800000000000000000e+01,-8.000000000000000000e+00,-1.000000000000000000e+00,1.000000000000000000e+00,1.200000000000000000e+01,-1.000000000000000000e+00,4.241943359375000000e-01,3.413085937500000000e-01,-8.236083984375000000e-01,1.589355468750000000e-01
-4.000000000000000000e+00,-3.000000000000000000e+00,2.000000000000000000e+00,0.000000000000000000e+00,-1.400000000000000000e+01,-4.000000000000000000e+00,0.000000000000000000e+00,-4.000000000000000000e+00,4.241943359375000000e-01,3.413085937500000000e-01,-8.236083984375000000e-01,1.589355468750000000e-01
-1.000000000000000000e+00,-2.000000000000000000e+00,1.200000000000000000e+01,1.100000000000000000e+01,4.000000000000000000e+00,1.000000000000000000e+00,1.300000000000000000e+01,0.000000000000000000e+00,4.241943359375000000e-01,3.413085937500000000e-01,-8.236083984375000000e-01,1.589355468750000000e-01
2.000000000000000000e+00,3.000000000000000000e+00,-4.000000000000000000e+00,1.600000000000000000e+01,5.000000000000000000e+00,-5.000000000000000000e+00,-3.700000000000000000e+01,-2.000000000000000000e+00,4.245605468750000000e-01,3.406372070312500000e-01,-8.237915039062500000e-01,1.584472656250000000e-01
-1.000000000000000000e+00,9.000000000000000000e+00,3.000000000000000000e+00,-1.900000000000000000e+01,-5.000000000000000000e+00,-8.000000000000000000e+00,-1.000000000000000000e+00,3.000000000000000000e+00,4.245605468750000000e-01,3.406372070312500000e-01,-8.237915039062500000e-01,1.584472656250000000e-01
-1.200000000000000000e+01,1.000000000000000000e+00,3.000000000000000000e+00,1.200000000000000000e+01,-8.000000000000000000e+00,6.000000000000000000e+00,2.000000000000000000e+01,-4.000000000000000000e+00,4.245605468750000000e-01,3.406372070312500000e-01,-8.237915039062500000e-01,1.584472656250000000e-01
2.000000000000000000e+00,-9.000000000000000000e+00,-1.100000000000000000e+01,-5.000000000000000000e+00,2.300000000000000000e+01,5.000000000000000000e+00,1.600000000000000000e+01,6.000000000000000000e+00,4.245605468750000000e-01,3.406372070312500000e-01,-8.237915039062500000e-01,1.584472656250000000e-01
-4.000000000000000000e+00,-1.000000000000000000e+01,-3.100000000000000000e+01,-3.000000000000000000e+00,-1.200000000000000000e+01,-7.000000000000000000e+00,2.000000000000000000e+00,-1.000000000000000000e+00,4.248046875000000000e-01,3.395996093750000000e-01,-8.242187500000000000e-01,1.577148437500000000e-01
1.000000000000000000e+00,2.000000000000000000e+00,1.500000000000000000e+01,0.000000000000000000e+00,0.000000000000000000e+00,1.000000000000000000e+00,-2.000000000000000000e+00,-2.000000000000000000e+00,4.248046875000000000e-01,3.395996093750000000e-01,-8.242187500000000000e-01,1.577148437500000000e-01
4.000000000000000000e+00,1.000000000000000000e+00,-9.000000000000000000e+00,8.000000000000000000e+00,-3.000000000000000000e+00,-1.100000000000000000e+01,-3.600000000000000000e+01,0.000000000000000000e+00,4.248046875000000000e-01,3.395996093750000000e-01,-8.242187500000000000e-01,1.577148437500000000e-01
-5.000000000000000000e+00,8.000000000000000000e+00,3.700000000000000000e+01,-7.000000000000000000e+00,-1.000000000000000000e+01,1.200000000000000000e+01,5.200000000000000000e+01,-1.000000000000000000e+00,4.248046875000000000e-01,3.395996093750000000e-01,-8.242187500000000000e-01,1.577148437500000000e-01
9.000000000000000000e+00,6.000000000000000000e+00,-1.800000000000000000e+01,7.000000000000000000e+00,2.000000000000000000e+00,3.000000000000000000e+00,-1.000000000000000000e+00,1.000000000000000000e+00,4.248657226562500000e-01,3.386230468750000000e-01,-8.247070312500000000e-01,1.571655273437500000e-01
-5.000000000000000000e+00,-9.000000000000000000e+00,4.000000000000000000e+00,5.000000000000000000e+00,1.000000000000000000e+01,-5.000000000000000000e+00,-1.300000000000000000e+01,-1.000000000000000000e+00,4.248657226562500000e-01,3.386230468750000000e-01,-8.247070312500000000e-01,1.571655273437500000e-01
-2.000000000000000000e+00,8.000000000000000000e+00,1.300000000000000000e+01,-1.200000000000000000e+01,-6.000000000000000000e+00,-2.000000000000000000e+00,4.000000000000000000e+00,0.000000000000000000e+00,4.248657226562500000e-01,3.386230468750000000e-01,-8.247070312500000000e-01,1.571655273437500000e-01
7.000000000000000000e+00,7.000000000000000000e+00,4.000000000000000000e+00,2.800000000000000000e+01,-1.000000000000000000e+00,-4.000000000000000000e+00,-1.600000000000000000e+01,-4.000000000000000000e+00,4.248657226562500000e-01,3.386230468750000000e-01,-8.247070312500000000e-01,1.571655273437500000e-01
0.000000000000000000e+00,-1.000000000000000000e+00,-1.000000000000000000e+00,-2.900000000000000000e+01,-3.000000000000000000e+00,-2.000000000000000000e+00,2.000000000000000000e+00,3.000000000000000000e+00,4.249267578125000000e-01,3.378295898437500000e-01,-8.250732421875000000e-01,1.567382812500000000e-01
0.000000000000000000e+00,-4.000000000000000000e+00,-1.000000000000000000e+00,1.000000000000000000e+01,-1.300000000000000000e+01,-1.000000000000000000e+00,-2.800000000000000000e+01,-6.000000000000000000e+00,4.249267578125000000e-01,3.378295898437500000e-01,-8.250732421875000000e-01,1.567382812500000000e-01
-3.000000000000000000e+00,-3.000000000000000000e+00,4.000000000000000000e+00,1.000000000000000000e+00,-1.000000000000000000e+00,3.000000000000000000e+00,1.700000000000000000e+01,1.000000000000000000e+00,4.249267578125000000e-01,3.378295898437500000e-01,-8.250732421875000000e-01,1.567382812500000000e-01
6.000000000000000000e+00,1.000000000000000000e+00,-1.800000000000000000e+01,-6.000000000000000000e+00,5.000000000000000000e+00,-3.000000000000000000e+00,-1.500000000000000000e+01,-4.000000000000000000e+00,4.249267578125000000e-01,3.378295898437500000e-01,-8.250732421875000000e-01,1.567382812500000000e-01
-6.000000000000000000e+00,-7.000000000000000000e+00,1.200000000000000000e+01,6.000000000000000000e+00,9.000000000000000000e+00,4.000000000000000000e+00,2.100000000000000000e+01,-1.000000000000000000e+00,4.249877929687500000e-01,3.366088867187500000e-01,-8.256225585937500000e-01,1.564331054687500000e-01
0.000000000000000000e+00,1.000000000000000000e+00,-3.000000000000000000e+00,-4.000000000000000000e+00,1.000000000000000000e+00,3.000000000000000000e+00,-5.000000000000000000e+00,-1.000000000000000000e+00,4.249877929687500000e-01,3.366088867187500000e-01,-8.256225585937500000e-01,1.564331054687500000e-01
5.000000000000000000e+00,1.000000000000000000e+00,-4.000000000000000000e+00,-3.000000000000000000e+00,-4.000000000000000000e+00,-1.200000000000000000e+01,4.000000000000000000e+00,0.000000000000000000e+00,4.249877929687500000e-01,3.366088867187500000e-01,-8.256225585937500000e-01,1.564331054687500000e-01
5.000000000000000000e+00,1.100000000000000000e+01,-5.000000000000000000e+00,-1.000000000000000000e+01,-1.500000000000000000e+01,5.000000000000000000e+00,-3.000000000000000000e+00,-3.000000000000000000e+00,4.249877929687500000e-01,3.366088867187500000e-01,-8.256225585937500000e-01,1.564331054687500000e-01
-4.000000000000000000e+00,1.000000000000000000e+01,1.900000000000000000e+01,1.100000000000000000e+01,1.000000000000000000e+00,-6.000000000000000000e+00,1.300000000000000000e+01,1.000000000000000000e+00,4.253540039062500000e-01,3.352050781250000000e-01,-8.260498046875000000e-01,1.561889648437500000e-01
-2.500000000000000000e+01,-3.100000000000000000e+01,-1.000000000000000000e+01,1.000000000000000000e+00,1.700000000000000000e+01,1.100000000000000000e+01,6.000000000000000000e+00,2.000000000000000000e+00,4.253540039062500000e-01,3.352050781250000000e-01,-8.260498046875000000e-01,1.561889648437500000e-01
-7.000000000000000000e+00,-1.300000000000000000e+01,-2.200000000000000000e+01,-1.900000000000000000e+01,-2.000000000000000000e+00,-3.000000000000000000e+00,-1.100000000000000000e+01,-4.000000000000000000e+00,4.253540039062500000e-01,3.352050781250000000e-01,-8.260498046875000000e-01,1.561889648437500000e-01
6.000000000000000000e+00,-1.000000000000000000e+00,-2.200000000000000000e+01,-9.000000000000000000e+00,-7.000000000000000000e+00,-4.000000000000000000e+00,4.000000000000000000e+00,-2.000000000000000000e+00,4.253540039062500000e-01,3.352050781250000000e-01,-8.260498046875000000e-01,1.561889648437500000e-01
9.000000000000000000e+00,4.000000000000000000e+00,-1.400000000000000000e+01,-6.000000000000000000e+00,-1.100000000000000000e+01,-5.000000000000000000e+00,-9.000000000000000000e+00,-3.000000000000000000e+00,4.259033203125000000e-01,3.340454101562500000e-01,-8.262939453125000000e-01,1.557617187500000000e-01
5.000000000000000000e+00,1.400000000000000000e+01,1.100000000000000000e+01,5.000000000000000000e+00,2.000000000000000000e+00,1.000000000000000000e+00,1.500000000000000000e+01,0.000000000000000000e+00,4.259033203125000000e-01,3.340454101562500000e-01,-8.262939453125000000e-01,1.557617187500000000e-01
-2.000000000000000000e+00,-1.000000000000000000e+00,2.000000000000000000e+00,5.000000000000000000e+00,-2.000000000000000000e+00,-1.000000000000000000e+00,-3.000000000000000000e+00,-3.000000000000000000e+00,4.259033203125000000e-01,3.340454101562500000e-01,-8.262939453125000000e-01,1.557617187500000000e-01
4.000000000000000000e+00,-5.000000000000000000e+00,-9.000000000000000000e+00,-2.100000000000000000e+01,-1.100000000000000000e+01,-9.000000000000000000e+00,-2.200000000000000000e+01,-2.000000000000000000e+00,4.259033203125000000e-01,3.340454101562500000e-01,-8.262939453125000000e-01,1.557617187500000000e-01
-3.000000000000000000e+00,1.000000000000000000e+01,2.700000000000000000e+01,4.400000000000000000e+01,2.000000000000000000e+00,1.000000000000000000e+00,0.000000000000000000e+00,0.000000000000000000e+00,4.264526367187500000e-01,3.332519531250000000e-01,-8.264160156250000000e-01,1.553955078125000000e-01
-2.000000000000000000e+00,4.000000000000000000e+00,-7.000000000000000000e+00,-1.000000000000000000e+01,1.300000000000000000e+01,-8.000000000000000000e+00,-2.100000000000000000e+01,4.000000000000000000e+00,4.264526367187500000e-01,3.332519531250000000e-01,-8.264160156250000000e-01,1.553955078125000000e-01
-5.000000000000000000e+00,-1.500000000000000000e+01,7.000000000000000000e+00,3.000000000000000000e+00,2.000000000000000000e+00,2.500000000000000000e+01,6.300000000000000000e+01,2.000000000000000000e+00,4.264526367187500000e-01,3.332519531250000000e-01,-8.264160156250000000e-01,1.553955078125000000e-01
-2.000000000000000000e+00,-4.000000000000000000e+00,-1.700000000000000000e+01,-2.500000000000000000e+01,-1.000000000000000000e+00,-5.000000000000000000e+00,-2.000000000000000000e+00,-4.000000000000000000e+00,4.264526367187500000e-01,3.332519531250000000e-01,-8.264160156250000000e-01,1.553955078125000000e-01
-4.000000000000000000e+00,-3.000000000000000000e+00,2.000000000000000000e+00,2.000000000000000000e+00,-1.000000000000000000e+01,-7.000000000000000000e+00,-2.000000000000000000e+00,-1.000000000000000000e+00,4.268798828125000000e-01,3.330078125000000000e-01,-8.263549804687500000e-01,1.550292968750000000e-01
5.000000000000000000e+00,1.000000000000000000e+01,5.000000000000000000e+00,-1.200000000000000000e+01,-5.000000000000000000e+00,-4.000000000000000000e+00,-3.000000000000000000e+00,1.000000000000000000e+00,4.268798828125000000e-01,3.330078125000000000e-01,-8.263549804687500000e-01,1.550292968750000000e-01
-1.000000000000000000e+00,2.000000000000000000e+00,1.000000000000000000e+00,2.900000000000000000e+01,-6.000000000000000000e+00,-5.000000000000000000e+00,-2.300000000000000000e+01,0.000000000000000000e+00,4.268798828125000000e-01,3.330078125000000000e-01,-8.263549804687500000e-01,1.550292968750000000e-01
-3.000000000000000000e+00,0.000000000000000000e+00,-1.000000000000000000e+00,-2.300000000000000000e+01,1.000000000000000000e+01,-3.000000000000000000e+00,-1.000000000000000000e+00,1.000000000000000000e+00,4.268798828125000000e-01,3.330078125000000000e-01,-8.263549804687500000e-01,1.550292968750000000e-01
-2.000000000000000000e+00,-9.000000000000000000e+00,0.000000000000000000e+00,3.000000000000000000e+00,6.000000000000000000e+00,1.100000000000000000e+01,1.800000000000000000e+01,-4.000000000000000000e+00,4.271240234375000000e-01,3.333129882812500000e-01,-8.261718750000000000e-01,1.546630859375000000e-01
5.000000000000000000e+00,9.000000000000000000e+00,-5.000000000000000000e+00,1.300000000000000000e+01,-5.000000000000000000e+00,3.000000000000000000e+00,1.300000000000000000e+01,6.000000000000000000e+00,4.271240234375000000e-01,3.333129882812500000e-01,-8.261718750000000000e-01,1.546630859375000000e-01
8.000000000000000000e+00,1.200000000000000000e+01,1.600000000000000000e+01,-6.000000000000000000e+00,6.000000000000000000e+00,3.000000000000000000e+00,-1.800000000000000000e+01,-3.000000000000000000e+00,4.271240234375000000e-01,3.333129882812500000e-01,-8.261718750000000000e-01,1.546630859375000000e-01
1.200000000000000000e+01,-2.000000000000000000e+00,-2.300000000000000000e+01,1.500000000000000000e+01,-5.000000000000000000e+00,-6.000000000000000000e+00,-4.000000000000000000e+00,1.000000000000000000e+00,4.271240234375000000e-01,3.333129882812500000e-01,-8.261718750000000000e-01,1.546630859375000000e-01
-2.600000000000000000e+01,-2.300000000000000000e+01,9.000000000000000000e+00,-2.900000000000000000e+01,-1.500000000000000000e+01,-1.300000000000000000e+01,-1.600000000000000000e+01,-6.000000000000000000e+00,4.271850585937500000e-01,3.337402343750000000e-01,-8.261108398437500000e-01,1.539306640625000000e-01
-1.200000000000000000e+01,-1.200000000000000000e+01,5.000000000000000000e+00,-1.500000000000000000e+01,-1.300000000000000000e+01,2.000000000000000000e+00,2.000000000000000000e+00,-1.000000000000000000e+01,4.271850585937500000e-01,3.337402343750000000e-01,-8.261108398437500000e-01,1.539306640625000000e-01
-6.000000000000000000e+00,-1.000000000000000000e+01,-7.000000000000000000e+00,1.300000000000000000e+01,7.000000000000000000e+00,0.000000000000000000e+00,1.000000000000000000e+00,0.000000000000000000e+00,4.271850585937500000e-01,3.337402343750000000e-01,-8.261108398437500000e-01,1.539306640625000000e-01
7.000000000000000000e+00,1.200000000000000000e+01,1.900000000000000000e+01,9.000000000000000000e+00,-4.000000000000000000e+00,1.000000000000000000e+00,0.000000000000000000e+00,6.000000000000000000e+00,4.271850585937500000e-01,3.337402343750000000e-01,-8.261108398437500000e-01,1.539306640625000000e-01
1.400000000000000000e+01,6.000000000000000000e+00,-9.000000000000000000e+00,1.000000000000000000e+00,2.000000000000000000e+00,-1.000000000000000000e+00,-1.200000000000000000e+01,0.000000000000000000e+00,4.274902343750000000e-01,3.344116210937500000e-01,-8.258056640625000000e-01,1.531372070312500000e-01
0.000000000000000000e+00,3.000000000000000000e+00,-6.000000000000000000e+00,-5.000000000000000000e+00,-3.000000000000000000e+00,0.000000000000000000e+00,-1.100000000000000000e+01,-2.000000000000000000e+00,4.274902343750000000e-01,3.344116210937500000e-01,-8.258056640625000000e-01,1.531372070312500000e-01
-1.000000000000000000e+00,3.000000000000000000e+00,6.000000000000000000e+00,-1.400000000000000000e+01,-2.000000000000000000e+00,1.000000000000000000e+00,1.100000000000000000e+01,2.000000000000000000e+00,4.274902343750000000e-01,3.344116210937500000e-01,-8.258056640625000000e-01,1.531372070312500000e-01
-6.000000000000000000e+00,-7.000000000000000000e+00,-5.000000000000000000e+00,1.700000000000000000e+01,2.000000000000000000e+00,0.000000000000000000e+00,-6.000000000000000000e+00,-2.000000000000000000e+00,4.274902343750000000e-01,3.344116210937500000e-01,-8.258056640625000000e-01,1.531372070312500000e-01
-1.000000000000000000e+00,1.000000000000000000e+00,-3.000000000000000000e+00,-9.000000000000000000e+00,-4.000000000000000000e+00,2.000000000000000000e+00,7.000000000000000000e+00,0.000000000000000000e+00,4.279174804687500000e-01,3.348388671875000000e-01,-8.255004882812500000e-01,1.525878906250000000e-01
1.000000000000000000e+00,1.000000000000000000e+00,5.000000000000000000e+00,1.400000000000000000e+01,2.000000000000000000e+00,-6.000000000000000000e+00,-1.200000000000000000e+01,-5.000000000000000000e+00,4.279174804687500000e-01,3.348388671875000000e-01,-8.255004882812500000e-01,1.525878906250000000e-01
-1.000000000000000000e+00,3.000000000000000000e+00,2.000000000000000000e+00,-9.000000000000000000e+00,2.000000000000000000e+00,-4.000000000000000000e+00,-2.500000000000000000e+01,-1.000000000000000000e+00,4.279174804687500000e-01,3.348388671875000000e-01,-8.255004882812500000e-01,1.525878906250000000e-01
-7.000000000000000000e+00,-2.000000000000000000e+01,-4.300000000000000000e+01,-1.200000000000000000e+01,-5.000000000000000000e+00,3.000000000000000000e+00,1.800000000000000000e+01,-3.000000000000000000e+00,4.279174804687500000e-01,3.348388671875000000e-01,-8.255004882812500000e-01,1.525878906250000000e-01
-2.000000000000000000e+00,-1.300000000000000000e+01,5.000000000000000000e+00,-2.000000000000000000e+00,-3.000000000000000000e+00,-1.000000000000000000e+00,-9.000000000000000000e+00,-1.000000000000000000e+00,4.281616210937500000e-01,3.353271484375000000e-01,-8.251953125000000000e-01,1.525268554687500000e-01
5.000000000000000000e+00,1.100000000000000000e+01,8.000000000000000000e+00,2.700000000000000000e+01,3.000000000000000000e+00,-2.000000000000000000e+00,0.000000000000000000e+00,0.000000000000000000e+00,4.281616210937500000e-01,3.353271484375000000e-01,-8.251953125000000000e-01,1.525268554687500000e-01
1.000000000000000000e+00,-3.000000000000000000e+00,4.000000000000000000e+00,-2.900000000000000000e+01,3.000000000000000000e+00,-4.000000000000000000e+00,-8.000000000000000000e+00,0.000000000000000000e+00,4.281616210937500000e-01,3.353271484375000000e-01,-8.251953125000000000e-01,1.525268554687500000e-01
-2.000000000000000000e+00,3.000000000000000000e+00,2.100000000000000000e+01,1.000000000000000000e+01,5.000000000000000000e+00,-3.000000000000000000e+00,6.000000000000000000e+00,-2.000000000000000000e+00,4.281616210937500000e-01,3.353271484375000000e-01,-8.251953125000000000e-01,1.525268554687500000e-01
3.000000000000000000e+00,3.000000000000000000e+00,-6.000000000000000000e+00,-5.000000000000000000e+00,-1.300000000000000000e+01,-4.000000000000000000e+00,1.000000000000000000e+00,3.000000000000000000e+00,4.281005859375000000e-01,3.361206054687500000e-01,-8.248901367187500000e-01,1.528320312500000000e-01
3.000000000000000000e+00,2.000000000000000000e+00,-9.000000000000000000e+00,-1.200000000000000000e+01,0.000000000000000000e+00,-7.000000000000000000e+00,-1.000000000000000000e+01,-4.000000000000000000e+00,4.281005859375000000e-01,3.361206054687500000e-01,-8.248901367187500000e-01,1.528320312500000000e-01
2.000000000000000000e+00,-2.000000000000000000e+00,-1.100000000000000000e+01,1.800000000000000000e+01,4.000000000000000000e+00,9.000000000000000000e+00,1.100000000000000000e+01,-2.000000000000000000e+00,4.281005859375000000e-01,3.361206054687500000e-01,-8.248901367187500000e-01,1.528320312500000000e-01
-1.100000000000000000e+01,-4.000000000000000000e+00,1.800000000000000000e+01,-1.000000000000000000e+01,-3.000000000000000000e+00,-4.000000000000000000e+00,-1.900000000000000000e+01,-3.000000000000000000e+00,4.281005859375000000e-01,3.361206054687500000e-01,-8.248901367187500000e-01,1.528320312500000000e-01
-1.000000000000000000e+00,3.000000000000000000e+00,5.000000000000000000e+00,-9.000000000000000000e+00,-1.000000000000000000e+00,3.000000000000000000e+00,2.700000000000000000e+01,0.000000000000000000e+00,4.279785156250000000e-01,3.364257812500000000e-01,-8.247680664062500000e-01,1.530151367187500000e-01
-8.000000000000000000e+00,-9.000000000000000000e+00,-3.800000000000000000e+01,-9.000000000000000000e+00,-8.000000000000000000e+00,-5.000000000000000000e+00,-7.000000000000000000e+00,-4.000000000000000000e+00,4.279785156250000000e-01,3.364257812500000000e-01,-8.247680664062500000e-01,1.530151367187500000e-01
-1.000000000000000000e+00,-1.000000000000000000e+00,3.000000000000000000e+00,-1.000000000000000000e+00,-2.000000000000000000e+00,-6.000000000000000000e+00,-3.000000000000000000e+00,0.000000000000000000e+00,4.279785156250000000e-01,3.364257812500000000e-01,-8.247680664062500000e-01,1.530151367187500000e-01
2.000000000000000000e+00,5.000000000000000000e+00,0.000000000000000000e+00,-2.000000000000000000e+00,-2.000000000000000000e+00,1.000000000000000000e+00,-2.400000000000000000e+01,0.000000000000000000e+00,4.279785156250000000e-01,3.364257812500000000e-01,-8.247680664062500000e-01,1.530151367187500000e-01
2.000000000000000000e+00,-3.000000000000000000e+00,8.000000000000000000e+00,4.000000000000000000e+00,-1.000000000000000000e+00,-2.000000000000000000e+00,1.300000000000000000e+01,-1.000000000000000000e+00,4.281005859375000000e-01,3.365478515625000000e-01,-8.246459960937500000e-01,1.532592773437500000e-01
1.000000000000000000e+00,1.000000000000000000e+00,1.000000000000000000e+00,-5.000000000000000000e+00,-1.000000000000000000e+01,-3.000000000000000000e+00,2.000000000000000000e+00,-1.000000000000000000e+00,4.281005859375000000e-01,3.365478515625000000e-01,-8.246459960937500000e-01,1.532592773437500000e-01
-4.000000000000000000e+00,0.000000000000000000e+00,1.500000000000000000e+01,7.000000000000000000e+00,1.200000000000000000e+01,0.000000000000000000e+00,1.000000000000000000e+00,1.000000000000000000e+00,4.281005859375000000e-01,3.365478515625000000e-01,-8.246459960937500000e-01,1.532592773437500000e-01
1.000000000000000000e+01,0.000000000000000000e+00,-1.300000000000000000e+01,-1.000000000000000000e+00,1.000000000000000000e+01,1.300000000000000000e+01,2.800000000000000000e+01,2.000000000000000000e+00,4.281005859375000000e-01,3.365478515625000000e-01,-8.246459960937500000e-01,1.532592773437500000e-01
-1.200000000000000000e+01,-4.000000000000000000e+00,-4.200000000000000000e+01,-9.000000000000000000e+00,-1.000000000000000000e+00,3.000000000000000000e+00,-5.000000000000000000e+00,-1.000000000000000000e+00,4.279785156250000000e-01,3.363647460937500000e-01,-8.247070312500000000e-01,1.535644531250000000e-01
-8.000000000000000000e+00,-1.800000000000000000e+01,2.200000000000000000e+01,1.000000000000000000e+00,-6.000000000000000000e+00,-1.000000000000000000e+00,8.000000000000000000e+00,0.000000000000000000e+00,4.279785156250000000e-01,3.363647460937500000e-01,-8.247070312500000000e-01,1.535644531250000000e-01
-2.000000000000000000e+00,-7.000000000000000000e+00,-1.300000000000000000e+01,-7.000000000000000000e+00,-8.000000000000000000e+00,-4.000000000000000000e+00,-5.000000000000000000e+00,-1.000000000000000000e+00,4.279785156250000000e-01,3.363647460937500000e-01,-8.247070312500000000e-01,1.535644531250000000e-01
0.000000000000000000e+00,2.000000000000000000e+00,1.900000000000000000e+01,8.000000000000000000e+00,0.000000000000000000e+00,-8.000000000000000000e+00,-1.500000000000000000e+01,-1.000000000000000000e+00,4.279785156250000000e-01,3.363647460937500000e-01,-8.247070312500000000e-01,1.535644531250000000e-01
8.000000000000000000e+00,9.000000000000000000e+00,0.000000000000000000e+00,-2.000000000000000000e+00,0.000000000000000000e+00,1.000000000000000000e+00,-6.000000000000000000e+00,1.000000000000000000e+00,4.279174804687500000e-01,3.363037109375000000e-01,-8.245849609375000000e-01,1.542968750000000000e-01
4.000000000000000000e+00,4.000000000000000000e+00,7.000000000000000000e+00,3.000000000000000000e+00,-1.200000000000000000e+01,-2.000000000000000000e+00,1.000000000000000000e+00,-3.000000000000000000e+00,4.279174804687500000e-01,3.363037109375000000e-01,-8.245849609375000000e-01,1.542968750000000000e-01
1.200000000000000000e+01,1.200000000000000000e+01,-5.000000000000000000e+00,2.600000000000000000e+01,1.200000000000000000e+01,2.000000000000000000e+00,-1.500000000000000000e+01,-1.000000000000000000e+00,4.279174804687500000e-01,3.363037109375000000e-01,-8.245849609375000000e-01,1.542968750000000000e-01
-7.000000000000000000e+00,-1.800000000000000000e+01,-2.900000000000000000e+01,-3.700000000000000000e+01,-2.000000000000000000e+00,-5.000000000000000000e+00,7.000000000000000000e+00,0.000000000000000000e+00,4.279174804687500000e-01,3.363037109375000000e-01,-8.245849609375000000e-01,1.542968750000000000e-01
-2.000000000000000000e+00,-1.200000000000000000e+01,-5.000000000000000000e+00,3.000000000000000000e+00,0.000000000000000000e+00,-8.000000000000000000e+00,-5.200000000000000000e+01,-5.000000000000000000e+00,4.277343750000000000e-01,3.360595703125000000e-01,-8.246459960937500000e-01,1.550903320312500000e-01
-4.000000000000000000e+00,-2.000000000000000000e+00,-2.000000000000000000e+00,2.000000000000000000e+00,5.000000000000000000e+00,6.000000000000000000e+00,2.900000000000000000e+01,0.000000000000000000e+00,4.277343750000000000e-01,3.360595703125000000e-01,-8.246459960937500000e-01,1.550903320312500000e-01
-1.000000000000000000e+01,-1.000000000000000000e+00,-2.000000000000000000e+00,-1.000000000000000000e+01,-8.000000000000000000e+00,-7.000000000000000000e+00,-6.000000000000000000e+00,-3.000000000000000000e+00,4.277343750000000000e-01,3.360595703125000000e-01,-8.246459960937500000e-01,1.550903320312500000e-01
4.000000000000000000e+00,7.000000000000000000e+00,6.000000000000000000e+00,1.200000000000000000e+01,-3.000000000000000000e+00,0.000000000000000000e+00,-3.000000000000000000e+00,-2.000000000000000000e+00,4.277343750000000000e-01,3.360595703125000000e-01,-8.246459960937500000e-01,1.550903320312500000e-01
2.000000000000000000e+00,-1.000000000000000000e+00,4.000000000000000000e+00,6.000000000000000000e+00,4.000000000000000000e+00,-2.000000000000000000e+00,6.000000000000000000e+00,0.000000000000000000e+00,4.275512695312500000e-01,3.361816406250000000e-01,-8.245849609375000000e-01,1.556396484375000000e-01
4.000000000000000000e+00,2.000000000000000000e+00,-2.000000000000000000e+00,-1.800000000000000000e+01,-1.400000000000000000e+01,-1.000000000000000000e+01,-2.800000000000000000e+01,0.000000000000000000e+00,4.275512695312500000e-01,3.361816406250000000e-01,-8.245849609375000000e-01,1.556396484375000000e-01
9.000000000000000000e+00,9.000000000000000000e+00,4.000000000000000000e+00,7.000000000000000000e+00,1.800000000000000000e+01,1.100000000000000000e+01,2.000000000000000000e+01,2.000000000000000000e+00,4.275512695312500000e-01,3.361816406250000000e-01,-8.245849609375000000e-01,1.556396484375000000e-01
-9.000000000000000000e+00,-5.000000000000000000e+00,-2.100000000000000000e+01,-7.000000000000000000e+00,-7.000000000000000000e+00,-1.000000000000000000e+00,-4.000000000000000000e+00,-3.000000000000000000e+00,4.275512695312500000e-01,3.361816406250000000e-01,-8.245849609375000000e-01,1.556396484375000000e-01
-8.000000000000000000e+00,-3.000000000000000000e+00,0.000000000000000000e+00,1.000000000000000000e+00,6.000000000000000000e+00,1.000000000000000000e+00,1.500000000000000000e+01,-1.000000000000000000e+00,4.272460937500000000e-01,3.363037109375000000e-01,-8.246459960937500000e-01,1.559448242187500000e-01
0.000000000000000000e+00,-4.000000000000000000e+00,1.600000000000000000e+01,1.000000000000000000e+00,-1.000000000000000000e+00,-2.000000000000000000e+00,5.000000000000000000e+00,-2.000000000000000000e+00,4.272460937500000000e-01,3.363037109375000000e-01,-8.246459960937500000e-01,1.559448242187500000e-01
-5.000000000000000000e+00,-3.000000000000000000e+00,-1.200000000000000000e+01,-1.100000000000000000e+01,-8.000000000000000000e+00,-4.000000000000000000e+00,7.000000000000000000e+00,-2.000000000000000000e+00,4.272460937500000000e-01,3.363037109375000000e-01,-8.246459960937500000e-01,1.559448242187500000e-01
0.000000000000000000e+00,3.000000000000000000e+00,1.500000000000000000e+01,1.700000000000000000e+01,3.000000000000000000e+00,-4.000000000000000000e+00,-1.100000000000000000e+01,-1.000000000000000000e+00,4.272460937500000000e-01,3.363037109375000000e-01,-8.246459960937500000e-01,1.559448242187500000e-01
3.000000000000000000e+00,6.000000000000000000e+00,5.000000000000000000e+00,-2.000000000000000000e+00,-2.000000000000000000e+00,-3.000000000000000000e+00,-3.000000000000000000e+00,3.000000000000000000e+00,4.270629882812500000e-01,3.365478515625000000e-01,-8.245849609375000000e-01,1.563110351562500000e-01
2.000000000000000000e+00,2.000000000000000000e+00,-1.100000000000000000e+01,3.000000000000000000e+00,1.000000000000000000e+00,0.000000000000000000e+00,1.000000000000000000e+00,-9.000000000000000000e+00,4.270629882812500000e-01,3.365478515625000000e-01,-8.245849609375000000e-01,1.563110351562500000e-01
-5.000000000000000000e+00,-1.000000000000000000e+00,-5.000000000000000000e+00,-1.000000000000000000e+00,6.000000000000000000e+00,2.000000000000000000e+00,-6.000000000000000000e+00,5.000000000000000000e+00,4.270629882812500000e-01,3.365478515625000000e-01,-8.245849609375000000e-01,1.563110351562500000e-01
-3.000000000000000000e+00,-1.000000000000000000e+00,1.100000000000000000e+01,-2.000000000000000000e+00,-8.000000000000000000e+00,-8.000000000000000000e+00,-1.200000000000000000e+01,-3.000000000000000000e+00,4.270629882812500000e-01,3.365478515625000000e-01,-8.245849609375000000e-01,1.563110351562500000e-01
7.000000000000000000e+00,7.000000000000000000e+00,-2.000000000000000000e+00,-4.000000000000000000e+00,4.000000000000000000e+00,1.700000000000000000e+01,7.400000000000000000e+01,1.000000000000000000e+00,4.269409179687500000e-01,3.365478515625000000e-01,-8.245239257812500000e-01,1.567993164062500000e-01
6.000000000000000000e+00,-1.000000000000000000e+00,6.000000000000000000e+00,2.000000000000000000e+00,2.200000000000000000e+01,1.200000000000000000e+01,2.600000000000000000e+01,1.000000000000000000e+00,4.269409179687500000e-01,3.365478515625000000e-01,-8.245239257812500000e-01,1.567993164062500000e-01
-1.000000000000000000e+01,-1.700000000000000000e+01,-2.700000000000000000e+01,-8.000000000000000000e+00,-9.000000000000000000e+00,-3.000000000000000000e+00,3.000000000000000000e+00,-4.000000000000000000e+00,4.269409179687500000e-01,3.365478515625000000e-01,-8.245239257812500000e-01,1.567993164062500000e-01
-1.000000000000000000e+00,6.000000000000000000e+00,1.500000000000000000e+01,-1.000000000000000000e+00,-9.000000000000000000e+00,-4.000000000000000000e+00,-4.000000000000000000e+00,1.000000000000000000e+00,4.269409179687500000e-01,3.365478515625000000e-01,-8.245239257812500000e-01,1.567993164062500000e-01
-5.000000000000000000e+00,-1.300000000000000000e+01,-1.400000000000000000e+01,-4.000000000000000000e+00,-4.000000000000000000e+00,-3.000000000000000000e+00,-1.200000000000000000e+01,-3.000000000000000000e+00,4.267578125000000000e-01,3.366699218750000000e-01,-8.245239257812500000e-01,1.572265625000000000e-01
5.000000000000000000e+00,4.000000000000000000e+00,5.000000000000000000e+00,-5.000000000000000000e+00,-2.000000000000000000e+00,1.000000000000000000e+00,-4.000000000000000000e+00,2.000000000000000000e+00,4.267578125000000000e-01,3.366699218750000000e-01,-8.245239257812500000e-01,1.572265625000000000e-01
-3.000000000000000000e+00,-5.000000000000000000e+00,2.000000000000000000e+00,6.000000000000000000e+00,2.000000000000000000e+00,0.000000000000000000e+00,3.000000000000000000e+00,-1.000000000000000000e+00,4.267578125000000000e-01,3.366699218750000000e-01,-8.245239257812500000e-01,1.572265625000000000e-01
-1.000000000000000000e+00,0.000000000000000000e+00,6.000000000000000000e+00,-2.000000000000000000e+00,-1.000000000000000000e+00,-1.000000000000000000e+00,-2.000000000000000000e+00,-2.000000000000000000e+00,4.267578125000000000e-01,3.366699218750000000e-01,-8.245239257812500000e-01,1.572265625000000000e-01
2.000000000000000000e+00,-1.000000000000000000e+00,0.000000000000000000e+00,2.500000000000000000e+01,1.000000000000000000e+00,-8.000000000000000000e+00,-2.700000000000000000e+01,-3.000000000000000000e+00,4.265747070312500000e-01,3.367309570312500000e-01,-8.245239257812500000e-01,1.575317382812500000e-01
3.000000000000000000e+00,5.000000000000000000e+00,5.000000000000000000e+00,-1.000000000000000000e+01,1.400000000000000000e+01,7.000000000000000000e+00,1.000000000000000000e+00,5.000000000000000000e+00,4.265747070312500000e-01,3.367309570312500000e-01,-8.245239257812500000e-01,1.575317382812500000e-01
-2.000000000000000000e+00,-6.000000000000000000e+00,-4.000000000000000000e+00,-1.800000000000000000e+01,-2.000000000000000000e+01,-5.000000000000000000e+00,-9.000000000000000000e+00,-3.000000000000000000e+00,4.265747070312500000e-01,3.367309570312500000e-01,-8.245239257812500000e-01,1.575317382812500000e-01
-5.000000000000000000e+00,-3.000000000000000000e+00,-9.000000000000000000e+00,-1.100000000000000000e+01,5.000000000000000000e+00,-2.000000000000000000e+00,1.200000000000000000e+01,1.000000000000000000e+00,4.265747070312500000e-01,3.367309570312500000e-01,-8.245239257812500000e-01,1.575317382812500000e-01
3.000000000000000000e+00,1.600000000000000000e+01,1.600000000000000000e+01,-1.000000000000000000e+00,-6.000000000000000000e+00,-4.000000000000000000e+00,-3.800000000000000000e+01,0.000000000000000000e+00,4.263305664062500000e-01,3.366699218750000000e-01,-8.246459960937500000e-01,1.577148437500000000e-01
-1.200000000000000000e+01,-1.100000000000000000e+01,6.000000000000000000e+00,9.000000000000000000e+00,-1.000000000000000000e+00,-3.000000000000000000e+00,-1.000000000000000000e+00,0.000000000000000000e+00,4.263305664062500000e-01,3.366699218750000000e-01,-8.246459960937500000e-01,1.577148437500000000e-01
-1.000000000000000000e+00,-5.000000000000000000e+00,-1.000000000000000000e+01,1.300000000000000000e+01,7.000000000000000000e+00,2.000000000000000000e+00,4.500000000000000000e+01,-2.000000000000000000e+00,4.263305664062500000e-01,3.366699218750000000e-01,-8.246459960937500000e-01,1.577148437500000000e-01
0.000000000000000000e+00,-2.000000000000000000e+00,3.600000000000000000e+01,1.100000000000000000e+01,4.000000000000000000e+00,5.000000000000000000e+00,-1.300000000000000000e+01,-3.000000000000000000e+00,4.263305664062500000e-01,3.366699218750000000e-01,-8.246459960937500000e-01,1.577148437500000000e-01
1.000000000000000000e+00,4.000000000000000000e+00,2.000000000000000000e+00,-2.500000000000000000e+01,-6.000000000000000000e+00,-2.000000000000000000e+00,2.000000000000000000e+00,-2.000000000000000000e+00,4.261474609375000000e-01,3.368530273437500000e-01,-8.245849609375000000e-01,1.578979492187500000e-01
-2.000000000000000000e+00,2.000000000000000000e+00,-2.400000000000000000e+01,-7.000000000000000000e+00,-5.000000000000000000e+00,1.000000000000000000e+00,1.300000000000000000e+01,1.000000000000000000e+00,4.261474609375000000e-01,3.368530273437500000e-01,-8.245849609375000000e-01,1.578979492187500000e-01
1.000000000000000000e+00,8.000000000000000000e+00,1.000000000000000000e+00,2.000000000000000000e+00,-3.000000000000000000e+00,-2.000000000000000000e+00,-1.600000000000000000e+01,-3.000000000000000000e+00,4.261474609375000000e-01,3.368530273437500000e-01,-8.245849609375000000e-01,1.578979492187500000e-01
-2.000000000000000000e+00,-1.000000000000000000e+00,-1.000000000000000000e+01,-2.000000000000000000e+00,-1.100000000000000000e+01,-1.000000000000000000e+00,-2.000000000000000000e+00,-1.000000000000000000e+00,4.261474609375000000e-01,3.368530273437500000e-01,-8.245849609375000000e-01,1.578979492187500000e-01
-2.000000000000000000e+00,-3.000000000000000000e+00,5.000000000000000000e+00,5.000000000000000000e+00,1.400000000000000000e+01,1.000000000000000000e+00,-2.000000000000000000e+00,0.000000000000000000e+00,4.260253906250000000e-01,3.372192382812500000e-01,-8.244628906250000000e-01,1.582641601562500000e-01
-2.000000000000000000e+00,2.000000000000000000e+00,5.000000000000000000e+00,-8.000000000000000000e+00,-1.200000000000000000e+01,-7.000000000000000000e+00,-2.400000000000000000e+01,-5.000000000000000000e+00,4.260253906250000000e-01,3.372192382812500000e-01,-8.244628906250000000e-01,1.582641601562500000e-01
-2.000000000000000000e+00,-4.000000000000000000e+00,4.000000000000000000e+00,2.000000000000000000e+01,9.000000000000000000e+00,-5.000000000000000000e+00,2.000000000000000000e+00,2.000000000000000000e+00,4.260253906250000000e-01,3.372192382812500000e-01,-8.244628906250000000e-01,1.582641601562500000e-01
8.000000000000000000e+00,5.000000000000000000e+00,-1.000000000000000000e+01,-4.000000000000000000e+00,9.000000000000000000e+00,-3.000000000000000000e+00,-9.000000000000000000e+00,3.000000000000000000e+00,4.260253906250000000e-01,3.372192382812500000e-01,-8.244628906250000000e-01,1.582641601562500000e-01
-8.000000000000000000e+00,-7.000000000000000000e+00,2.700000000000000000e+01,0.000000000000000000e+00,0.000000000000000000e+00,6.000000000000000000e+00,4.000000000000000000e+00,3.000000000000000000e+00,4.260253906250000000e-01,3.369750976562500000e-01,-8.245239257812500000e-01,1.584472656250000000e-01
1.300000000000000000e+01,1.800000000000000000e+01,-1.000000000000000000e+01,-8.000000000000000000e+00,-5.000000000000000000e+00,-2.000000000000000000e+00,-2.000000000000000000e+00,0.000000000000000000e+00,4.260253906250000000e-01,3.369750976562500000e-01,-8.245239257812500000e-01,1.584472656250000000e-01
