-8.000000000000000000e+00,-9.000000000000000000e+00,-2.700000000000000000e+01,-2.000000000000000000e+00,-4.000000000000000000e+00,2.000000000000000000e+00,-1.000000000000000000e+00,-7.000000000000000000e+00,-3.773193359375000000e-01,9.289550781250000000e-02,7.370605468750000000e-01,5.529174804687500000e-01
-4.000000000000000000e+00,-2.000000000000000000e+00,1.100000000000000000e+01,1.400000000000000000e+01,5.000000000000000000e+00,3.000000000000000000e+00,-2.000000000000000000e+00,-4.000000000000000000e+00,-3.773193359375000000e-01,9.289550781250000000e-02,7.370605468750000000e-01,5.529174804687500000e-01
3.000000000000000000e+00,6.000000000000000000e+00,1.000000000000000000e+01,6.000000000000000000e+00,0.000000000000000000e+00,5.000000000000000000e+00,0.000000000000000000e+00,-4.000000000000000000e+00,-3.773193359375000000e-01,9.289550781250000000e-02,7.370605468750000000e-01,5.529174804687500000e-01
1.000000000000000000e+01,4.000000000000000000e+00,-5.000000000000000000e+00,-1.200000000000000000e+01,-1.000000000000000000e+00,3.000000000000000000e+00,8.000000000000000000e+00,7.000000000000000000e+00,-3.773193359375000000e-01,9.289550781250000000e-02,7.370605468750000000e-01,5.529174804687500000e-01
-1.200000000000000000e+01,-2.000000000000000000e+01,-2.600000000000000000e+01,-1.600000000000000000e+01,-6.000000000000000000e+00,-6.000000000000000000e+00,-5.000000000000000000e+00,-1.000000000000000000e+00,-3.798217773437500000e-01,9.197998046875000000e-02,7.376708984375000000e-01,5.505371093750000000e-01
-2.000000000000000000e+00,-3.000000000000000000e+00,0.000000000000000000e+00,1.000000000000000000e+01,1.000000000000000000e+00,-4.000000000000000000e+00,0.000000000000000000e+00,-1.000000000000000000e+00,-3.798217773437500000e-01,9.197998046875000000e-02,7.376708984375000000e-01,5.505371093750000000e-01
-1.000000000000000000e+00,0.000000000000000000e+00,-8.000000000000000000e+00,-7.000000000000000000e+00,2.000000000000000000e+00,1.000000000000000000e+00,0.000000000000000000e+00,-2.000000000000000000e+00,-3.798217773437500000e-01,9.197998046875000000e-02,7.376708984375000000e-01,5.505371093750000000e-01
0.000000000000000000e+00,5.000000000000000000e+00,1.300000000000000000e+01,9.000000000000000000e+00,2.000000000000000000e+00,1.000000000000000000e+00,-1.000000000000000000e+00,-3.000000000000000000e+00,-3.798217773437500000e-01,9.197998046875000000e-02,7.376708984375000000e-01,5.505371093750000000e-01
1.000000000000000000e+00,8.000000000000000000e+00,2.000000000000000000e+00,-1.400000000000000000e+01,0.000000000000000000e+00,-4.000000000000000000e+00,2.000000000000000000e+00,-1.000000000000000000e+00,-3.825073242187500000e-01,9.039306640625000000e-02,7.385864257812500000e-01,5.476074218750000000e-01
-2.000000000000000000e+00,-8.000000000000000000e+00,-1.800000000000000000e+01,-5.000000000000000000e+00,-4.000000000000000000e+00,-4.000000000000000000e+00,-2.100000000000000000e+01,0.000000000000000000e+00,-3.825073242187500000e-01,9.039306640625000000e-02,7.385864257812500000e-01,5.476074218750000000e-01
5.000000000000000000e+00,4.000000000000000000e+00,5.000000000000000000e+00,2.000000000000000000e+00,1.000000000000000000e+00,4.000000000000000000e+00,6.000000000000000000e+00,0.000000000000000000e+00,-3.825073242187500000e-01,9.039306640625000000e-02,7.385864257812500000e-01,5.476074218750000000e-01
0.000000000000000000e+00,-1.000000000000000000e+00,-8.000000000000000000e+00,1.000000000000000000e+00,0.000000000000000000e+00,4.000000000000000000e+00,4.000000000000000000e+00,-1.000000000000000000e+00,-3.825073242187500000e-01,9.039306640625000000e-02,7.385864257812500000e-01,5.476074218750000000e-01
-1.000000000000000000e+01,-2.400000000000000000e+01,-9.000000000000000000e+00,-1.400000000000000000e+01,-9.000000000000000000e+00,-7.000000000000000000e+00,-1.100000000000000000e+01,-7.000000000000000000e+00,-3.842163085937500000e-01,9.020996093750000000e-02,7.395019531250000000e-01,5.452880859375000000e-01
-3.000000000000000000e+00,1.000000000000000000e+00,4.000000000000000000e+00,3.000000000000000000e+00,-2.000000000000000000e+00,3.000000000000000000e+00,5.000000000000000000e+00,-3.000000000000000000e+00,-3.842163085937500000e-01,9.020996093750000000e-02,7.395019531250000000e-01,5.452880859375000000e-01
3.000000000000000000e+00,5.000000000000000000e+00,-5.000000000000000000e+00,-4.000000000000000000e+00,-6.000000000000000000e+00,-1.500000000000000000e+01,-6.000000000000000000e+00,7.000000000000000000e+00,-3.842163085937500000e-01,9.020996093750000000e-02,7.395019531250000000e-01,5.452880859375000000e-01
1.000000000000000000e+00,2.000000000000000000e+00,1.100000000000000000e+01,6.000000000000000000e+00,1.000000000000000000e+00,-5.000000000000000000e+00,-7.000000000000000000e+00,-2.000000000000000000e+00,-3.842163085937500000e-01,9.020996093750000000e-02,7.395019531250000000e-01,5.452880859375000000e-01
0.000000000000000000e+00,1.000000000000000000e+00,1.000000000000000000e+00,-1.200000000000000000e+01,-1.000000000000000000e+00,2.000000000000000000e+00,-7.000000000000000000e+00,-1.000000000000000000e+00,-3.864135742187500000e-01,9.039306640625000000e-02,7.396240234375000000e-01,5.434570312500000000e-01
2.000000000000000000e+00,4.000000000000000000e+00,1.000000000000000000e+00,8.000000000000000000e+00,3.000000000000000000e+00,7.000000000000000000e+00,2.000000000000000000e+00,0.000000000000000000e+00,-3.864135742187500000e-01,9.039306640625000000e-02,7.396240234375000000e-01,5.434570312500000000e-01
-7.000000000000000000e+00,-3.000000000000000000e+00,-9.000000000000000000e+00,-1.000000000000000000e+00,-2.000000000000000000e+00,2.000000000000000000e+00,1.000000000000000000e+00,-2.000000000000000000e+00,-3.864135742187500000e-01,9.039306640625000000e-02,7.396240234375000000e-01,5.434570312500000000e-01
-7.000000000000000000e+00,-1.300000000000000000e+01,-1.300000000000000000e+01,-1.100000000000000000e+01,-9.000000000000000000e+00,-6.000000000000000000e+00,-3.000000000000000000e+00,-4.000000000000000000e+00,-3.864135742187500000e-01,9.039306640625000000e-02,7.396240234375000000e-01,5.434570312500000000e-01
3.000000000000000000e+00,7.000000000000000000e+00,8.000000000000000000e+00,5.000000000000000000e+00,1.000000000000000000e+00,-9.000000000000000000e+00,-1.000000000000000000e+00,0.000000000000000000e+00,-3.886108398437500000e-01,9.173583984375000000e-02,7.387695312500000000e-01,5.429077148437500000e-01
3.000000000000000000e+00,-1.000000000000000000e+00,-4.000000000000000000e+00,-1.000000000000000000e+00,-2.000000000000000000e+00,-2.000000000000000000e+00,4.000000000000000000e+00,1.000000000000000000e+00,-3.886108398437500000e-01,9.173583984375000000e-02,7.387695312500000000e-01,5.429077148437500000e-01
-2.000000000000000000e+00,-5.000000000000000000e+00,-8.000000000000000000e+00,3.000000000000000000e+00,2.000000000000000000e+00,-2.000000000000000000e+00,-3.000000000000000000e+00,-5.000000000000000000e+00,-3.886108398437500000e-01,9.173583984375000000e-02,7.387695312500000000e-01,5.429077148437500000e-01
0.000000000000000000e+00,-4.000000000000000000e+00,2.000000000000000000e+00,-6.000000000000000000e+00,-3.000000000000000000e+00,1.000000000000000000e+00,-2.000000000000000000e+00,-2.000000000000000000e+00,-3.886108398437500000e-01,9.173583984375000000e-02,7.387695312500000000e-01,5.429077148437500000e-01
5.000000000000000000e+00,7.000000000000000000e+00,1.100000000000000000e+01,-2.000000000000000000e+00,-3.000000000000000000e+00,1.000000000000000000e+00,3.000000000000000000e+00,4.000000000000000000e+00,-3.898315429687500000e-01,9.576416015625000000e-02,7.373657226562500000e-01,5.432128906250000000e-01
1.000000000000000000e+00,5.000000000000000000e+00,0.000000000000000000e+00,5.000000000000000000e+00,1.000000000000000000e+00,-1.000000000000000000e+00,2.000000000000000000e+00,0.000000000000000000e+00,-3.898315429687500000e-01,9.576416015625000000e-02,7.373657226562500000e-01,5.432128906250000000e-01
-2.000000000000000000e+00,-3.000000000000000000e+00,-9.000000000000000000e+00,-2.000000000000000000e+00,-3.000000000000000000e+00,2.000000000000000000e+00,-2.000000000000000000e+00,-4.000000000000000000e+00,-3.898315429687500000e-01,9.576416015625000000e-02,7.373657226562500000e-01,5.432128906250000000e-01
-1.000000000000000000e+00,0.000000000000000000e+00,2.000000000000000000e+00,-3.000000000000000000e+00,-5.000000000000000000e+00,-2.000000000000000000e+00,0.000000000000000000e+00,-1.000000000000000000e+00,-3.898315429687500000e-01,9.576416015625000000e-02,7.373657226562500000e-01,5.432128906250000000e-01
2.000000000000000000e+00,5.000000000000000000e+00,6.000000000000000000e+00,7.000000000000000000e+00,4.000000000000000000e+00,2.000000000000000000e+00,1.000000000000000000e+00,4.000000000000000000e+00,-3.909912109375000000e-01,1.004028320312500000e-01,7.363281250000000000e-01,5.429077148437500000e-01
-3.000000000000000000e+00,-6.000000000000000000e+00,-4.000000000000000000e+00,-3.000000000000000000e+00,0.000000000000000000e+00,-4.000000000000000000e+00,1.000000000000000000e+00,-1.000000000000000000e+00,-3.909912109375000000e-01,1.004028320312500000e-01,7.363281250000000000e-01,5.429077148437500000e-01
0.000000000000000000e+00,-1.000000000000000000e+00,7.000000000000000000e+00,1.500000000000000000e+01,0.000000000000000000e+00,5.000000000000000000e+00,1.600000000000000000e+01,-2.000000000000000000e+00,-3.909912109375000000e-01,1.004028320312500000e-01,7.363281250000000000e-01,5.429077148437500000e-01
-2.000000000000000000e+00,-4.000000000000000000e+00,-5.000000000000000000e+00,-2.100000000000000000e+01,0.000000000000000000e+00,0.000000000000000000e+00,-2.300000000000000000e+01,-1.000000000000000000e+00,-3.909912109375000000e-01,1.004028320312500000e-01,7.363281250000000000e-01,5.429077148437500000e-01
2.000000000000000000e+00,4.000000000000000000e+00,0.000000000000000000e+00,-1.200000000000000000e+01,-3.000000000000000000e+00,-5.000000000000000000e+00,-1.000000000000000000e+00,0.000000000000000000e+00,-3.930664062500000000e-01,1.033935546875000000e-01,7.360229492187500000e-01,5.413208007812500000e-01
-2.000000000000000000e+00,1.000000000000000000e+00,1.000000000000000000e+01,1.000000000000000000e+00,-3.000000000000000000e+00,-2.000000000000000000e+00,3.000000000000000000e+00,9.000000000000000000e+00,-3.930664062500000000e-01,1.033935546875000000e-01,7.360229492187500000e-01,5.413208007812500000e-01
2.000000000000000000e+00,2.000000000000000000e+00,-6.000000000000000000e+00,7.000000000000000000e+00,1.000000000000000000e+00,1.000000000000000000e+00,-2.000000000000000000e+00,-6.000000000000000000e+00,-3.930664062500000000e-01,1.033935546875000000e-01,7.360229492187500000e-01,5.413208007812500000e-01
0.000000000000000000e+00,1.000000000000000000e+00,2.000000000000000000e+00,1.000000000000000000e+00,-1.000000000000000000e+00,-2.000000000000000000e+00,3.000000000000000000e+00,9.000000000000000000e+00,-3.930664062500000000e-01,1.033935546875000000e-01,7.360229492187500000e-01,5.413208007812500000e-01
0.000000000000000000e+00,-4.000000000000000000e+00,3.000000000000000000e+00,3.000000000000000000e+00,3.000000000000000000e+00,3.000000000000000000e+00,4.000000000000000000e+00,-4.000000000000000000e+00,-3.945922851562500000e-01,1.053466796875000000e-01,7.359619140625000000e-01,5.399169921875000000e-01
-2.000000000000000000e+00,-5.000000000000000000e+00,-5.000000000000000000e+00,-9.000000000000000000e+00,-1.000000000000000000e+00,-2.000000000000000000e+00,-2.000000000000000000e+00,-2.000000000000000000e+00,-3.945922851562500000e-01,1.053466796875000000e-01,7.359619140625000000e-01,5.399169921875000000e-01
3.000000000000000000e+00,3.000000000000000000e+00,3.000000000000000000e+00,-6.000000000000000000e+00,-4.000000000000000000e+00,-4.000000000000000000e+00,-8.000000000000000000e+00,1.000000000000000000e+00,-3.945922851562500000e-01,1.053466796875000000e-01,7.359619140625000000e-01,5.399169921875000000e-01
2.000000000000000000e+00,3.000000000000000000e+00,3.000000000000000000e+00,3.000000000000000000e+00,-1.000000000000000000e+00,2.000000000000000000e+00,3.000000000000000000e+00,-1.000000000000000000e+00,-3.945922851562500000e-01,1.053466796875000000e-01,7.359619140625000000e-01,5.399169921875000000e-01
1.000000000000000000e+00,2.000000000000000000e+00,-4.000000000000000000e+00,1.000000000000000000e+00,1.000000000000000000e+00,-6.000000000000000000e+00,-5.000000000000000000e+00,-1.000000000000000000e+00,-3.947143554687500000e-01,1.083374023437500000e-01,7.357788085937500000e-01,5.394897460937500000e-01
-3.000000000000000000e+00,-5.000000000000000000e+00,-2.000000000000000000e+00,7.000000000000000000e+00,0.000000000000000000e+00,6.000000000000000000e+00,5.000000000000000000e+00,-4.000000000000000000e+00,-3.947143554687500000e-01,1.083374023437500000e-01,7.357788085937500000e-01,5.394897460937500000e-01
0.000000000000000000e+00,1.000000000000000000e+00,-1.000000000000000000e+00,-2.000000000000000000e+00,-1.000000000000000000e+00,-1.000000000000000000e+01,-7.000000000000000000e+00,-2.000000000000000000e+00,-3.947143554687500000e-01,1.083374023437500000e-01,7.357788085937500000e-01,5.394897460937500000e-01
-1.000000000000000000e+00,1.000000000000000000e+00,9.000000000000000000e+00,1.300000000000000000e+01,5.000000000000000000e+00,5.000000000000000000e+00,1.300000000000000000e+01,-1.000000000000000000e+00,-3.947143554687500000e-01,1.083374023437500000e-01,7.357788085937500000e-01,5.394897460937500000e-01
2.000000000000000000e+00,7.000000000000000000e+00,9.000000000000000000e+00,-1.100000000000000000e+01,-1.000000000000000000e+00,1.000000000000000000e+00,4.000000000000000000e+00,4.000000000000000000e+00,-3.945922851562500000e-01,1.123657226562500000e-01,7.354736328125000000e-01,5.391235351562500000e-01
-3.000000000000000000e+00,1.000000000000000000e+00,-4.000000000000000000e+00,-4.000000000000000000e+00,-6.000000000000000000e+00,0.000000000000000000e+00,-3.000000000000000000e+00,-3.000000000000000000e+00,-3.945922851562500000e-01,1.123657226562500000e-01,7.354736328125000000e-01,5.391235351562500000e-01
5.000000000000000000e+00,-1.000000000000000000e+00,-3.000000000000000000e+00,8.000000000000000000e+00,4.000000000000000000e+00,-1.000000000000000000e+00,-4.000000000000000000e+00,6.000000000000000000e+00,-3.945922851562500000e-01,1.123657226562500000e-01,7.354736328125000000e-01,5.391235351562500000e-01
-4.000000000000000000e+00,-4.000000000000000000e+00,-6.000000000000000000e+00,-6.000000000000000000e+00,-1.000000000000000000e+00,0.000000000000000000e+00,-2.000000000000000000e+00,-3.000000000000000000e+00,-3.945922851562500000e-01,1.123657226562500000e-01,7.354736328125000000e-01,5.391235351562500000e-01
-5.000000000000000000e+00,-1.000000000000000000e+00,0.000000000000000000e+00,4.000000000000000000e+00,-1.000000000000000000e+00,-1.000000000000000000e+00,-3.000000000000000000e+00,-4.000000000000000000e+00,-3.949584960937500000e-01,1.152954101562500000e-01,7.357177734375000000e-01,5.379028320312500000e-01
1.000000000000000000e+00,4.000000000000000000e+00,6.000000000000000000e+00,3.000000000000000000e+00,0.000000000000000000e+00,-2.000000000000000000e+00,-1.000000000000000000e+00,-1.000000000000000000e+00,-3.949584960937500000e-01,1.152954101562500000e-01,7.357177734375000000e-01,5.379028320312500000e-01
-5.000000000000000000e+00,-1.000000000000000000e+00,-6.000000000000000000e+00,-1.900000000000000000e+01,-5.000000000000000000e+00,1.000000000000000000e+00,-3.000000000000000000e+00,-5.000000000000000000e+00,-3.949584960937500000e-01,1.152954101562500000e-01,7.357177734375000000e-01,5.379028320312500000e-01
3.000000000000000000e+00,4.000000000000000000e+00,-5.000000000000000000e+00,7.000000000000000000e+00,3.000000000000000000e+00,1.000000000000000000e+00,3.000000000000000000e+00,0.000000000000000000e+00,-3.949584960937500000e-01,1.152954101562500000e-01,7.357177734375000000e-01,5.379028320312500000e-01
-5.000000000000000000e+00,-4.000000000000000000e+00,7.000000000000000000e+00,9.000000000000000000e+00,-1.000000000000000000e+00,-3.000000000000000000e+00,-4.000000000000000000e+00,-4.000000000000000000e+00,-3.956298828125000000e-01,1.170654296875000000e-01,7.362670898437500000e-01,5.363159179687500000e-01
-2.000000000000000000e+00,-3.000000000000000000e+00,0.000000000000000000e+00,-1.500000000000000000e+01,1.000000000000000000e+00,-1.000000000000000000e+00,0.000000000000000000e+00,-3.000000000000000000e+00,-3.956298828125000000e-01,1.170654296875000000e-01,7.362670898437500000e-01,5.363159179687500000e-01
0.000000000000000000e+00,0.000000000000000000e+00,3.000000000000000000e+00,3.000000000000000000e+00,-5.000000000000000000e+00,-4.000000000000000000e+00,-1.000000000000000000e+00,-1.000000000000000000e+00,-3.956298828125000000e-01,1.170654296875000000e-01,7.362670898437500000e-01,5.363159179687500000e-01
-6.000000000000000000e+00,-1.200000000000000000e+01,-1.500000000000000000e+01,5.000000000000000000e+00,-1.000000000000000000e+00,1.000000000000000000e+00,-4.000000000000000000e+00,-5.000000000000000000e+00,-3.956298828125000000e-01,1.170654296875000000e-01,7.362670898437500000e-01,5.363159179687500000e-01
7.000000000000000000e+00,1.300000000000000000e+01,1.400000000000000000e+01,1.400000000000000000e+01,2.000000000000000000e+00,-3.000000000000000000e+00,-5.000000000000000000e+00,1.000000000000000000e+00,-3.963623046875000000e-01,1.180419921875000000e-01,7.368774414062500000e-01,5.346679687500000000e-01
-3.000000000000000000e+00,-8.000000000000000000e+00,-1.700000000000000000e+01,-9.000000000000000000e+00,1.000000000000000000e+00,5.000000000000000000e+00,9.000000000000000000e+00,-4.000000000000000000e+00,-3.963623046875000000e-01,1.180419921875000000e-01,7.368774414062500000e-01,5.346679687500000000e-01
2.000000000000000000e+00,0.000000000000000000e+00,1.300000000000000000e+01,2.700000000000000000e+01,4.000000000000000000e+00,2.000000000000000000e+00,5.000000000000000000e+00,-1.000000000000000000e+00,-3.963623046875000000e-01,1.180419921875000000e-01,7.368774414062500000e-01,5.346679687500000000e-01
-3.000000000000000000e+00,-4.000000000000000000e+00,-7.000000000000000000e+00,-3.700000000000000000e+01,-6.000000000000000000e+00,-4.000000000000000000e+00,2.000000000000000000e+00,-1.000000000000000000e+00,-3.963623046875000000e-01,1.180419921875000000e-01,7.368774414062500000e-01,5.346679687500000000e-01
0.000000000000000000e+00,0.000000000000000000e+00,5.000000000000000000e+00,1.600000000000000000e+01,3.000000000000000000e+00,3.000000000000000000e+00,-2.000000000000000000e+00,-3.000000000000000000e+00,-3.972778320312500000e-01,1.185913085937500000e-01,7.373046875000000000e-01,5.333251953125000000e-01
-1.000000000000000000e+00,-3.000000000000000000e+00,2.000000000000000000e+00,9.000000000000000000e+00,-3.000000000000000000e+00,-1.100000000000000000e+01,-2.000000000000000000e+00,-1.000000000000000000e+00,-3.972778320312500000e-01,1.185913085937500000e-01,7.373046875000000000e-01,5.333251953125000000e-01
-4.000000000000000000e+00,-6.000000000000000000e+00,-3.000000000000000000e+00,-1.400000000000000000e+01,-4.000000000000000000e+00,1.000000000000000000e+01,1.000000000000000000e+00,2.000000000000000000e+00,-3.972778320312500000e-01,1.185913085937500000e-01,7.373046875000000000e-01,5.333251953125000000e-01
-4.000000000000000000e+00,0.000000000000000000e+00,4.000000000000000000e+00,1.000000000000000000e+01,3.000000000000000000e+00,3.000000000000000000e+00,-5.000000000000000000e+00,-5.000000000000000000e+00,-3.972778320312500000e-01,1.185913085937500000e-01,7.373046875000000000e-01,5.333251953125000000e-01
-2.000000000000000000e+00,-3.000000000000000000e+00,-4.000000000000000000e+00,-7.000000000000000000e+00,-3.000000000000000000e+00,2.000000000000000000e+00,8.000000000000000000e+00,4.000000000000000000e+00,-3.977050781250000000e-01,1.192626953125000000e-01,7.374877929687500000e-01,5.325927734375000000e-01
1.000000000000000000e+00,4.000000000000000000e+00,3.000000000000000000e+00,0.000000000000000000e+00,-3.000000000000000000e+00,-3.000000000000000000e+00,-3.000000000000000000e+00,2.000000000000000000e+00,-3.977050781250000000e-01,1.192626953125000000e-01,7.374877929687500000e-01,5.325927734375000000e-01
-4.000000000000000000e+00,-8.000000000000000000e+00,-1.000000000000000000e+01,-8.000000000000000000e+00,0.000000000000000000e+00,-1.000000000000000000e+00,-2.000000000000000000e+00,-1.000000000000000000e+00,-3.977050781250000000e-01,1.192626953125000000e-01,7.374877929687500000e-01,5.325927734375000000e-01
-1.000000000000000000e+00,0.000000000000000000e+00,8.000000000000000000e+00,-1.000000000000000000e+00,-1.000000000000000000e+00,-3.000000000000000000e+00,-4.000000000000000000e+00,-1.000000000000000000e+00,-3.977050781250000000e-01,1.192626953125000000e-01,7.374877929687500000e-01,5.325927734375000000e-01
0.000000000000000000e+00,1.000000000000000000e+00,-2.000000000000000000e+00,-3.000000000000000000e+00,-1.000000000000000000e+00,1.000000000000000000e+00,-3.000000000000000000e+00,-3.000000000000000000e+00,-3.978271484375000000e-01,1.204833984375000000e-01,7.376708984375000000e-01,5.319824218750000000e-01
2.000000000000000000e+00,0.000000000000000000e+00,3.000000000000000000e+00,9.000000000000000000e+00,0.000000000000000000e+00,0.000000000000000000e+00,-5.000000000000000000e+00,1.000000000000000000e+00,-3.978271484375000000e-01,1.204833984375000000e-01,7.376708984375000000e-01,5.319824218750000000e-01
0.000000000000000000e+00,6.000000000000000000e+00,1.000000000000000000e+00,-2.100000000000000000e+01,-3.000000000000000000e+00,-5.000000000000000000e+00,-4.000000000000000000e+00,-3.000000000000000000e+00,-3.978271484375000000e-01,1.204833984375000000e-01,7.376708984375000000e-01,5.319824218750000000e-01
-1.000000000000000000e+00,-2.000000000000000000e+00,-2.100000000000000000e+01,-7.000000000000000000e+00,-6.000000000000000000e+00,-4.000000000000000000e+00,4.000000000000000000e+00,3.000000000000000000e+00,-3.978271484375000000e-01,1.204833984375000000e-01,7.376708984375000000e-01,5.319824218750000000e-01
3.000000000000000000e+00,4.000000000000000000e+00,0.000000000000000000e+00,2.200000000000000000e+01,6.000000000000000000e+00,2.000000000000000000e+00,2.000000000000000000e+00,0.000000000000000000e+00,-3.979492187500000000e-01,1.221923828125000000e-01,7.376098632812500000e-01,5.315551757812500000e-01
-1.000000000000000000e+00,-4.000000000000000000e+00,-6.000000000000000000e+00,-1.000000000000000000e+01,-3.000000000000000000e+00,1.000000000000000000e+00,-5.000000000000000000e+00,-2.000000000000000000e+00,-3.979492187500000000e-01,1.221923828125000000e-01,7.376098632812500000e-01,5.315551757812500000e-01
1.000000000000000000e+00,4.000000000000000000e+00,5.000000000000000000e+00,1.000000000000000000e+01,7.000000000000000000e+00,1.000000000000000000e+00,7.000000000000000000e+00,2.000000000000000000e+00,-3.979492187500000000e-01,1.221923828125000000e-01,7.376098632812500000e-01,5.315551757812500000e-01
0.000000000000000000e+00,-3.000000000000000000e+00,1.000000000000000000e+01,3.000000000000000000e+00,2.000000000000000000e+00,-5.000000000000000000e+00,-3.000000000000000000e+00,-4.000000000000000000e+00,-3.979492187500000000e-01,1.221923828125000000e-01,7.376098632812500000e-01,5.315551757812500000e-01
-4.000000000000000000e+00,-4.000000000000000000e+00,-3.400000000000000000e+01,-3.600000000000000000e+01,-1.600000000000000000e+01,-1.000000000000000000e+00,2.000000000000000000e+00,1.000000000000000000e+00,-3.984375000000000000e-01,1.233520507812500000e-01,7.372436523437500000e-01,5.314941406250000000e-01
2.000000000000000000e+00,4.000000000000000000e+00,9.000000000000000000e+00,1.400000000000000000e+01,1.000000000000000000e+01,0.000000000000000000e+00,1.000000000000000000e+00,-1.000000000000000000e+00,-3.984375000000000000e-01,1.233520507812500000e-01,7.372436523437500000e-01,5.314941406250000000e-01
-6.000000000000000000e+00,-1.400000000000000000e+01,-3.500000000000000000e+01,-1.000000000000000000e+01,-7.000000000000000000e+00,-2.000000000000000000e+00,-5.000000000000000000e+00,-2.000000000000000000e+00,-3.984375000000000000e-01,1.233520507812500000e-01,7.372436523437500000e-01,5.314941406250000000e-01
1.000000000000000000e+00,5.000000000000000000e+00,1.600000000000000000e+01,1.600000000000000000e+01,4.000000000000000000e+00,-2.000000000000000000e+00,-2.000000000000000000e+00,-3.000000000000000000e+00,-3.984375000000000000e-01,1.233520507812500000e-01,7.372436523437500000e-01,5.314941406250000000e-01
-5.000000000000000000e+00,-1.000000000000000000e+00,5.000000000000000000e+00,-5.000000000000000000e+00,1.000000000000000000e+00,-1.000000000000000000e+00,-4.000000000000000000e+00,-6.000000000000000000e+00,-3.984375000000000000e-01,1.240234375000000000e-01,7.368774414062500000e-01,5.317993164062500000e-01
-3.000000000000000000e+00,-7.000000000000000000e+00,-6.000000000000000000e+00,-1.100000000000000000e+01,-4.000000000000000000e+00,3.000000000000000000e+00,8.000000000000000000e+00,1.000000000000000000e+00,-3.984375000000000000e-01,1.240234375000000000e-01,7.368774414062500000e-01,5.317993164062500000e-01
0.000000000000000000e+00,0.000000000000000000e+00,1.300000000000000000e+01,0.000000000000000000e+00,-2.000000000000000000e+00,-3.000000000000000000e+00,-3.000000000000000000e+00,4.000000000000000000e+00,-3.984375000000000000e-01,1.240234375000000000e-01,7.368774414062500000e-01,5.317993164062500000e-01
-5.000000000000000000e+00,-3.000000000000000000e+00,-6.000000000000000000e+00,8.000000000000000000e+00,-1.000000000000000000e+00,0.000000000000000000e+00,-4.000000000000000000e+00,-3.000000000000000000e+00,-3.984375000000000000e-01,1.240234375000000000e-01,7.368774414062500000e-01,5.317993164062500000e-01
-1.000000000000000000e+00,-3.000000000000000000e+00,-2.000000000000000000e+00,-1.700000000000000000e+01,-4.000000000000000000e+00,-1.000000000000000000e+00,1.000000000000000000e+00,1.000000000000000000e+00,-3.976440429687500000e-01,1.254882812500000000e-01,7.367553710937500000e-01,5.322265625000000000e-01
3.000000000000000000e+00,5.000000000000000000e+00,5.000000000000000000e+00,1.900000000000000000e+01,4.000000000000000000e+00,-4.000000000000000000e+00,1.000000000000000000e+00,-1.000000000000000000e+00,-3.976440429687500000e-01,1.254882812500000000e-01,7.367553710937500000e-01,5.322265625000000000e-01
-5.000000000000000000e+00,-6.000000000000000000e+00,-1.000000000000000000e+01,-2.400000000000000000e+01,-4.000000000000000000e+00,4.000000000000000000e+00,-5.000000000000000000e+00,-6.000000000000000000e+00,-3.976440429687500000e-01,1.254882812500000000e-01,7.367553710937500000e-01,5.322265625000000000e-01
4.000000000000000000e+00,-1.000000000000000000e+00,-2.000000000000000000e+00,1.100000000000000000e+01,0.000000000000000000e+00,-2.000000000000000000e+00,1.000000000000000000e+00,6.000000000000000000e+00,-3.976440429687500000e-01,1.254882812500000000e-01,7.367553710937500000e-01,5.322265625000000000e-01
5.000000000000000000e+00,2.000000000000000000e+00,7.000000000000000000e+00,7.000000000000000000e+00,0.000000000000000000e+00,-1.000000000000000000e+00,0.000000000000000000e+00,1.000000000000000000e+00,-3.973388671875000000e-01,1.262207031250000000e-01,7.368164062500000000e-01,5.321655273437500000e-01
-4.000000000000000000e+00,-5.000000000000000000e+00,-1.400000000000000000e+01,-7.000000000000000000e+00,-5.000000000000000000e+00,-3.000000000000000000e+00,-5.000000000000000000e+00,-1.000000000000000000e+00,-3.973388671875000000e-01,1.262207031250000000e-01,7.368164062500000000e-01,5.321655273437500000e-01
0.000000000000000000e+00,-2.000000000000000000e+00,8.000000000000000000e+00,1.400000000000000000e+01,0.000000000000000000e+00,-2.000000000000000000e+00,-1.000000000000000000e+00,0.000000000000000000e+00,-3.973388671875000000e-01,1.262207031250000000e-01,7.368164062500000000e-01,5.321655273437500000e-01
-1.000000000000000000e+00,2.000000000000000000e+00,5.000000000000000000e+00,7.000000000000000000e+00,0.000000000000000000e+00,-1.000000000000000000e+00,-3.000000000000000000e+00,0.000000000000000000e+00,-3.973388671875000000e-01,1.262207031250000000e-01,7.368164062500000000e-01,5.321655273437500000e-01
-2.000000000000000000e+00,-6.000000000000000000e+00,4.000000000000000000e+00,-1.200000000000000000e+01,0.000000000000000000e+00,1.000000000000000000e+00,2.000000000000000000e+00,-4.000000000000000000e+00,-3.977661132812500000e-01,1.251220703125000000e-01,7.374267578125000000e-01,5.313110351562500000e-01
0.000000000000000000e+00,3.000000000000000000e+00,-6.000000000000000000e+00,-1.100000000000000000e+01,0.000000000000000000e+00,0.000000000000000000e+00,-1.000000000000000000e+00,-2.000000000000000000e+00,-3.977661132812500000e-01,1.251220703125000000e-01,7.374267578125000000e-01,5.313110351562500000e-01
-2.000000000000000000e+00,-3.000000000000000000e+00,-8.000000000000000000e+00,1.100000000000000000e+01,-3.000000000000000000e+00,-1.000000000000000000e+00,0.000000000000000000e+00,-2.000000000000000000e+00,-3.977661132812500000e-01,1.251220703125000000e-01,7.374267578125000000e-01,5.313110351562500000e-01
-3.000000000000000000e+00,-5.000000000000000000e+00,-1.000000000000000000e+00,-1.500000000000000000e+01,-4.000000000000000000e+00,-1.000000000000000000e+00,0.000000000000000000e+00,-2.000000000000000000e+00,-3.977661132812500000e-01,1.251220703125000000e-01,7.374267578125000000e-01,5.313110351562500000e-01
1.000000000000000000e+00,1.000000000000000000e+00,3.000000000000000000e+00,9.000000000000000000e+00,-1.000000000000000000e+00,0.000000000000000000e+00,-1.000000000000000000e+00,2.000000000000000000e+00,-3.987426757812500000e-01,1.230468750000000000e-01,7.378540039062500000e-01,5.304565429687500000e-01
-3.000000000000000000e+00,-4.000000000000000000e+00,3.000000000000000000e+00,-9.000000000000000000e+00,-6.000000000000000000e+00,-3.000000000000000000e+00,-2.000000000000000000e+00,0.000000000000000000e+00,-3.987426757812500000e-01,1.230468750000000000e-01,7.378540039062500000e-01,5.304565429687500000e-01
2.000000000000000000e+00,6.000000000000000000e+00,1.100000000000000000e+01,-2.000000000000000000e+00,2.000000000000000000e+00,-3.000000000000000000e+00,-1.000000000000000000e+00,-4.000000000000000000e+00,-3.987426757812500000e-01,1.230468750000000000e-01,7.378540039062500000e-01,5.304565429687500000e-01
-4.000000000000000000e+00,-6.000000000000000000e+00,-1.600000000000000000e+01,-8.000000000000000000e+00,0.000000000000000000e+00,1.000000000000000000e+00,1.000000000000000000e+00,-3.000000000000000000e+00,-3.987426757812500000e-01,1.230468750000000000e-01,7.378540039062500000e-01,5.304565429687500000e-01
-1.000000000000000000e+00,-3.000000000000000000e+00,5.000000000000000000e+00,5.000000000000000000e+00,-1.000000000000000000e+00,-3.000000000000000000e+00,-4.000000000000000000e+00,-1.000000000000000000e+00,-3.997192382812500000e-01,1.218872070312500000e-01,7.374877929687500000e-01,5.305175781250000000e-01
-1.000000000000000000e+00,-2.000000000000000000e+00,1.000000000000000000e+00,0.000000000000000000e+00,2.000000000000000000e+00,2.000000000000000000e+00,0.000000000000000000e+00,-1.000000000000000000e+00,-3.997192382812500000e-01,1.218872070312500000e-01,7.374877929687500000e-01,5.305175781250000000e-01
-1.000000000000000000e+00,0.000000000000000000e+00,1.000000000000000000e+00,3.000000000000000000e+00,-2.000000000000000000e+00,-1.000000000000000000e+00,1.000000000000000000e+00,-1.000000000000000000e+00,-3.997192382812500000e-01,1.218872070312500000e-01,7.374877929687500000e-01,5.305175781250000000e-01
1.000000000000000000e+00,-4.000000000000000000e+00,2.000000000000000000e+00,-5.000000000000000000e+00,-2.000000000000000000e+00,0.000000000000000000e+00,0.000000000000000000e+00,-1.000000000000000000e+00,-3.997192382812500000e-01,1.218872070312500000e-01,7.374877929687500000e-01,5.305175781250000000e-01
-1.000000000000000000e+01,0.000000000000000000e+00,3.000000000000000000e+00,-2.100000000000000000e+01,-1.400000000000000000e+01,-3.000000000000000000e+00,-5.000000000000000000e+00,-5.000000000000000000e+00,-4.000854492187500000e-01,1.218872070312500000e-01,7.368164062500000000e-01,5.311279296875000000e-01
-2.000000000000000000e+00,0.000000000000000000e+00,-2.000000000000000000e+00,2.300000000000000000e+01,6.000000000000000000e+00,0.000000000000000000e+00,-3.000000000000000000e+00,0.000000000000000000e+00,-4.000854492187500000e-01,1.218872070312500000e-01,7.368164062500000000e-01,5.311279296875000000e-01
1.500000000000000000e+01,8.000000000000000000e+00,1.100000000000000000e+01,-1.500000000000000000e+01,-8.000000000000000000e+00,-1.000000000000000000e+00,2.000000000000000000e+00,8.000000000000000000e+00,-4.000854492187500000e-01,1.218872070312500000e-01,7.368164062500000000e-01,5.311279296875000000e-01
-7.000000000000000000e+00,-9.000000000000000000e+00,6.000000000000000000e+00,1.000000000000000000e+00,-4.000000000000000000e+00,-1.000000000000000000e+00,-8.000000000000000000e+00,-3.000000000000000000e+00,-4.000854492187500000e-01,1.218872070312500000e-01,7.368164062500000000e-01,5.311279296875000000e-01
0.000000000000000000e+00,2.000000000000000000e+00,-2.000000000000000000e+00,-1.000000000000000000e+00,2.000000000000000000e+00,1.000000000000000000e+00,1.000000000000000000e+00,-1.000000000000000000e+00,-4.003295898437500000e-01,1.218872070312500000e-01,7.365112304687500000e-01,5.313720703125000000e-01
-3.000000000000000000e+00,5.000000000000000000e+00,6.000000000000000000e+00,-6.000000000000000000e+00,-1.300000000000000000e+01,-5.000000000000000000e+00,-4.000000000000000000e+00,-3.000000000000000000e+00,-4.003295898437500000e-01,1.218872070312500000e-01,7.365112304687500000e-01,5.313720703125000000e-01
-1.000000000000000000e+01,-1.300000000000000000e+01,-1.600000000000000000e+01,1.700000000000000000e+01,1.600000000000000000e+01,-3.000000000000000000e+00,-3.000000000000000000e+00,-8.000000000000000000e+00,-4.003295898437500000e-01,1.218872070312500000e-01,7.365112304687500000e-01,5.313720703125000000e-01
-3.000000000000000000e+00,5.000000000000000000e+00,1.000000000000000000e+00,-1.700000000000000000e+01,-6.000000000000000000e+00,3.000000000000000000e+00,3.000000000000000000e+00,1.000000000000000000e+00,-4.003295898437500000e-01,1.218872070312500000e-01,7.365112304687500000e-01,5.313720703125000000e-01
4.000000000000000000e+00,2.000000000000000000e+00,8.000000000000000000e+00,2.000000000000000000e+00,-4.000000000000000000e+00,-4.000000000000000000e+00,-1.000000000000000000e+00,0.000000000000000000e+00,-4.010620117187500000e-01,1.201171875000000000e-01,7.368774414062500000e-01,5.307006835937500000e-01
1.000000000000000000e+01,5.000000000000000000e+00,-1.000000000000000000e+00,0.000000000000000000e+00,1.000000000000000000e+00,-4.000000000000000000e+00,-6.000000000000000000e+00,2.000000000000000000e+00,-4.010620117187500000e-01,1.201171875000000000e-01,7.368774414062500000e-01,5.307006835937500000e-01
-5.000000000000000000e+00,-1.000000000000000000e+01,-8.000000000000000000e+00,-1.400000000000000000e+01,-8.000000000000000000e+00,1.000000000000000000e+00,0.000000000000000000e+00,-2.000000000000000000e+00,-4.010620117187500000e-01,1.201171875000000000e-01,7.368774414062500000e-01,5.307006835937500000e-01
3.000000000000000000e+00,9.000000000000000000e+00,1.300000000000000000e+01,9.000000000000000000e+00,4.000000000000000000e+00,5.000000000000000000e+00,1.500000000000000000e+01,1.000000000000000000e+00,-4.010620117187500000e-01,1.201171875000000000e-01,7.368774414062500000e-01,5.307006835937500000e-01
-9.000000000000000000e+00,-8.000000000000000000e+00,-2.000000000000000000e+01,1.500000000000000000e+01,6.000000000000000000e+00,-1.000000000000000000e+00,-2.300000000000000000e+01,-3.000000000000000000e+00,-4.030761718750000000e-01,1.173095703125000000e-01,7.377319335937500000e-01,5.286254882812500000e-01
3.000000000000000000e+00,4.000000000000000000e+00,3.300000000000000000e+01,-4.000000000000000000e+00,-1.000000000000000000e+00,-2.000000000000000000e+00,-1.000000000000000000e+00,1.000000000000000000e+00,-4.030761718750000000e-01,1.173095703125000000e-01,7.377319335937500000e-01,5.286254882812500000e-01
6.000000000000000000e+00,1.300000000000000000e+01,0.000000000000000000e+00,9.000000000000000000e+00,4.000000000000000000e+00,-1.000000000000000000e+00,-1.000000000000000000e+00,2.000000000000000000e+00,-4.030761718750000000e-01,1.173095703125000000e-01,7.377319335937500000e-01,5.286254882812500000e-01
-1.000000000000000000e+01,-1.200000000000000000e+01,-1.600000000000000000e+01,-1.200000000000000000e+01,-7.000000000000000000e+00,-2.100000000000000000e+01,-1.800000000000000000e+01,-3.000000000000000000e+00,-4.030761718750000000e-01,1.173095703125000000e-01,7.377319335937500000e-01,5.286254882812500000e-01
1.000000000000000000e+00,-1.000000000000000000e+00,1.200000000000000000e+01,1.000000000000000000e+00,2.000000000000000000e+00,1.100000000000000000e+01,1.700000000000000000e+01,9.000000000000000000e+00,-4.055175781250000000e-01,1.137695312500000000e-01,7.386474609375000000e-01,5.262451171875000000e-01
-4.000000000000000000e+00,-4.000000000000000000e+00,-1.100000000000000000e+01,4.000000000000000000e+00,5.000000000000000000e+00,1.100000000000000000e+01,9.000000000000000000e+00,-3.000000000000000000e+00,-4.055175781250000000e-01,1.137695312500000000e-01,7.386474609375000000e-01,5.262451171875000000e-01
3.000000000000000000e+00,3.000000000000000000e+00,1.200000000000000000e+01,-5.000000000000000000e+00,-4.000000000000000000e+00,-4.000000000000000000e+00,-5.000000000000000000e+00,3.000000000000000000e+00,-4.055175781250000000e-01,1.137695312500000000e-01,7.386474609375000000e-01,5.262451171875000000e-01
3.000000000000000000e+00,7.000000000000000000e+00,4.000000000000000000e+00,3.000000000000000000e+00,-1.000000000000000000e+00,-2.000000000000000000e+00,0.000000000000000000e+00,-4.000000000000000000e+00,-4.055175781250000000e-01,1.137695312500000000e-01,7.386474609375000000e-01,5.262451171875000000e-01
3.000000000000000000e+00,-3.000000000000000000e+00,-4.000000000000000000e+00,6.000000000000000000e+00,9.000000000000000000e+00,2.000000000000000000e+00,9.000000000000000000e+00,5.000000000000000000e+00,-4.072265625000000000e-01,1.118164062500000000e-01,7.388305664062500000e-01,5.250854492187500000e-01
-4.000000000000000000e+00,-2.000000000000000000e+00,-1.000000000000000000e+00,-8.000000000000000000e+00,-4.000000000000000000e+00,-5.000000000000000000e+00,-1.000000000000000000e+01,-4.000000000000000000e+00,-4.072265625000000000e-01,1.118164062500000000e-01,7.388305664062500000e-01,5.250854492187500000e-01
0.000000000000000000e+00,7.000000000000000000e+00,-1.000000000000000000e+00,7.000000000000000000e+00,1.000000000000000000e+00,1.000000000000000000e+00,6.000000000000000000e+00,-1.000000000000000000e+00,-4.072265625000000000e-01,1.118164062500000000e-01,7.388305664062500000e-01,5.250854492187500000e-01
3.000000000000000000e+00,-1.000000000000000000e+00,-6.000000000000000000e+00,-6.000000000000000000e+00,-6.000000000000000000e+00,1.000000000000000000e+00,2.000000000000000000e+00,3.000000000000000000e+00,-4.072265625000000000e-01,1.118164062500000000e-01,7.388305664062500000e-01,5.250854492187500000e-01
2.000000000000000000e+00,-4.000000000000000000e+00,2.000000000000000000e+00,-1.000000000000000000e+00,-1.000000000000000000e+00,-4.000000000000000000e+00,-4.000000000000000000e+00,1.000000000000000000e+00,-4.079589843750000000e-01,1.137084960937500000e-01,7.376708984375000000e-01,5.257568359375000000e-01
-1.000000000000000000e+00,-2.000000000000000000e+00,-8.000000000000000000e+00,-6.000000000000000000e+00,-2.000000000000000000e+00,2.000000000000000000e+00,3.000000000000000000e+00,-2.000000000000000000e+00,-4.079589843750000000e-01,1.137084960937500000e-01,7.376708984375000000e-01,5.257568359375000000e-01
-4.000000000000000000e+00,-1.000000000000000000e+00,1.000000000000000000e+00,0.000000000000000000e+00,-4.000000000000000000e+00,-1.000000000000000000e+00,-3.000000000000000000e+00,-4.000000000000000000e+00,-4.079589843750000000e-01,1.137084960937500000e-01,7.376708984375000000e-01,5.257568359375000000e-01
-1.000000000000000000e+00,-1.000000000000000000e+00,3.000000000000000000e+00,8.000000000000000000e+00,4.000000000000000000e+00,1.000000000000000000e+00,-2.000000000000000000e+00,-3.000000000000000000e+00,-4.079589843750000000e-01,1.137084960937500000e-01,7.376708984375000000e-01,5.257568359375000000e-01
-3.000000000000000000e+00,-1.000000000000000000e+00,8.000000000000000000e+00,4.000000000000000000e+00,-1.000000000000000000e+00,-3.000000000000000000e+00,-2.000000000000000000e+00,-5.000000000000000000e+00,-4.085693359375000000e-01,1.174926757812500000e-01,7.362670898437500000e-01,5.264282226562500000e-01
1.000000000000000000e+00,2.000000000000000000e+00,-5.000000000000000000e+00,-2.200000000000000000e+01,-5.000000000000000000e+00,-4.000000000000000000e+00,-2.000000000000000000e+00,-2.000000000000000000e+00,-4.085693359375000000e-01,1.174926757812500000e-01,7.362670898437500000e-01,5.264282226562500000e-01
-4.000000000000000000e+00,-4.000000000000000000e+00,-1.200000000000000000e+01,-2.000000000000000000e+00,-3.000000000000000000e+00,-1.000000000000000000e+00,1.000000000000000000e+00,1.000000000000000000e+00,-4.085693359375000000e-01,1.174926757812500000e-01,7.362670898437500000e-01,5.264282226562500000e-01
-3.000000000000000000e+00,-8.000000000000000000e+00,-9.000000000000000000e+00,-2.000000000000000000e+00,-1.000000000000000000e+00,1.000000000000000000e+00,-3.000000000000000000e+00,-3.000000000000000000e+00,-4.085693359375000000e-01,1.174926757812500000e-01,7.362670898437500000e-01,5.264282226562500000e-01
1.000000000000000000e+00,5.000000000000000000e+00,1.200000000000000000e+01,1.000000000000000000e+01,4.000000000000000000e+00,2.000000000000000000e+00,1.000000000000000000e+00,-3.000000000000000000e+00,-4.100952148437500000e-01,1.195678710937500000e-01,7.355957031250000000e-01,5.257568359375000000e-01
0.000000000000000000e+00,-3.000000000000000000e+00,0.000000000000000000e+00,-2.000000000000000000e+00,-2.000000000000000000e+00,0.000000000000000000e+00,-1.000000000000000000e+00,2.000000000000000000e+00,-4.100952148437500000e-01,1.195678710937500000e-01,7.355957031250000000e-01,5.257568359375000000e-01
-4.000000000000000000e+00,-6.000000000000000000e+00,-3.000000000000000000e+00,-1.000000000000000000e+01,0.000000000000000000e+00,-5.000000000000000000e+00,-6.000000000000000000e+00,-5.000000000000000000e+00,-4.100952148437500000e-01,1.195678710937500000e-01,7.355957031250000000e-01,5.257568359375000000e-01
-7.000000000000000000e+00,3.000000000000000000e+00,4.000000000000000000e+00,7.000000000000000000e+00,-2.000000000000000000e+00,1.000000000000000000e+00,2.000000000000000000e+00,0.000000000000000000e+00,-4.100952148437500000e-01,1.195678710937500000e-01,7.355957031250000000e-01,5.257568359375000000e-01
-9.000000000000000000e+00,-6.000000000000000000e+00,-6.000000000000000000e+00,1.000000000000000000e+00,1.000000000000000000e+00,-1.000000000000000000e+00,-1.000000000000000000e+00,-4.000000000000000000e+00,-4.118652343750000000e-01,1.201782226562500000e-01,7.354125976562500000e-01,5.244140625000000000e-01
1.600000000000000000e+01,0.000000000000000000e+00,-1.300000000000000000e+01,0.000000000000000000e+00,-2.000000000000000000e+00,-1.000000000000000000e+00,-1.000000000000000000e+00,6.000000000000000000e+00,-4.118652343750000000e-01,1.201782226562500000e-01,7.354125976562500000e-01,5.244140625000000000e-01
-7.000000000000000000e+00,-1.000000000000000000e+00,9.000000000000000000e+00,3.000000000000000000e+00,-1.000000000000000000e+00,1.000000000000000000e+00,-4.000000000000000000e+00,-5.000000000000000000e+00,-4.118652343750000000e-01,1.201782226562500000e-01,7.354125976562500000e-01,5.244140625000000000e-01
4.000000000000000000e+00,1.000000000000000000e+00,-2.000000000000000000e+00,2.000000000000000000e+00,3.000000000000000000e+00,-3.000000000000000000e+00,1.000000000000000000e+00,-1.000000000000000000e+00,-4.118652343750000000e-01,1.201782226562500000e-01,7.354125976562500000e-01,5.244140625000000000e-01
-7.000000000000000000e+00,-5.000000000000000000e+00,0.000000000000000000e+00,-5.000000000000000000e+00,-4.000000000000000000e+00,-1.000000000000000000e+00,2.000000000000000000e+00,-2.000000000000000000e+00,-4.134521484375000000e-01,1.201782226562500000e-01,7.354736328125000000e-01,5.230712890625000000e-01
-9.000000000000000000e+00,-2.000000000000000000e+00,3.000000000000000000e+00,8.000000000000000000e+00,2.000000000000000000e+00,-6.000000000000000000e+00,-1.700000000000000000e+01,-4.000000000000000000e+00,-4.134521484375000000e-01,1.201782226562500000e-01,7.354736328125000000e-01,5.230712890625000000e-01
4.000000000000000000e+00,-1.000000000000000000e+00,3.000000000000000000e+00,-2.000000000000000000e+00,0.000000000000000000e+00,1.000000000000000000e+00,7.000000000000000000e+00,5.000000000000000000e+00,-4.134521484375000000e-01,1.201782226562500000e-01,7.354736328125000000e-01,5.230712890625000000e-01
3.000000000000000000e+00,6.000000000000000000e+00,1.000000000000000000e+00,3.000000000000000000e+00,1.000000000000000000e+00,1.000000000000000000e+00,1.100000000000000000e+01,1.000000000000000000e+00,-4.134521484375000000e-01,1.201782226562500000e-01,7.354736328125000000e-01,5.230712890625000000e-01
-2.000000000000000000e+00,-5.000000000000000000e+00,3.000000000000000000e+00,-4.000000000000000000e+00,-2.000000000000000000e+00,-4.000000000000000000e+00,-6.000000000000000000e+00,-5.000000000000000000e+00,-4.146728515625000000e-01,1.200561523437500000e-01,7.357788085937500000e-01,5.217285156250000000e-01
-3.000000000000000000e+00,-1.000000000000000000e+00,-2.500000000000000000e+01,-1.300000000000000000e+01,-4.000000000000000000e+00,-3.000000000000000000e+00,0.000000000000000000e+00,-3.000000000000000000e+00,-4.146728515625000000e-01,1.200561523437500000e-01,7.357788085937500000e-01,5.217285156250000000e-01
1.000000000000000000e+00,3.000000000000000000e+00,1.000000000000000000e+00,1.200000000000000000e+01,4.000000000000000000e+00,-1.000000000000000000e+00,-5.000000000000000000e+00,-3.000000000000000000e+00,-4.146728515625000000e-01,1.200561523437500000e-01,7.357788085937500000e-01,5.217285156250000000e-01
1.000000000000000000e+00,2.000000000000000000e+00,-6.000000000000000000e+00,-6.000000000000000000e+00,-1.000000000000000000e+00,-2.000000000000000000e+00,-3.000000000000000000e+00,-1.000000000000000000e+00,-4.146728515625000000e-01,1.200561523437500000e-01,7.357788085937500000e-01,5.217285156250000000e-01
1.000000000000000000e+00,-1.000000000000000000e+00,-5.000000000000000000e+00,-1.500000000000000000e+01,-5.000000000000000000e+00,-2.000000000000000000e+00,-3.000000000000000000e+00,-2.000000000000000000e+00,-4.157714843750000000e-01,1.197509765625000000e-01,7.362060546875000000e-01,5.203247070312500000e-01
-3.000000000000000000e+00,-5.000000000000000000e+00,1.000000000000000000e+00,7.000000000000000000e+00,3.000000000000000000e+00,3.000000000000000000e+00,1.000000000000000000e+00,-2.000000000000000000e+00,-4.157714843750000000e-01,1.197509765625000000e-01,7.362060546875000000e-01,5.203247070312500000e-01
-2.000000000000000000e+00,5.000000000000000000e+00,2.000000000000000000e+00,5.000000000000000000e+00,-6.000000000000000000e+00,-6.000000000000000000e+00,-1.000000000000000000e+00,1.000000000000000000e+00,-4.157714843750000000e-01,1.197509765625000000e-01,7.362060546875000000e-01,5.203247070312500000e-01
-5.000000000000000000e+00,-1.000000000000000000e+01,-1.900000000000000000e+01,-8.000000000000000000e+00,-4.000000000000000000e+00,4.000000000000000000e+00,-6.000000000000000000e+00,-3.000000000000000000e+00,-4.157714843750000000e-01,1.197509765625000000e-01,7.362060546875000000e-01,5.203247070312500000e-01
3.000000000000000000e+00,3.000000000000000000e+00,6.000000000000000000e+00,-1.000000000000000000e+00,4.000000000000000000e+00,-1.000000000000000000e+00,-2.000000000000000000e+00,-2.000000000000000000e+00,-4.167480468750000000e-01,1.192626953125000000e-01,7.363281250000000000e-01,5.195312500000000000e-01
-3.000000000000000000e+00,-2.000000000000000000e+00,0.000000000000000000e+00,4.000000000000000000e+00,-3.000000000000000000e+00,-3.000000000000000000e+00,1.000000000000000000e+00,-1.000000000000000000e+00,-4.167480468750000000e-01,1.192626953125000000e-01,7.363281250000000000e-01,5.195312500000000000e-01
-5.000000000000000000e+00,-9.000000000000000000e+00,-1.000000000000000000e+01,-6.000000000000000000e+00,0.000000000000000000e+00,2.000000000000000000e+00,1.000000000000000000e+00,-3.000000000000000000e+00,-4.167480468750000000e-01,1.192626953125000000e-01,7.363281250000000000e-01,5.195312500000000000e-01
5.000000000000000000e+00,8.000000000000000000e+00,9.000000000000000000e+00,2.000000000000000000e+00,1.000000000000000000e+00,-1.000000000000000000e+00,-3.000000000000000000e+00,4.000000000000000000e+00,-4.167480468750000000e-01,1.192626953125000000e-01,7.363281250000000000e-01,5.195312500000000000e-01
-1.000000000000000000e+00,-1.000000000000000000e+00,-5.000000000000000000e+00,-3.000000000000000000e+00,-5.000000000000000000e+00,0.000000000000000000e+00,-1.000000000000000000e+00,-1.000000000000000000e+00,-4.172973632812500000e-01,1.190795898437500000e-01,7.363891601562500000e-01,5.190429687500000000e-01
-3.000000000000000000e+00,1.000000000000000000e+00,9.000000000000000000e+00,1.000000000000000000e+01,1.000000000000000000e+01,0.000000000000000000e+00,0.000000000000000000e+00,-3.000000000000000000e+00,-4.172973632812500000e-01,1.190795898437500000e-01,7.363891601562500000e-01,5.190429687500000000e-01
-2.000000000000000000e+00,-5.000000000000000000e+00,-1.100000000000000000e+01,-2.400000000000000000e+01,-4.000000000000000000e+00,0.000000000000000000e+00,1.000000000000000000e+00,-1.000000000000000000e+00,-4.172973632812500000e-01,1.190795898437500000e-01,7.363891601562500000e-01,5.190429687500000000e-01
-1.000000000000000000e+00,-3.000000000000000000e+00,6.000000000000000000e+00,5.000000000000000000e+00,-3.000000000000000000e+00,2.000000000000000000e+00,6.000000000000000000e+00,1.000000000000000000e+00,-4.172973632812500000e-01,1.190795898437500000e-01,7.363891601562500000e-01,5.190429687500000000e-01
2.000000000000000000e+00,0.000000000000000000e+00,-1.000000000000000000e+00,7.000000000000000000e+00,2.000000000000000000e+00,-6.000000000000000000e+00,-1.000000000000000000e+01,0.000000000000000000e+00,-4.174194335937500000e-01,1.191406250000000000e-01,7.366943359375000000e-01,5.184326171875000000e-01
1.000000000000000000e+00,2.000000000000000000e+00,7.000000000000000000e+00,2.000000000000000000e+00,-1.000000000000000000e+00,5.000000000000000000e+00,1.000000000000000000e+01,0.000000000000000000e+00,-4.174194335937500000e-01,1.191406250000000000e-01,7.366943359375000000e-01,5.184326171875000000e-01
-7.000000000000000000e+00,-1.000000000000000000e+01,-7.000000000000000000e+00,-6.000000000000000000e+00,-1.000000000000000000e+00,1.000000000000000000e+00,0.000000000000000000e+00,-4.000000000000000000e+00,-4.174194335937500000e-01,1.191406250000000000e-01,7.366943359375000000e-01,5.184326171875000000e-01
0.000000000000000000e+00,-4.000000000000000000e+00,4.000000000000000000e+00,-1.100000000000000000e+01,-3.000000000000000000e+00,-5.000000000000000000e+00,-5.000000000000000000e+00,-2.000000000000000000e+00,-4.174194335937500000e-01,1.191406250000000000e-01,7.366943359375000000e-01,5.184326171875000000e-01
3.000000000000000000e+00,7.000000000000000000e+00,8.000000000000000000e+00,1.500000000000000000e+01,3.000000000000000000e+00,2.000000000000000000e+00,3.000000000000000000e+00,2.000000000000000000e+00,-4.176025390625000000e-01,1.186523437500000000e-01,7.372436523437500000e-01,5.176391601562500000e-01
-7.000000000000000000e+00,-2.000000000000000000e+00,-1.400000000000000000e+01,-2.400000000000000000e+01,-5.000000000000000000e+00,-1.000000000000000000e+00,1.000000000000000000e+00,0.000000000000000000e+00,-4.176025390625000000e-01,1.186523437500000000e-01,7.372436523437500000e-01,5.176391601562500000e-01
4.000000000000000000e+00,3.000000000000000000e+00,2.000000000000000000e+00,4.000000000000000000e+00,1.000000000000000000e+00,-1.000000000000000000e+00,-2.000000000000000000e+00,-1.000000000000000000e+00,-4.176025390625000000e-01,1.186523437500000000e-01,7.372436523437500000e-01,5.176391601562500000e-01
-5.000000000000000000e+00,-9.000000000000000000e+00,4.000000000000000000e+00,-2.000000000000000000e+00,-4.000000000000000000e+00,-4.000000000000000000e+00,-7.000000000000000000e+00,-5.000000000000000000e+00,-4.176025390625000000e-01,1.186523437500000000e-01,7.372436523437500000e-01,5.176391601562500000e-01
2.000000000000000000e+00,4.000000000000000000e+00,-8.000000000000000000e+00,1.000000000000000000e+00,0.000000000000000000e+00,2.000000000000000000e+00,3.000000000000000000e+00,0.000000000000000000e+00,-4.175415039062500000e-01,1.179809570312500000e-01,7.376708984375000000e-01,5.172119140625000000e-01
-2.000000000000000000e+00,1.000000000000000000e+00,0.000000000000000000e+00,4.000000000000000000e+00,-3.000000000000000000e+00,-5.000000000000000000e+00,-3.000000000000000000e+00,0.000000000000000000e+00,-4.175415039062500000e-01,1.179809570312500000e-01,7.376708984375000000e-01,5.172119140625000000e-01
0.000000000000000000e+00,2.000000000000000000e+00,1.000000000000000000e+01,-7.000000000000000000e+00,-2.000000000000000000e+00,1.000000000000000000e+00,1.000000000000000000e+00,1.000000000000000000e+00,-4.175415039062500000e-01,1.179809570312500000e-01,7.376708984375000000e-01,5.172119140625000000e-01
2.000000000000000000e+00,-1.000000000000000000e+00,-3.000000000000000000e+00,7.000000000000000000e+00,0.000000000000000000e+00,0.000000000000000000e+00,-1.000000000000000000e+00,0.000000000000000000e+00,-4.175415039062500000e-01,1.179809570312500000e-01,7.376708984375000000e-01,5.172119140625000000e-01
-3.000000000000000000e+00,-3.000000000000000000e+00,1.200000000000000000e+01,-8.000000000000000000e+00,1.000000000000000000e+00,-2.000000000000000000e+00,-1.000000000000000000e+00,-2.000000000000000000e+00,-4.174804687500000000e-01,1.177368164062500000e-01,7.379150390625000000e-01,5.169067382812500000e-01
-3.000000000000000000e+00,-6.000000000000000000e+00,-1.300000000000000000e+01,2.000000000000000000e+00,-4.000000000000000000e+00,0.000000000000000000e+00,0.000000000000000000e+00,-1.000000000000000000e+00,-4.174804687500000000e-01,1.177368164062500000e-01,7.379150390625000000e-01,5.169067382812500000e-01
-4.000000000000000000e+00,-3.000000000000000000e+00,-5.000000000000000000e+00,6.000000000000000000e+00,1.000000000000000000e+00,-3.000000000000000000e+00,-6.000000000000000000e+00,-2.000000000000000000e+00,-4.174804687500000000e-01,1.177368164062500000e-01,7.379150390625000000e-01,5.169067382812500000e-01
1.000000000000000000e+00,5.000000000000000000e+00,1.200000000000000000e+01,1.300000000000000000e+01,6.000000000000000000e+00,1.000000000000000000e+00,-1.000000000000000000e+00,-1.000000000000000000e+00,-4.174804687500000000e-01,1.177368164062500000e-01,7.379150390625000000e-01,5.169067382812500000e-01
-1.000000000000000000e+00,0.000000000000000000e+00,-7.000000000000000000e+00,-2.400000000000000000e+01,-7.000000000000000000e+00,-2.000000000000000000e+00,0.000000000000000000e+00,-1.000000000000000000e+00,-4.179687500000000000e-01,1.171875000000000000e-01,7.380371093750000000e-01,5.165405273437500000e-01
-3.000000000000000000e+00,-1.000000000000000000e+00,4.000000000000000000e+00,3.000000000000000000e+00,-1.000000000000000000e+00,-2.000000000000000000e+00,-4.000000000000000000e+00,-1.000000000000000000e+00,-4.179687500000000000e-01,1.171875000000000000e-01,7.380371093750000000e-01,5.165405273437500000e-01
0.000000000000000000e+00,-1.000000000000000000e+00,1.000000000000000000e+00,1.000000000000000000e+00,-3.000000000000000000e+00,-1.000000000000000000e+00,-2.000000000000000000e+00,-1.000000000000000000e+00,-4.179687500000000000e-01,1.171875000000000000e-01,7.380371093750000000e-01,5.165405273437500000e-01
0.000000000000000000e+00,1.000000000000000000e+00,3.000000000000000000e+00,5.000000000000000000e+00,0.000000000000000000e+00,3.000000000000000000e+00,0.000000000000000000e+00,1.000000000000000000e+00,-4.179687500000000000e-01,1.171875000000000000e-01,7.380371093750000000e-01,5.165405273437500000e-01
-3.000000000000000000e+00,-1.000000000000000000e+00,-1.000000000000000000e+01,-1.200000000000000000e+01,-5.000000000000000000e+00,-5.000000000000000000e+00,-3.000000000000000000e+00,-3.000000000000000000e+00,-4.179687500000000000e-01,1.175537109375000000e-01,7.379760742187500000e-01,5.165405273437500000e-01
-8.000000000000000000e+00,-1.700000000000000000e+01,-3.000000000000000000e+00,-1.000000000000000000e+01,-4.000000000000000000e+00,-4.000000000000000000e+00,-2.000000000000000000e+00,-3.000000000000000000e+00,-4.179687500000000000e-01,1.175537109375000000e-01,7.379760742187500000e-01,5.165405273437500000e-01
0.000000000000000000e+00,1.000000000000000000e+00,1.800000000000000000e+01,1.600000000000000000e+01,1.000000000000000000e+00,-1.000000000000000000e+00,-5.000000000000000000e+00,0.000000000000000000e+00,-4.179687500000000000e-01,1.175537109375000000e-01,7.379760742187500000e-01,5.165405273437500000e-01
4.000000000000000000e+00,3.000000000000000000e+00,-1.300000000000000000e+01,-2.800000000000000000e+01,-5.000000000000000000e+00,2.000000000000000000e+00,-2.000000000000000000e+00,1.000000000000000000e+00,-4.179687500000000000e-01,1.175537109375000000e-01,7.379760742187500000e-01,5.165405273437500000e-01
-3.000000000000000000e+00,-3.000000000000000000e+00,1.000000000000000000e+00,3.000000000000000000e+00,-1.000000000000000000e+00,-5.000000000000000000e+00,-3.000000000000000000e+00,-3.000000000000000000e+00,-4.174804687500000000e-01,1.187133789062500000e-01,7.378540039062500000e-01,5.168457031250000000e-01
1.000000000000000000e+00,5.000000000000000000e+00,7.000000000000000000e+00,7.000000000000000000e+00,3.000000000000000000e+00,6.000000000000000000e+00,3.000000000000000000e+00,2.000000000000000000e+00,-4.174804687500000000e-01,1.187133789062500000e-01,7.378540039062500000e-01,5.168457031250000000e-01
-2.000000000000000000e+00,-3.000000000000000000e+00,-4.000000000000000000e+00,5.000000000000000000e+00,0.000000000000000000e+00,-3.000000000000000000e+00,-1.000000000000000000e+00,-1.000000000000000000e+00,-4.174804687500000000e-01,1.187133789062500000e-01,7.378540039062500000e-01,5.168457031250000000e-01
-2.000000000000000000e+00,3.000000000000000000e+00,8.000000000000000000e+00,-1.000000000000000000e+00,0.000000000000000000e+00,-1.000000000000000000e+00,1.000000000000000000e+00,-1.400000000000000000e+01,-4.174804687500000000e-01,1.187133789062500000e-01,7.378540039062500000e-01,5.168457031250000000e-01
0.000000000000000000e+00,-2.000000000000000000e+00,-1.100000000000000000e+01,4.000000000000000000e+00,-2.000000000000000000e+00,3.000000000000000000e+00,4.000000000000000000e+00,2.000000000000000000e+00,-4.170532226562500000e-01,1.198730468750000000e-01,7.379150390625000000e-01,5.167846679687500000e-01
-1.000000000000000000e+00,-4.000000000000000000e+00,8.000000000000000000e+00,8.000000000000000000e+00,-3.000000000000000000e+00,-3.000000000000000000e+00,-8.000000000000000000e+00,-1.000000000000000000e+00,-4.170532226562500000e-01,1.198730468750000000e-01,7.379150390625000000e-01,5.167846679687500000e-01
-1.000000000000000000e+00,3.000000000000000000e+00,-2.000000000000000000e+00,-1.300000000000000000e+01,-1.000000000000000000e+00,0.000000000000000000e+00,3.000000000000000000e+00,-2.000000000000000000e+00,-4.170532226562500000e-01,1.198730468750000000e-01,7.379150390625000000e-01,5.167846679687500000e-01
-8.000000000000000000e+00,-8.000000000000000000e+00,-1.500000000000000000e+01,-1.200000000000000000e+01,-4.000000000000000000e+00,-2.000000000000000000e+00,-1.000000000000000000e+00,3.000000000000000000e+00,-4.170532226562500000e-01,1.198730468750000000e-01,7.379150390625000000e-01,5.167846679687500000e-01
3.000000000000000000e+00,1.000000000000000000e+00,5.000000000000000000e+00,4.000000000000000000e+00,1.000000000000000000e+00,-2.000000000000000000e+00,-4.000000000000000000e+00,-2.000000000000000000e+00,-4.172363281250000000e-01,1.199340820312500000e-01,7.382812500000000000e-01,5.161132812500000000e-01
4.000000000000000000e+00,3.000000000000000000e+00,2.000000000000000000e+00,-8.000000000000000000e+00,-2.000000000000000000e+00,-2.000000000000000000e+00,-1.000000000000000000e+00,-3.000000000000000000e+00,-4.172363281250000000e-01,1.199340820312500000e-01,7.382812500000000000e-01,5.161132812500000000e-01
1.000000000000000000e+00,-2.000000000000000000e+00,-5.000000000000000000e+00,-7.000000000000000000e+00,-1.000000000000000000e+00,0.000000000000000000e+00,0.000000000000000000e+00,1.000000000000000000e+00,-4.172363281250000000e-01,1.199340820312500000e-01,7.382812500000000000e-01,5.161132812500000000e-01
-1.000000000000000000e+00,0.000000000000000000e+00,5.000000000000000000e+00,5.000000000000000000e+00,2.000000000000000000e+00,1.000000000000000000e+00,-3.000000000000000000e+00,-1.000000000000000000e+00,-4.172363281250000000e-01,1.199340820312500000e-01,7.382812500000000000e-01,5.161132812500000000e-01
-4.000000000000000000e+00,-2.000000000000000000e+00,3.000000000000000000e+00,6.000000000000000000e+00,-3.000000000000000000e+00,2.000000000000000000e+00,0.000000000000000000e+00,-3.000000000000000000e+00,-4.177246093750000000e-01,1.196899414062500000e-01,7.385253906250000000e-01,5.155029296875000000e-01
-4.000000000000000000e+00,-8.000000000000000000e+00,-1.600000000000000000e+01,-7.000000000000000000e+00,-3.000000000000000000e+00,-2.000000000000000000e+00,1.000000000000000000e+00,-1.000000000000000000e+00,-4.177246093750000000e-01,1.196899414062500000e-01,7.385253906250000000e-01,5.155029296875000000e-01
1.000000000000000000e+00,0.000000000000000000e+00,-3.000000000000000000e+00,-4.000000000000000000e+00,-1.000000000000000000e+00,-1.000000000000000000e+00,-1.000000000000000000e+00,1.000000000000000000e+00,-4.177246093750000000e-01,1.196899414062500000e-01,7.385253906250000000e-01,5.155029296875000000e-01
0.000000000000000000e+00,-1.000000000000000000e+00,-6.000000000000000000e+00,-2.000000000000000000e+00,-2.000000000000000000e+00,0.000000000000000000e+00,3.000000000000000000e+00,3.000000000000000000e+00,-4.177246093750000000e-01,1.196899414062500000e-01,7.385253906250000000e-01,5.155029296875000000e-01
0.000000000000000000e+00,3.000000000000000000e+00,3.000000000000000000e+00,5.000000000000000000e+00,-2.000000000000000000e+00,0.000000000000000000e+00,0.000000000000000000e+00,-3.000000000000000000e+00,-4.181518554687500000e-01,1.195678710937500000e-01,7.384033203125000000e-01,5.153198242187500000e-01
-1.000000000000000000e+00,3.000000000000000000e+00,9.000000000000000000e+00,6.000000000000000000e+00,2.000000000000000000e+00,0.000000000000000000e+00,-1.000000000000000000e+00,-2.000000000000000000e+00,-4.181518554687500000e-01,1.195678710937500000e-01,7.384033203125000000e-01,5.153198242187500000e-01
2.000000000000000000e+00,-3.000000000000000000e+00,-1.500000000000000000e+01,-1.900000000000000000e+01,-5.000000000000000000e+00,3.000000000000000000e+00,-1.000000000000000000e+00,0.000000000000000000e+00,-4.181518554687500000e-01,1.195678710937500000e-01,7.384033203125000000e-01,5.153198242187500000e-01
-1.000000000000000000e+00,-3.000000000000000000e+00,2.000000000000000000e+00,5.000000000000000000e+00,0.000000000000000000e+00,-2.000000000000000000e+00,2.000000000000000000e+00,1.000000000000000000e+00,-4.181518554687500000e-01,1.195678710937500000e-01,7.384033203125000000e-01,5.153198242187500000e-01
0.000000000000000000e+00,4.000000000000000000e+00,3.000000000000000000e+00,-4.000000000000000000e+00,-1.000000000000000000e+00,-2.000000000000000000e+00,-1.000000000000000000e+01,-1.000000000000000000e+00,-4.184570312500000000e-01,1.201782226562500000e-01,7.379760742187500000e-01,5.155029296875000000e-01
2.000000000000000000e+00,6.000000000000000000e+00,6.000000000000000000e+00,7.000000000000000000e+00,2.000000000000000000e+00,-1.000000000000000000e+00,-2.000000000000000000e+00,-1.000000000000000000e+00,-4.184570312500000000e-01,1.201782226562500000e-01,7.379760742187500000e-01,5.155029296875000000e-01
-4.000000000000000000e+00,-7.000000000000000000e+00,-2.000000000000000000e+00,-6.000000000000000000e+00,-2.000000000000000000e+00,-3.000000000000000000e+00,-3.000000000000000000e+00,-2.000000000000000000e+00,-4.184570312500000000e-01,1.201782226562500000e-01,7.379760742187500000e-01,5.155029296875000000e-01
3.000000000000000000e+00,2.000000000000000000e+00,9.000000000000000000e+00,1.200000000000000000e+01,2.000000000000000000e+00,-2.000000000000000000e+00,-3.000000000000000000e+00,2.000000000000000000e+00,-4.184570312500000000e-01,1.201782226562500000e-01,7.379760742187500000e-01,5.155029296875000000e-01
-3.000000000000000000e+00,-1.200000000000000000e+01,-3.300000000000000000e+01,-2.100000000000000000e+01,-3.000000000000000000e+00,9.000000000000000000e+00,8.000000000000000000e+00,-1.000000000000000000e+00,-4.188842773437500000e-01,1.207275390625000000e-01,7.376708984375000000e-01,5.155029296875000000e-01
-3.000000000000000000e+00,-1.000000000000000000e+00,4.000000000000000000e+00,-4.000000000000000000e+00,-1.000000000000000000e+00,-2.000000000000000000e+00,2.000000000000000000e+00,-1.000000000000000000e+00,-4.188842773437500000e-01,1.207275390625000000e-01,7.376708984375000000e-01,5.155029296875000000e-01
-4.000000000000000000e+00,5.000000000000000000e+00,-5.000000000000000000e+00,9.000000000000000000e+00,-1.000000000000000000e+00,-2.000000000000000000e+00,-1.000000000000000000e+00,-2.000000000000000000e+00,-4.188842773437500000e-01,1.207275390625000000e-01,7.376708984375000000e-01,5.155029296875000000e-01
1.000000000000000000e+00,-3.000000000000000000e+00,3.000000000000000000e+00,0.000000000000000000e+00,0.000000000000000000e+00,-5.000000000000000000e+00,-2.000000000000000000e+00,0.000000000000000000e+00,-4.188842773437500000e-01,1.207275390625000000e-01,7.376708984375000000e-01,5.155029296875000000e-01
6.000000000000000000e+00,5.000000000000000000e+00,9.000000000000000000e+00,1.000000000000000000e+00,-1.000000000000000000e+00,-2.000000000000000000e+00,-1.000000000000000000e+00,1.000000000000000000e+00,-4.197387695312500000e-01,1.202392578125000000e-01,7.372436523437500000e-01,5.155029296875000000e-01
0.000000000000000000e+00,1.000000000000000000e+00,-8.000000000000000000e+00,-7.000000000000000000e+00,-1.000000000000000000e+00,-1.000000000000000000e+00,5.000000000000000000e+00,-1.000000000000000000e+00,-4.197387695312500000e-01,1.202392578125000000e-01,7.372436523437500000e-01,5.155029296875000000e-01
-6.000000000000000000e+00,-1.100000000000000000e+01,-2.000000000000000000e+00,4.000000000000000000e+00,-1.000000000000000000e+00,-2.000000000000000000e+00,-1.000000000000000000e+00,-3.000000000000000000e+00,-4.197387695312500000e-01,1.202392578125000000e-01,7.372436523437500000e-01,5.155029296875000000e-01
-5.000000000000000000e+00,1.000000000000000000e+00,9.000000000000000000e+00,-1.000000000000000000e+00,-1.000000000000000000e+00,-5.000000000000000000e+00,-7.000000000000000000e+00,-5.000000000000000000e+00,-4.197387695312500000e-01,1.202392578125000000e-01,7.372436523437500000e-01,5.155029296875000000e-01
0.000000000000000000e+00,-3.000000000000000000e+00,-3.000000000000000000e+00,7.000000000000000000e+00,2.000000000000000000e+00,-3.000000000000000000e+00,2.000000000000000000e+00,3.000000000000000000e+00,-4.200439453125000000e-01,1.201782226562500000e-01,7.367553710937500000e-01,5.159912109375000000e-01
1.000000000000000000e+00,3.000000000000000000e+00,-1.000000000000000000e+00,-4.000000000000000000e+00,2.000000000000000000e+00,-1.000000000000000000e+00,0.000000000000000000e+00,-2.000000000000000000e+00,-4.200439453125000000e-01,1.201782226562500000e-01,7.367553710937500000e-01,5.159912109375000000e-01
0.000000000000000000e+00,0.000000000000000000e+00,-2.000000000000000000e+00,4.000000000000000000e+00,-1.000000000000000000e+00,-1.100000000000000000e+01,-3.000000000000000000e+00,1.000000000000000000e+01,-4.200439453125000000e-01,1.201782226562500000e-01,7.367553710937500000e-01,5.159912109375000000e-01
1.000000000000000000e+00,6.000000000000000000e+00,-8.000000000000000000e+00,-3.000000000000000000e+00,1.000000000000000000e+00,1.600000000000000000e+01,9.000000000000000000e+00,-6.000000000000000000e+00,-4.200439453125000000e-01,1.201782226562500000e-01,7.367553710937500000e-01,5.159912109375000000e-01
5.000000000000000000e+00,-8.000000000000000000e+00,-5.000000000000000000e+00,4.000000000000000000e+00,-1.000000000000000000e+00,-1.000000000000000000e+00,3.000000000000000000e+00,6.000000000000000000e+00,-4.198608398437500000e-01,1.206665039062500000e-01,7.363281250000000000e-01,5.166625976562500000e-01
0.000000000000000000e+00,0.000000000000000000e+00,-8.000000000000000000e+00,0.000000000000000000e+00,1.000000000000000000e+00,-2.000000000000000000e+00,-6.000000000000000000e+00,-3.000000000000000000e+00,-4.198608398437500000e-01,1.206665039062500000e-01,7.363281250000000000e-01,5.166625976562500000e-01
1.000000000000000000e+00,-1.000000000000000000e+00,4.000000000000000000e+00,4.000000000000000000e+00,-2.000000000000000000e+00,-6.000000000000000000e+00,-5.000000000000000000e+00,-3.000000000000000000e+00,-4.198608398437500000e-01,1.206665039062500000e-01,7.363281250000000000e-01,5.166625976562500000e-01
-1.400000000000000000e+01,0.000000000000000000e+00,-7.000000000000000000e+00,-8.000000000000000000e+00,-1.000000000000000000e+00,0.000000000000000000e+00,3.000000000000000000e+00,9.000000000000000000e+00,-4.198608398437500000e-01,1.206665039062500000e-01,7.363281250000000000e-01,5.166625976562500000e-01
1.100000000000000000e+01,2.000000000000000000e+00,-5.000000000000000000e+00,-1.000000000000000000e+00,-2.000000000000000000e+00,3.000000000000000000e+00,3.000000000000000000e+00,-7.000000000000000000e+00,-4.202880859375000000e-01,1.208496093750000000e-01,7.360839843750000000e-01,5.166015625000000000e-01
-3.000000000000000000e+00,-4.000000000000000000e+00,-1.000000000000000000e+00,-2.000000000000000000e+00,-3.000000000000000000e+00,-1.000000000000000000e+00,-1.000000000000000000e+00,1.000000000000000000e+00,-4.202880859375000000e-01,1.208496093750000000e-01,7.360839843750000000e-01,5.166015625000000000e-01
3.000000000000000000e+00,5.000000000000000000e+00,1.000000000000000000e+00,1.000000000000000000e+00,1.000000000000000000e+00,1.000000000000000000e+00,0.000000000000000000e+00,-4.000000000000000000e+00,-4.202880859375000000e-01,1.208496093750000000e-01,7.360839843750000000e-01,5.166015625000000000e-01
-6.000000000000000000e+00,-1.500000000000000000e+01,-1.000000000000000000e+01,0.000000000000000000e+00,-5.000000000000000000e+00,-2.000000000000000000e+00,1.400000000000000000e+01,-2.000000000000000000e+00,-4.202880859375000000e-01,1.208496093750000000e-01,7.360839843750000000e-01,5.166015625000000000e-01
-7.000000000000000000e+00,7.000000000000000000e+00,4.000000000000000000e+00,-1.500000000000000000e+01,-2.000000000000000000e+00,-5.000000000000000000e+00,-3.200000000000000000e+01,-2.000000000000000000e+00,-4.208984375000000000e-01,1.208496093750000000e-01,7.357177734375000000e-01,5.166015625000000000e-01
-1.000000000000000000e+00,-9.000000000000000000e+00,-1.200000000000000000e+01,4.000000000000000000e+00,-2.000000000000000000e+00,-5.000000000000000000e+00,-1.000000000000000000e+00,0.000000000000000000e+00,-4.208984375000000000e-01,1.208496093750000000e-01,7.357177734375000000e-01,5.166015625000000000e-01
-2.000000000000000000e+00,-5.000000000000000000e+00,-1.000000000000000000e+00,-9.000000000000000000e+00,-2.000000000000000000e+00,4.000000000000000000e+00,0.000000000000000000e+00,-5.000000000000000000e+00,-4.208984375000000000e-01,1.208496093750000000e-01,7.357177734375000000e-01,5.166015625000000000e-01
2.000000000000000000e+00,0.000000000000000000e+00,-2.000000000000000000e+00,0.000000000000000000e+00,0.000000000000000000e+00,-2.000000000000000000e+00,-3.000000000000000000e+00,-1.000000000000000000e+00,-4.208984375000000000e-01,1.208496093750000000e-01,7.357177734375000000e-01,5.166015625000000000e-01
-2.000000000000000000e+00,-1.000000000000000000e+00,7.000000000000000000e+00,4.000000000000000000e+00,1.000000000000000000e+00,-2.000000000000000000e+00,8.000000000000000000e+00,1.000000000000000000e+00,-4.215698242187500000e-01,1.210327148437500000e-01,7.354125976562500000e-01,5.164794921875000000e-01
-6.000000000000000000e+00,-4.000000000000000000e+00,-1.000000000000000000e+00,-4.000000000000000000e+00,-4.000000000000000000e+00,0.000000000000000000e+00,-3.000000000000000000e+00,-6.000000000000000000e+00,-4.215698242187500000e-01,1.210327148437500000e-01,7.354125976562500000e-01,5.164794921875000000e-01
-3.000000000000000000e+00,1.000000000000000000e+00,7.000000000000000000e+00,-1.000000000000000000e+00,0.000000000000000000e+00,1.000000000000000000e+00,0.000000000000000000e+00,1.000000000000000000e+00,-4.215698242187500000e-01,1.210327148437500000e-01,7.354125976562500000e-01,5.164794921875000000e-01
3.000000000000000000e+00,1.000000000000000000e+00,-1.200000000000000000e+01,-5.000000000000000000e+00,-1.000000000000000000e+00,0.000000000000000000e+00,-6.000000000000000000e+00,0.000000000000000000e+00,-4.215698242187500000e-01,1.210327148437500000e-01,7.354125976562500000e-01,5.164794921875000000e-01
-8.000000000000000000e+00,-6.000000000000000000e+00,2.000000000000000000e+00,-1.000000000000000000e+00,-2.000000000000000000e+00,-4.000000000000000000e+00,0.000000000000000000e+00,-3.000000000000000000e+00,-4.223022460937500000e-01,1.211547851562500000e-01,7.352905273437500000e-01,5.160522460937500000e-01
5.000000000000000000e+00,5.000000000000000000e+00,0.000000000000000000e+00,-2.000000000000000000e+00,0.000000000000000000e+00,3.000000000000000000e+00,-1.000000000000000000e+00,2.000000000000000000e+00,-4.223022460937500000e-01,1.211547851562500000e-01,7.352905273437500000e-01,5.160522460937500000e-01
-2.000000000000000000e+00,-3.000000000000000000e+00,-8.000000000000000000e+00,-1.000000000000000000e+00,-1.000000000000000000e+00,1.000000000000000000e+00,4.000000000000000000e+00,-4.000000000000000000e+00,-4.223022460937500000e-01,1.211547851562500000e-01,7.352905273437500000e-01,5.160522460937500000e-01
-1.000000000000000000e+00,2.000000000000000000e+00,4.000000000000000000e+00,3.000000000000000000e+00,-3.000000000000000000e+00,-5.000000000000000000e+00,-8.000000000000000000e+00,-2.000000000000000000e+00,-4.223022460937500000e-01,1.211547851562500000e-01,7.352905273437500000e-01,5.160522460937500000e-01
1.000000000000000000e+00,2.000000000000000000e+00,0.000000000000000000e+00,6.000000000000000000e+00,0.000000000000000000e+00,0.000000000000000000e+00,4.000000000000000000e+00,-3.000000000000000000e+00,-4.229736328125000000e-01,1.209716796875000000e-01,7.353515625000000000e-01,5.154418945312500000e-01
1.000000000000000000e+00,-1.000000000000000000e+00,-4.000000000000000000e+00,-8.000000000000000000e+00,-1.000000000000000000e+00,-2.000000000000000000e+00,-1.000000000000000000e+00,1.000000000000000000e+00,-4.229736328125000000e-01,1.209716796875000000e-01,7.353515625000000000e-01,5.154418945312500000e-01
-4.000000000000000000e+00,-3.000000000000000000e+00,-4.000000000000000000e+00,0.000000000000000000e+00,-3.000000000000000000e+00,0.000000000000000000e+00,3.000000000000000000e+00,-1.000000000000000000e+00,-4.229736328125000000e-01,1.209716796875000000e-01,7.353515625000000000e-01,5.154418945312500000e-01
6.000000000000000000e+00,1.000000000000000000e+00,2.000000000000000000e+00,-3.000000000000000000e+00,1.000000000000000000e+00,-4.000000000000000000e+00,-5.000000000000000000e+00,0.000000000000000000e+00,-4.229736328125000000e-01,1.209716796875000000e-01,7.353515625000000000e-01,5.154418945312500000e-01
-3.000000000000000000e+00,0.000000000000000000e+00,-2.000000000000000000e+00,4.000000000000000000e+00,-1.000000000000000000e+00,1.000000000000000000e+00,3.000000000000000000e+00,0.000000000000000000e+00,-4.234008789062500000e-01,1.206054687500000000e-01,7.354125976562500000e-01,5.150756835937500000e-01
-3.000000000000000000e+00,-4.000000000000000000e+00,1.000000000000000000e+00,3.000000000000000000e+00,-3.000000000000000000e+00,-1.000000000000000000e+00,-3.000000000000000000e+00,-2.000000000000000000e+00,-4.234008789062500000e-01,1.206054687500000000e-01,7.354125976562500000e-01,5.150756835937500000e-01
