5.000000000000000000e+00,-1.100000000000000000e+01,-6.300000000000000000e+01,-8.000000000000000000e+00,-6.000000000000000000e+00,-4.000000000000000000e+00,-2.000000000000000000e+00,-4.000000000000000000e+00,3.820800781250000000e-01,1.612548828125000000e-01,-9.099121093750000000e-01,-8.117675781250000000e-03
-4.000000000000000000e+00,3.000000000000000000e+00,1.100000000000000000e+01,1.000000000000000000e+00,-1.000000000000000000e+00,-3.000000000000000000e+00,-1.000000000000000000e+00,-1.000000000000000000e+00,3.820800781250000000e-01,1.612548828125000000e-01,-9.099121093750000000e-01,-8.117675781250000000e-03
1.400000000000000000e+01,6.000000000000000000e+00,9.000000000000000000e+00,1.000000000000000000e+01,-1.000000000000000000e+00,2.000000000000000000e+00,2.000000000000000000e+00,0.000000000000000000e+00,3.820800781250000000e-01,1.612548828125000000e-01,-9.099121093750000000e-01,-8.117675781250000000e-03
0.000000000000000000e+00,3.000000000000000000e+00,-6.000000000000000000e+00,1.000000000000000000e+00,-2.000000000000000000e+00,-2.000000000000000000e+00,-4.000000000000000000e+00,-1.000000000000000000e+00,3.820800781250000000e-01,1.612548828125000000e-01,-9.099121093750000000e-01,-8.117675781250000000e-03
0.000000000000000000e+00,4.000000000000000000e+00,6.000000000000000000e+00,-4.000000000000000000e+00,-1.000000000000000000e+00,-4.000000000000000000e+00,-4.000000000000000000e+00,-3.000000000000000000e+00,3.823852539062500000e-01,1.614990234375000000e-01,-9.097290039062500000e-01,-7.995605468750000000e-03
-3.000000000000000000e+00,3.000000000000000000e+00,7.000000000000000000e+00,0.000000000000000000e+00,-1.000000000000000000e+00,2.000000000000000000e+00,7.000000000000000000e+00,4.000000000000000000e+00,3.823852539062500000e-01,1.614990234375000000e-01,-9.097290039062500000e-01,-7.995605468750000000e-03
1.500000000000000000e+01,3.000000000000000000e+00,-1.200000000000000000e+01,-1.000000000000000000e+00,-4.000000000000000000e+00,-2.000000000000000000e+00,-1.000000000000000000e+00,0.000000000000000000e+00,3.823852539062500000e-01,1.614990234375000000e-01,-9.097290039062500000e-01,-7.995605468750000000e-03
-1.300000000000000000e+01,-6.000000000000000000e+00,-9.000000000000000000e+00,-3.000000000000000000e+00,4.000000000000000000e+00,2.000000000000000000e+00,1.000000000000000000e+00,0.000000000000000000e+00,3.823852539062500000e-01,1.614990234375000000e-01,-9.097290039062500000e-01,-7.995605468750000000e-03
1.800000000000000000e+01,8.000000000000000000e+00,4.000000000000000000e+00,5.000000000000000000e+00,-3.000000000000000000e+00,-1.000000000000000000e+00,4.000000000000000000e+00,1.000000000000000000e+00,3.826293945312500000e-01,1.610107421875000000e-01,-9.097290039062500000e-01,-8.056640625000000000e-03
2.000000000000000000e+00,-4.000000000000000000e+00,-1.900000000000000000e+01,-3.000000000000000000e+00,-3.000000000000000000e+00,-4.000000000000000000e+00,-7.000000000000000000e+00,-4.000000000000000000e+00,3.826293945312500000e-01,1.610107421875000000e-01,-9.097290039062500000e-01,-8.056640625000000000e-03
-1.200000000000000000e+01,4.000000000000000000e+00,2.700000000000000000e+01,9.000000000000000000e+00,5.000000000000000000e+00,4.000000000000000000e+00,4.000000000000000000e+00,0.000000000000000000e+00,3.826293945312500000e-01,1.610107421875000000e-01,-9.097290039062500000e-01,-8.056640625000000000e-03
-3.100000000000000000e+01,-2.000000000000000000e+01,5.000000000000000000e+00,2.000000000000000000e+00,2.000000000000000000e+00,-4.000000000000000000e+00,-4.000000000000000000e+00,-3.000000000000000000e+00,3.826293945312500000e-01,1.610107421875000000e-01,-9.097290039062500000e-01,-8.056640625000000000e-03
0.000000000000000000e+00,-1.400000000000000000e+01,-2.700000000000000000e+01,-2.000000000000000000e+01,-9.000000000000000000e+00,-3.000000000000000000e+00,-6.000000000000000000e+00,-2.000000000000000000e+00,3.827514648437500000e-01,1.607666015625000000e-01,-9.097290039062500000e-01,-7.934570312500000000e-03
-1.000000000000000000e+00,5.000000000000000000e+00,2.400000000000000000e+01,1.000000000000000000e+00,-1.000000000000000000e+00,-5.000000000000000000e+00,-6.000000000000000000e+00,-1.000000000000000000e+00,3.827514648437500000e-01,1.607666015625000000e-01,-9.097290039062500000e-01,-7.934570312500000000e-03
7.000000000000000000e+00,-3.000000000000000000e+00,-2.700000000000000000e+01,3.000000000000000000e+00,3.000000000000000000e+00,-2.000000000000000000e+00,-4.000000000000000000e+00,3.000000000000000000e+00,3.827514648437500000e-01,1.607666015625000000e-01,-9.097290039062500000e-01,-7.934570312500000000e-03
1.200000000000000000e+01,1.000000000000000000e+01,-9.000000000000000000e+00,-6.000000000000000000e+00,-6.000000000000000000e+00,0.000000000000000000e+00,-1.300000000000000000e+01,-1.000000000000000000e+00,3.827514648437500000e-01,1.607666015625000000e-01,-9.097290039062500000e-01,-7.934570312500000000e-03
4.000000000000000000e+00,1.200000000000000000e+01,1.900000000000000000e+01,8.000000000000000000e+00,-1.000000000000000000e+00,1.000000000000000000e+00,-5.000000000000000000e+00,1.000000000000000000e+00,3.826293945312500000e-01,1.612548828125000000e-01,-9.097290039062500000e-01,-7.324218750000000000e-03
-5.000000000000000000e+00,-3.000000000000000000e+00,3.000000000000000000e+00,-3.000000000000000000e+00,0.000000000000000000e+00,0.000000000000000000e+00,0.000000000000000000e+00,0.000000000000000000e+00,3.826293945312500000e-01,1.612548828125000000e-01,-9.097290039062500000e-01,-7.324218750000000000e-03
1.000000000000000000e+00,-3.000000000000000000e+00,-5.000000000000000000e+00,-5.000000000000000000e+00,-7.000000000000000000e+00,-3.000000000000000000e+00,3.000000000000000000e+00,-3.000000000000000000e+00,3.826293945312500000e-01,1.612548828125000000e-01,-9.097290039062500000e-01,-7.324218750000000000e-03
6.000000000000000000e+00,0.000000000000000000e+00,0.000000000000000000e+00,3.000000000000000000e+00,1.000000000000000000e+00,-1.000000000000000000e+00,5.000000000000000000e+00,0.000000000000000000e+00,3.826293945312500000e-01,1.612548828125000000e-01,-9.097290039062500000e-01,-7.324218750000000000e-03
5.000000000000000000e+00,4.000000000000000000e+00,4.000000000000000000e+00,0.000000000000000000e+00,0.000000000000000000e+00,-2.000000000000000000e+00,1.000000000000000000e+00,-3.000000000000000000e+00,3.824462890625000000e-01,1.619262695312500000e-01,-9.096679687500000000e-01,-7.141113281250000000e-03
2.000000000000000000e+00,-2.000000000000000000e+00,-6.000000000000000000e+00,-2.000000000000000000e+00,4.000000000000000000e+00,4.000000000000000000e+00,4.000000000000000000e+00,-2.000000000000000000e+00,3.824462890625000000e-01,1.619262695312500000e-01,-9.096679687500000000e-01,-7.141113281250000000e-03
-5.000000000000000000e+00,-2.000000000000000000e+00,4.000000000000000000e+00,-4.000000000000000000e+00,-5.000000000000000000e+00,-3.000000000000000000e+00,2.000000000000000000e+00,-1.000000000000000000e+00,3.824462890625000000e-01,1.619262695312500000e-01,-9.096679687500000000e-01,-7.141113281250000000e-03
1.100000000000000000e+01,6.000000000000000000e+00,1.000000000000000000e+00,1.300000000000000000e+01,-2.000000000000000000e+00,-2.000000000000000000e+00,8.000000000000000000e+00,-1.000000000000000000e+00,3.824462890625000000e-01,1.619262695312500000e-01,-9.096679687500000000e-01,-7.141113281250000000e-03
-1.100000000000000000e+01,9.000000000000000000e+00,8.000000000000000000e+00,-6.000000000000000000e+00,5.000000000000000000e+00,1.000000000000000000e+00,5.000000000000000000e+00,3.000000000000000000e+00,3.822021484375000000e-01,1.617431640625000000e-01,-9.097900390625000000e-01,-7.263183593750000000e-03
-7.000000000000000000e+00,1.000000000000000000e+01,2.800000000000000000e+01,5.000000000000000000e+00,0.000000000000000000e+00,1.000000000000000000e+00,7.000000000000000000e+00,4.000000000000000000e+00,3.822021484375000000e-01,1.617431640625000000e-01,-9.097900390625000000e-01,-7.263183593750000000e-03
-1.200000000000000000e+01,-3.500000000000000000e+01,-2.900000000000000000e+01,-1.400000000000000000e+01,-9.000000000000000000e+00,-7.000000000000000000e+00,-5.000000000000000000e+00,-2.000000000000000000e+00,3.822021484375000000e-01,1.617431640625000000e-01,-9.097900390625000000e-01,-7.263183593750000000e-03
-1.500000000000000000e+01,-2.400000000000000000e+01,-5.200000000000000000e+01,-1.900000000000000000e+01,-5.000000000000000000e+00,0.000000000000000000e+00,0.000000000000000000e+00,-2.000000000000000000e+00,3.822021484375000000e-01,1.617431640625000000e-01,-9.097900390625000000e-01,-7.263183593750000000e-03
2.000000000000000000e+00,-1.500000000000000000e+01,-6.000000000000000000e+00,-7.000000000000000000e+00,-1.400000000000000000e+01,-1.000000000000000000e+01,-8.000000000000000000e+00,-6.000000000000000000e+00,3.820800781250000000e-01,1.613769531250000000e-01,-9.099121093750000000e-01,-7.385253906250000000e-03
2.000000000000000000e+00,1.200000000000000000e+01,3.000000000000000000e+00,7.000000000000000000e+00,6.000000000000000000e+00,3.000000000000000000e+00,3.000000000000000000e+00,-1.000000000000000000e+00,3.820800781250000000e-01,1.613769531250000000e-01,-9.099121093750000000e-01,-7.385253906250000000e-03
1.000000000000000000e+01,1.500000000000000000e+01,1.500000000000000000e+01,3.000000000000000000e+00,3.000000000000000000e+00,0.000000000000000000e+00,4.000000000000000000e+00,0.000000000000000000e+00,3.820800781250000000e-01,1.613769531250000000e-01,-9.099121093750000000e-01,-7.385253906250000000e-03
7.000000000000000000e+00,1.400000000000000000e+01,4.000000000000000000e+00,1.000000000000000000e+00,4.000000000000000000e+00,1.000000000000000000e+00,-3.000000000000000000e+00,1.000000000000000000e+00,3.820800781250000000e-01,1.613769531250000000e-01,-9.099121093750000000e-01,-7.385253906250000000e-03
-2.000000000000000000e+00,5.000000000000000000e+00,-4.000000000000000000e+00,4.000000000000000000e+00,-2.000000000000000000e+00,0.000000000000000000e+00,2.000000000000000000e+00,0.000000000000000000e+00,3.817138671875000000e-01,1.614379882812500000e-01,-9.100341796875000000e-01,-7.202148437500000000e-03
-5.000000000000000000e+00,-5.000000000000000000e+00,-1.300000000000000000e+01,-1.000000000000000000e+01,-2.000000000000000000e+00,0.000000000000000000e+00,-3.000000000000000000e+00,-1.000000000000000000e+00,3.817138671875000000e-01,1.614379882812500000e-01,-9.100341796875000000e-01,-7.202148437500000000e-03
7.000000000000000000e+00,5.000000000000000000e+00,6.000000000000000000e+00,3.000000000000000000e+00,-1.000000000000000000e+00,-1.000000000000000000e+00,-7.000000000000000000e+00,-3.000000000000000000e+00,3.817138671875000000e-01,1.614379882812500000e-01,-9.100341796875000000e-01,-7.202148437500000000e-03
0.000000000000000000e+00,-6.000000000000000000e+00,-3.000000000000000000e+00,-9.000000000000000000e+00,-6.000000000000000000e+00,-5.000000000000000000e+00,-4.000000000000000000e+00,-5.000000000000000000e+00,3.817138671875000000e-01,1.614379882812500000e-01,-9.100341796875000000e-01,-7.202148437500000000e-03
-1.000000000000000000e+00,-2.000000000000000000e+00,7.000000000000000000e+00,-4.000000000000000000e+00,-6.000000000000000000e+00,1.000000000000000000e+00,6.000000000000000000e+00,0.000000000000000000e+00,3.814086914062500000e-01,1.618041992187500000e-01,-9.100952148437500000e-01,-6.774902343750000000e-03
1.900000000000000000e+01,1.000000000000000000e+00,2.600000000000000000e+01,2.100000000000000000e+01,1.500000000000000000e+01,1.000000000000000000e+00,4.000000000000000000e+00,2.000000000000000000e+00,3.814086914062500000e-01,1.618041992187500000e-01,-9.100952148437500000e-01,-6.774902343750000000e-03
-2.600000000000000000e+01,4.000000000000000000e+00,-5.600000000000000000e+01,-1.000000000000000000e+01,-1.000000000000000000e+00,2.000000000000000000e+00,3.000000000000000000e+00,0.000000000000000000e+00,3.814086914062500000e-01,1.618041992187500000e-01,-9.100952148437500000e-01,-6.774902343750000000e-03
0.000000000000000000e+00,-3.000000000000000000e+00,2.200000000000000000e+01,1.000000000000000000e+01,2.000000000000000000e+00,-3.000000000000000000e+00,-9.000000000000000000e+00,-1.000000000000000000e+00,3.814086914062500000e-01,1.618041992187500000e-01,-9.100952148437500000e-01,-6.774902343750000000e-03
-7.000000000000000000e+00,-2.900000000000000000e+01,-3.000000000000000000e+00,-1.200000000000000000e+01,-6.000000000000000000e+00,-2.000000000000000000e+00,2.000000000000000000e+00,-4.000000000000000000e+00,3.811645507812500000e-01,1.621093750000000000e-01,-9.101562500000000000e-01,-6.347656250000000000e-03
-7.000000000000000000e+00,-1.200000000000000000e+01,-1.500000000000000000e+01,-8.000000000000000000e+00,-5.000000000000000000e+00,-2.000000000000000000e+00,-7.000000000000000000e+00,-4.000000000000000000e+00,3.811645507812500000e-01,1.621093750000000000e-01,-9.101562500000000000e-01,-6.347656250000000000e-03
1.000000000000000000e+01,1.000000000000000000e+00,1.800000000000000000e+01,-2.000000000000000000e+00,-1.000000000000000000e+00,0.000000000000000000e+00,0.000000000000000000e+00,0.000000000000000000e+00,3.811645507812500000e-01,1.621093750000000000e-01,-9.101562500000000000e-01,-6.347656250000000000e-03
-2.000000000000000000e+00,1.300000000000000000e+01,1.100000000000000000e+01,-3.000000000000000000e+00,1.000000000000000000e+00,0.000000000000000000e+00,2.000000000000000000e+00,3.000000000000000000e+00,3.811645507812500000e-01,1.621093750000000000e-01,-9.101562500000000000e-01,-6.347656250000000000e-03
6.000000000000000000e+00,2.000000000000000000e+01,-2.000000000000000000e+00,1.100000000000000000e+01,1.000000000000000000e+00,2.000000000000000000e+00,3.000000000000000000e+00,1.000000000000000000e+00,3.812255859375000000e-01,1.622924804687500000e-01,-9.100952148437500000e-01,-6.042480468750000000e-03
9.000000000000000000e+00,3.000000000000000000e+00,-5.000000000000000000e+00,-4.000000000000000000e+00,-3.000000000000000000e+00,-3.000000000000000000e+00,0.000000000000000000e+00,2.000000000000000000e+00,3.812255859375000000e-01,1.622924804687500000e-01,-9.100952148437500000e-01,-6.042480468750000000e-03
-1.100000000000000000e+01,0.000000000000000000e+00,1.100000000000000000e+01,-1.000000000000000000e+00,1.000000000000000000e+00,7.000000000000000000e+00,1.000000000000000000e+01,1.000000000000000000e+00,3.812255859375000000e-01,1.622924804687500000e-01,-9.100952148437500000e-01,-6.042480468750000000e-03
2.000000000000000000e+00,1.000000000000000000e+00,-4.100000000000000000e+01,-8.000000000000000000e+00,-1.000000000000000000e+00,-2.000000000000000000e+00,0.000000000000000000e+00,-3.000000000000000000e+00,3.812255859375000000e-01,1.622924804687500000e-01,-9.100952148437500000e-01,-6.042480468750000000e-03
-5.000000000000000000e+00,-2.000000000000000000e+00,1.600000000000000000e+01,7.000000000000000000e+00,3.000000000000000000e+00,0.000000000000000000e+00,-2.000000000000000000e+00,-5.000000000000000000e+00,3.812255859375000000e-01,1.621093750000000000e-01,-9.101562500000000000e-01,-5.737304687500000000e-03
-3.000000000000000000e+00,6.000000000000000000e+00,-4.000000000000000000e+00,5.000000000000000000e+00,3.000000000000000000e+00,-2.000000000000000000e+00,-1.000000000000000000e+00,-5.000000000000000000e+00,3.812255859375000000e-01,1.621093750000000000e-01,-9.101562500000000000e-01,-5.737304687500000000e-03
6.000000000000000000e+00,2.000000000000000000e+00,1.000000000000000000e+01,-3.000000000000000000e+00,-6.000000000000000000e+00,-4.000000000000000000e+00,-2.000000000000000000e+00,-3.000000000000000000e+00,3.812255859375000000e-01,1.621093750000000000e-01,-9.101562500000000000e-01,-5.737304687500000000e-03
0.000000000000000000e+00,-5.000000000000000000e+00,-1.000000000000000000e+00,1.000000000000000000e+00,1.000000000000000000e+00,1.000000000000000000e+00,2.000000000000000000e+00,1.000000000000000000e+00,3.812255859375000000e-01,1.621093750000000000e-01,-9.101562500000000000e-01,-5.737304687500000000e-03
0.000000000000000000e+00,4.000000000000000000e+00,2.000000000000000000e+00,6.000000000000000000e+00,5.000000000000000000e+00,1.000000000000000000e+00,1.000000000000000000e+00,3.000000000000000000e+00,3.812866210937500000e-01,1.621704101562500000e-01,-9.100952148437500000e-01,-5.187988281250000000e-03
-6.000000000000000000e+00,-4.000000000000000000e+00,-1.800000000000000000e+01,-1.400000000000000000e+01,-1.000000000000000000e+01,-2.000000000000000000e+00,-7.000000000000000000e+00,2.000000000000000000e+00,3.812866210937500000e-01,1.621704101562500000e-01,-9.100952148437500000e-01,-5.187988281250000000e-03
-1.000000000000000000e+00,1.000000000000000000e+00,4.000000000000000000e+00,0.000000000000000000e+00,-5.000000000000000000e+00,-5.000000000000000000e+00,-6.000000000000000000e+00,-2.000000000000000000e+00,3.812866210937500000e-01,1.621704101562500000e-01,-9.100952148437500000e-01,-5.187988281250000000e-03
7.000000000000000000e+00,1.800000000000000000e+01,5.000000000000000000e+01,8.000000000000000000e+00,5.000000000000000000e+00,3.000000000000000000e+00,1.000000000000000000e+00,-1.000000000000000000e+00,3.812866210937500000e-01,1.621704101562500000e-01,-9.100952148437500000e-01,-5.187988281250000000e-03
2.100000000000000000e+01,9.000000000000000000e+00,-5.000000000000000000e+01,-2.000000000000000000e+00,-7.000000000000000000e+00,-3.000000000000000000e+00,-1.000000000000000000e+00,-1.000000000000000000e+00,3.812866210937500000e-01,1.620483398437500000e-01,-9.101562500000000000e-01,-4.760742187500000000e-03
-5.400000000000000000e+01,-5.800000000000000000e+01,-1.500000000000000000e+01,-1.700000000000000000e+01,8.000000000000000000e+00,2.000000000000000000e+00,7.000000000000000000e+00,-7.000000000000000000e+00,3.812866210937500000e-01,1.620483398437500000e-01,-9.101562500000000000e-01,-4.760742187500000000e-03
-5.000000000000000000e+00,-2.400000000000000000e+01,-8.000000000000000000e+00,3.000000000000000000e+00,-4.000000000000000000e+00,-1.000000000000000000e+00,-2.000000000000000000e+00,-1.000000000000000000e+00,3.812866210937500000e-01,1.620483398437500000e-01,-9.101562500000000000e-01,-4.760742187500000000e-03
0.000000000000000000e+00,-1.300000000000000000e+01,-5.000000000000000000e+00,-4.000000000000000000e+00,-2.000000000000000000e+00,-3.000000000000000000e+00,-3.000000000000000000e+00,4.000000000000000000e+00,3.812866210937500000e-01,1.620483398437500000e-01,-9.101562500000000000e-01,-4.760742187500000000e-03
4.000000000000000000e+00,1.900000000000000000e+01,2.300000000000000000e+01,1.000000000000000000e+00,0.000000000000000000e+00,2.000000000000000000e+00,-7.000000000000000000e+00,5.000000000000000000e+00,3.812866210937500000e-01,1.621093750000000000e-01,-9.101562500000000000e-01,-4.760742187500000000e-03
1.100000000000000000e+01,2.500000000000000000e+01,0.000000000000000000e+00,1.000000000000000000e+00,-5.000000000000000000e+00,-2.000000000000000000e+00,-3.000000000000000000e+00,3.000000000000000000e+00,3.812866210937500000e-01,1.621093750000000000e-01,-9.101562500000000000e-01,-4.760742187500000000e-03
1.000000000000000000e+00,-1.000000000000000000e+00,0.000000000000000000e+00,3.000000000000000000e+00,0.000000000000000000e+00,-1.000000000000000000e+00,0.000000000000000000e+00,-1.000000000000000000e+00,3.812866210937500000e-01,1.621093750000000000e-01,-9.101562500000000000e-01,-4.760742187500000000e-03
-3.000000000000000000e+00,-1.000000000000000000e+00,-1.400000000000000000e+01,-7.000000000000000000e+00,-6.000000000000000000e+00,0.000000000000000000e+00,0.000000000000000000e+00,-4.000000000000000000e+00,3.812866210937500000e-01,1.621093750000000000e-01,-9.101562500000000000e-01,-4.760742187500000000e-03
1.000000000000000000e+00,1.000000000000000000e+01,1.600000000000000000e+01,6.000000000000000000e+00,2.000000000000000000e+00,0.000000000000000000e+00,-1.000000000000000000e+00,-2.000000000000000000e+00,3.813476562500000000e-01,1.616210937500000000e-01,-9.102172851562500000e-01,-4.943847656250000000e-03
-2.100000000000000000e+01,1.000000000000000000e+00,-1.000000000000000000e+01,-1.700000000000000000e+01,-8.000000000000000000e+00,-4.000000000000000000e+00,-3.000000000000000000e+00,-5.000000000000000000e+00,3.813476562500000000e-01,1.616210937500000000e-01,-9.102172851562500000e-01,-4.943847656250000000e-03
5.000000000000000000e+00,-1.200000000000000000e+01,-2.800000000000000000e+01,-3.000000000000000000e+00,3.000000000000000000e+00,3.000000000000000000e+00,0.000000000000000000e+00,-7.000000000000000000e+00,3.813476562500000000e-01,1.616210937500000000e-01,-9.102172851562500000e-01,-4.943847656250000000e-03
-3.000000000000000000e+00,-1.700000000000000000e+01,1.000000000000000000e+01,-3.000000000000000000e+00,-2.000000000000000000e+00,-7.000000000000000000e+00,-3.000000000000000000e+00,-2.000000000000000000e+00,3.813476562500000000e-01,1.616210937500000000e-01,-9.102172851562500000e-01,-4.943847656250000000e-03
-6.000000000000000000e+00,-1.300000000000000000e+01,0.000000000000000000e+00,-3.000000000000000000e+00,1.000000000000000000e+00,1.000000000000000000e+00,1.000000000000000000e+00,2.000000000000000000e+00,3.811035156250000000e-01,1.613769531250000000e-01,-9.103393554687500000e-01,-4.699707031250000000e-03
7.000000000000000000e+00,4.000000000000000000e+00,9.000000000000000000e+00,6.000000000000000000e+00,-1.000000000000000000e+00,-2.000000000000000000e+00,-3.000000000000000000e+00,0.000000000000000000e+00,3.811035156250000000e-01,1.613769531250000000e-01,-9.103393554687500000e-01,-4.699707031250000000e-03
3.000000000000000000e+00,1.200000000000000000e+01,3.000000000000000000e+00,0.000000000000000000e+00,0.000000000000000000e+00,-1.000000000000000000e+00,0.000000000000000000e+00,1.000000000000000000e+00,3.811035156250000000e-01,1.613769531250000000e-01,-9.103393554687500000e-01,-4.699707031250000000e-03
0.000000000000000000e+00,5.000000000000000000e+00,-8.000000000000000000e+00,-1.000000000000000000e+00,-2.000000000000000000e+00,0.000000000000000000e+00,-3.000000000000000000e+00,-2.000000000000000000e+00,3.811035156250000000e-01,1.613769531250000000e-01,-9.103393554687500000e-01,-4.699707031250000000e-03
0.000000000000000000e+00,9.000000000000000000e+00,-1.000000000000000000e+00,1.000000000000000000e+00,-2.000000000000000000e+00,-8.000000000000000000e+00,1.000000000000000000e+00,0.000000000000000000e+00,3.810424804687500000e-01,1.618041992187500000e-01,-9.102783203125000000e-01,-4.516601562500000000e-03
9.000000000000000000e+00,0.000000000000000000e+00,-1.000000000000000000e+01,-1.500000000000000000e+01,-3.000000000000000000e+00,3.000000000000000000e+00,-2.000000000000000000e+00,4.000000000000000000e+00,3.810424804687500000e-01,1.618041992187500000e-01,-9.102783203125000000e-01,-4.516601562500000000e-03
-9.000000000000000000e+00,1.000000000000000000e+00,1.000000000000000000e+01,1.000000000000000000e+01,-1.000000000000000000e+00,0.000000000000000000e+00,6.000000000000000000e+00,-1.000000000000000000e+00,3.810424804687500000e-01,1.618041992187500000e-01,-9.102783203125000000e-01,-4.516601562500000000e-03
-7.000000000000000000e+00,-1.700000000000000000e+01,-3.700000000000000000e+01,-4.000000000000000000e+00,1.000000000000000000e+01,1.000000000000000000e+00,1.000000000000000000e+00,1.000000000000000000e+00,3.810424804687500000e-01,1.618041992187500000e-01,-9.102783203125000000e-01,-4.516601562500000000e-03
-9.000000000000000000e+00,-1.700000000000000000e+01,4.000000000000000000e+00,-2.000000000000000000e+00,0.000000000000000000e+00,1.000000000000000000e+00,-3.000000000000000000e+00,-1.000000000000000000e+00,3.809814453125000000e-01,1.618652343750000000e-01,-9.102783203125000000e-01,-4.577636718750000000e-03
1.600000000000000000e+01,1.500000000000000000e+01,3.000000000000000000e+00,5.000000000000000000e+00,0.000000000000000000e+00,-3.000000000000000000e+00,-4.000000000000000000e+00,0.000000000000000000e+00,3.809814453125000000e-01,1.618652343750000000e-01,-9.102783203125000000e-01,-4.577636718750000000e-03
9.000000000000000000e+00,8.000000000000000000e+00,4.000000000000000000e+00,-3.000000000000000000e+00,-5.000000000000000000e+00,-4.000000000000000000e+00,-7.000000000000000000e+00,-1.000000000000000000e+00,3.809814453125000000e-01,1.618652343750000000e-01,-9.102783203125000000e-01,-4.577636718750000000e-03
-5.000000000000000000e+00,-1.000000000000000000e+00,5.000000000000000000e+00,0.000000000000000000e+00,-2.000000000000000000e+00,0.000000000000000000e+00,-1.000000000000000000e+00,-4.000000000000000000e+00,3.809814453125000000e-01,1.618652343750000000e-01,-9.102783203125000000e-01,-4.577636718750000000e-03
-3.000000000000000000e+00,3.000000000000000000e+00,-4.000000000000000000e+00,-2.000000000000000000e+00,-2.000000000000000000e+00,-4.000000000000000000e+00,-1.100000000000000000e+01,-6.000000000000000000e+00,3.811035156250000000e-01,1.616210937500000000e-01,-9.102783203125000000e-01,-4.943847656250000000e-03
9.000000000000000000e+00,4.000000000000000000e+00,-2.000000000000000000e+00,6.000000000000000000e+00,0.000000000000000000e+00,1.000000000000000000e+00,2.000000000000000000e+00,-3.000000000000000000e+00,3.811035156250000000e-01,1.616210937500000000e-01,-9.102783203125000000e-01,-4.943847656250000000e-03
2.000000000000000000e+00,1.000000000000000000e+00,7.000000000000000000e+00,6.000000000000000000e+00,4.000000000000000000e+00,3.000000000000000000e+00,0.000000000000000000e+00,4.000000000000000000e+00,3.811035156250000000e-01,1.616210937500000000e-01,-9.102783203125000000e-01,-4.943847656250000000e-03
-1.500000000000000000e+01,6.000000000000000000e+00,8.000000000000000000e+00,-7.000000000000000000e+00,-1.000000000000000000e+00,-1.000000000000000000e+00,-2.000000000000000000e+00,1.000000000000000000e+00,3.811035156250000000e-01,1.616210937500000000e-01,-9.102783203125000000e-01,-4.943847656250000000e-03
-9.000000000000000000e+00,-2.300000000000000000e+01,-6.000000000000000000e+00,-1.000000000000000000e+01,-6.000000000000000000e+00,-3.000000000000000000e+00,-2.000000000000000000e+00,-5.000000000000000000e+00,3.811035156250000000e-01,1.616210937500000000e-01,-9.102783203125000000e-01,-4.943847656250000000e-03
1.300000000000000000e+01,-4.000000000000000000e+00,4.000000000000000000e+00,7.000000000000000000e+00,0.000000000000000000e+00,-3.000000000000000000e+00,-4.000000000000000000e+00,0.000000000000000000e+00,3.811035156250000000e-01,1.616210937500000000e-01,-9.102783203125000000e-01,-4.943847656250000000e-03
-1.400000000000000000e+01,-2.000000000000000000e+00,0.000000000000000000e+00,-2.000000000000000000e+00,-1.000000000000000000e+00,-3.000000000000000000e+00,-4.000000000000000000e+00,-2.000000000000000000e+00,3.811035156250000000e-01,1.616210937500000000e-01,-9.102783203125000000e-01,-4.943847656250000000e-03
7.000000000000000000e+00,1.100000000000000000e+01,7.000000000000000000e+00,8.000000000000000000e+00,3.000000000000000000e+00,2.000000000000000000e+00,-1.000000000000000000e+00,2.000000000000000000e+00,3.811035156250000000e-01,1.616210937500000000e-01,-9.102783203125000000e-01,-4.943847656250000000e-03
-5.000000000000000000e+00,-6.000000000000000000e+00,-1.000000000000000000e+00,-1.000000000000000000e+00,-2.000000000000000000e+00,0.000000000000000000e+00,6.000000000000000000e+00,1.000000000000000000e+00,3.811035156250000000e-01,1.616210937500000000e-01,-9.102783203125000000e-01,-4.943847656250000000e-03
-8.000000000000000000e+00,-3.000000000000000000e+00,-2.000000000000000000e+00,-4.000000000000000000e+00,-3.000000000000000000e+00,-3.000000000000000000e+00,-3.000000000000000000e+00,-1.000000000000000000e+00,3.811035156250000000e-01,1.616210937500000000e-01,-9.102783203125000000e-01,-4.943847656250000000e-03
7.000000000000000000e+00,1.400000000000000000e+01,-2.000000000000000000e+00,2.000000000000000000e+00,1.000000000000000000e+00,4.000000000000000000e+00,6.000000000000000000e+00,3.000000000000000000e+00,3.811035156250000000e-01,1.616210937500000000e-01,-9.102783203125000000e-01,-4.943847656250000000e-03
1.400000000000000000e+01,3.400000000000000000e+01,3.400000000000000000e+01,2.100000000000000000e+01,9.000000000000000000e+00,5.000000000000000000e+00,5.000000000000000000e+00,2.000000000000000000e+00,3.811035156250000000e-01,1.616210937500000000e-01,-9.102783203125000000e-01,-4.943847656250000000e-03
-1.000000000000000000e+00,-3.200000000000000000e+01,3.900000000000000000e+01,-9.000000000000000000e+00,-6.000000000000000000e+00,-2.000000000000000000e+00,-1.000000000000000000e+00,-3.000000000000000000e+00,3.811645507812500000e-01,1.616210937500000000e-01,-9.102783203125000000e-01,-4.943847656250000000e-03
1.400000000000000000e+01,-2.100000000000000000e+01,-1.000000000000000000e+01,-1.000000000000000000e+00,-6.000000000000000000e+00,-5.000000000000000000e+00,-1.000000000000000000e+00,-8.000000000000000000e+00,3.811645507812500000e-01,1.616210937500000000e-01,-9.102783203125000000e-01,-4.943847656250000000e-03
-2.800000000000000000e+01,-5.000000000000000000e+00,-1.600000000000000000e+01,-1.400000000000000000e+01,-4.000000000000000000e+00,-5.000000000000000000e+00,-4.000000000000000000e+00,0.000000000000000000e+00,3.811645507812500000e-01,1.616210937500000000e-01,-9.102783203125000000e-01,-4.943847656250000000e-03
4.000000000000000000e+00,2.000000000000000000e+00,9.000000000000000000e+00,1.000000000000000000e+00,-3.000000000000000000e+00,-1.000000000000000000e+00,-1.000000000000000000e+00,-1.000000000000000000e+00,3.811645507812500000e-01,1.616210937500000000e-01,-9.102783203125000000e-01,-4.943847656250000000e-03
-3.000000000000000000e+00,9.000000000000000000e+00,-5.000000000000000000e+00,5.000000000000000000e+00,5.000000000000000000e+00,3.000000000000000000e+00,3.000000000000000000e+00,0.000000000000000000e+00,3.811645507812500000e-01,1.616210937500000000e-01,-9.102783203125000000e-01,-4.943847656250000000e-03
8.000000000000000000e+00,3.000000000000000000e+00,7.000000000000000000e+00,8.000000000000000000e+00,0.000000000000000000e+00,0.000000000000000000e+00,-1.000000000000000000e+00,3.000000000000000000e+00,3.811645507812500000e-01,1.616210937500000000e-01,-9.102783203125000000e-01,-4.943847656250000000e-03
1.800000000000000000e+01,1.100000000000000000e+01,1.800000000000000000e+01,-5.000000000000000000e+00,2.000000000000000000e+00,1.000000000000000000e+00,-4.000000000000000000e+00,0.000000000000000000e+00,3.811645507812500000e-01,1.616210937500000000e-01,-9.102783203125000000e-01,-4.943847656250000000e-03
-1.200000000000000000e+01,-3.100000000000000000e+01,-2.700000000000000000e+01,-1.400000000000000000e+01,-6.000000000000000000e+00,-3.000000000000000000e+00,3.000000000000000000e+00,-4.000000000000000000e+00,3.811645507812500000e-01,1.616210937500000000e-01,-9.102783203125000000e-01,-4.943847656250000000e-03
-1.000000000000000000e+00,7.000000000000000000e+00,-5.400000000000000000e+01,-4.000000000000000000e+00,-2.000000000000000000e+00,-2.000000000000000000e+00,-1.000000000000000000e+00,-3.000000000000000000e+00,3.811035156250000000e-01,1.613769531250000000e-01,-9.103393554687500000e-01,-4.882812500000000000e-03
-7.000000000000000000e+00,-4.000000000000000000e+00,-5.000000000000000000e+00,-5.000000000000000000e+00,1.000000000000000000e+00,2.000000000000000000e+00,3.000000000000000000e+00,-1.000000000000000000e+00,3.811035156250000000e-01,1.613769531250000000e-01,-9.103393554687500000e-01,-4.882812500000000000e-03
6.000000000000000000e+00,2.000000000000000000e+00,2.000000000000000000e+00,0.000000000000000000e+00,-3.000000000000000000e+00,-3.000000000000000000e+00,-4.000000000000000000e+00,-1.000000000000000000e+00,3.811035156250000000e-01,1.613769531250000000e-01,-9.103393554687500000e-01,-4.882812500000000000e-03
-1.200000000000000000e+01,-1.200000000000000000e+01,3.000000000000000000e+00,4.000000000000000000e+00,-1.000000000000000000e+00,0.000000000000000000e+00,-1.000000000000000000e+00,-2.000000000000000000e+00,3.811035156250000000e-01,1.613769531250000000e-01,-9.103393554687500000e-01,-4.882812500000000000e-03
6.000000000000000000e+00,1.100000000000000000e+01,-8.000000000000000000e+00,-3.000000000000000000e+00,-2.000000000000000000e+00,-5.000000000000000000e+00,-4.000000000000000000e+00,-2.000000000000000000e+00,3.811035156250000000e-01,1.613769531250000000e-01,-9.103393554687500000e-01,-4.882812500000000000e-03
-4.000000000000000000e+00,1.200000000000000000e+01,9.000000000000000000e+00,-2.000000000000000000e+00,-2.000000000000000000e+00,-3.000000000000000000e+00,-3.000000000000000000e+00,-1.000000000000000000e+00,3.811035156250000000e-01,1.613769531250000000e-01,-9.103393554687500000e-01,-4.882812500000000000e-03
2.000000000000000000e+00,-2.000000000000000000e+00,0.000000000000000000e+00,1.300000000000000000e+01,9.000000000000000000e+00,-1.000000000000000000e+00,-1.000000000000000000e+00,-5.000000000000000000e+00,3.811035156250000000e-01,1.613769531250000000e-01,-9.103393554687500000e-01,-4.882812500000000000e-03
4.000000000000000000e+00,-2.500000000000000000e+01,-6.000000000000000000e+00,-1.500000000000000000e+01,-1.000000000000000000e+01,-5.000000000000000000e+00,-6.000000000000000000e+00,-3.000000000000000000e+00,3.811035156250000000e-01,1.613769531250000000e-01,-9.103393554687500000e-01,-4.882812500000000000e-03
0.000000000000000000e+00,1.400000000000000000e+01,1.400000000000000000e+01,3.000000000000000000e+00,2.000000000000000000e+00,3.000000000000000000e+00,3.000000000000000000e+00,-1.000000000000000000e+00,3.811035156250000000e-01,1.613769531250000000e-01,-9.103393554687500000e-01,-4.882812500000000000e-03
8.000000000000000000e+00,3.000000000000000000e+00,-5.000000000000000000e+00,4.000000000000000000e+00,-1.000000000000000000e+00,1.000000000000000000e+00,0.000000000000000000e+00,1.000000000000000000e+00,3.811035156250000000e-01,1.613769531250000000e-01,-9.103393554687500000e-01,-4.882812500000000000e-03
-2.200000000000000000e+01,-2.000000000000000000e+00,9.000000000000000000e+00,-7.000000000000000000e+00,-4.000000000000000000e+00,-2.000000000000000000e+00,-3.000000000000000000e+00,-2.000000000000000000e+00,3.811035156250000000e-01,1.613769531250000000e-01,-9.103393554687500000e-01,-4.882812500000000000e-03
6.000000000000000000e+00,4.000000000000000000e+00,-1.000000000000000000e+01,1.000000000000000000e+00,0.000000000000000000e+00,-4.000000000000000000e+00,-1.000000000000000000e+00,0.000000000000000000e+00,3.811035156250000000e-01,1.613769531250000000e-01,-9.103393554687500000e-01,-4.882812500000000000e-03
-1.300000000000000000e+01,1.000000000000000000e+00,8.000000000000000000e+00,1.000000000000000000e+01,8.000000000000000000e+00,3.000000000000000000e+00,1.000000000000000000e+00,1.000000000000000000e+00,3.810424804687500000e-01,1.614379882812500000e-01,-9.103393554687500000e-01,-4.882812500000000000e-03
-6.000000000000000000e+00,4.000000000000000000e+00,-1.800000000000000000e+01,-7.000000000000000000e+00,-4.000000000000000000e+00,-3.000000000000000000e+00,1.000000000000000000e+00,0.000000000000000000e+00,3.810424804687500000e-01,1.614379882812500000e-01,-9.103393554687500000e-01,-4.882812500000000000e-03
6.000000000000000000e+00,-1.000000000000000000e+01,-3.200000000000000000e+01,-5.000000000000000000e+00,-4.000000000000000000e+00,-1.000000000000000000e+00,-1.000000000000000000e+00,1.000000000000000000e+00,3.810424804687500000e-01,1.614379882812500000e-01,-9.103393554687500000e-01,-4.882812500000000000e-03
-4.000000000000000000e+00,5.000000000000000000e+00,1.100000000000000000e+01,3.000000000000000000e+00,0.000000000000000000e+00,1.000000000000000000e+00,1.000000000000000000e+00,-2.000000000000000000e+00,3.810424804687500000e-01,1.614379882812500000e-01,-9.103393554687500000e-01,-4.882812500000000000e-03
0.000000000000000000e+00,-1.000000000000000000e+00,-6.000000000000000000e+00,-1.100000000000000000e+01,-7.000000000000000000e+00,-3.000000000000000000e+00,-3.000000000000000000e+00,2.000000000000000000e+00,3.807983398437500000e-01,1.613159179687500000e-01,-9.104614257812500000e-01,-4.760742187500000000e-03
4.000000000000000000e+00,9.000000000000000000e+00,-5.000000000000000000e+00,2.000000000000000000e+00,6.000000000000000000e+00,3.000000000000000000e+00,4.000000000000000000e+00,1.000000000000000000e+00,3.807983398437500000e-01,1.613159179687500000e-01,-9.104614257812500000e-01,-4.760742187500000000e-03
-1.200000000000000000e+01,-1.300000000000000000e+01,-5.000000000000000000e+00,-3.000000000000000000e+00,-5.000000000000000000e+00,-4.000000000000000000e+00,-2.000000000000000000e+00,-7.000000000000000000e+00,3.807983398437500000e-01,1.613159179687500000e-01,-9.104614257812500000e-01,-4.760742187500000000e-03
1.000000000000000000e+01,-5.000000000000000000e+00,2.600000000000000000e+01,-7.000000000000000000e+00,-6.000000000000000000e+00,-3.000000000000000000e+00,-2.000000000000000000e+00,-1.000000000000000000e+00,3.807983398437500000e-01,1.613159179687500000e-01,-9.104614257812500000e-01,-4.760742187500000000e-03
0.000000000000000000e+00,-6.000000000000000000e+00,-6.000000000000000000e+00,-2.000000000000000000e+00,-5.000000000000000000e+00,-1.000000000000000000e+00,-3.000000000000000000e+00,0.000000000000000000e+00,3.805541992187500000e-01,1.614379882812500000e-01,-9.105224609375000000e-01,-4.638671875000000000e-03
-2.400000000000000000e+01,-1.200000000000000000e+01,0.000000000000000000e+00,2.000000000000000000e+00,-1.000000000000000000e+00,-2.000000000000000000e+00,1.000000000000000000e+00,-2.000000000000000000e+00,3.805541992187500000e-01,1.614379882812500000e-01,-9.105224609375000000e-01,-4.638671875000000000e-03
9.000000000000000000e+00,1.000000000000000000e+01,-6.000000000000000000e+00,9.000000000000000000e+00,6.000000000000000000e+00,-2.000000000000000000e+00,-1.000000000000000000e+00,4.000000000000000000e+00,3.805541992187500000e-01,1.614379882812500000e-01,-9.105224609375000000e-01,-4.638671875000000000e-03
1.600000000000000000e+01,2.700000000000000000e+01,3.000000000000000000e+00,8.000000000000000000e+00,4.000000000000000000e+00,1.000000000000000000e+00,0.000000000000000000e+00,1.000000000000000000e+00,3.805541992187500000e-01,1.614379882812500000e-01,-9.105224609375000000e-01,-4.638671875000000000e-03
0.000000000000000000e+00,-2.300000000000000000e+01,7.000000000000000000e+00,-1.000000000000000000e+00,0.000000000000000000e+00,-1.000000000000000000e+00,-5.000000000000000000e+00,1.000000000000000000e+00,3.803100585937500000e-01,1.611938476562500000e-01,-9.107055664062500000e-01,-4.638671875000000000e-03
-2.000000000000000000e+01,-9.000000000000000000e+00,-1.200000000000000000e+01,-9.000000000000000000e+00,-1.200000000000000000e+01,-1.000000000000000000e+00,6.000000000000000000e+00,-1.000000000000000000e+00,3.803100585937500000e-01,1.611938476562500000e-01,-9.107055664062500000e-01,-4.638671875000000000e-03
-8.000000000000000000e+00,-9.000000000000000000e+00,1.100000000000000000e+01,-3.000000000000000000e+00,-4.000000000000000000e+00,-1.000000000000000000e+00,-5.000000000000000000e+00,-5.000000000000000000e+00,3.803100585937500000e-01,1.611938476562500000e-01,-9.107055664062500000e-01,-4.638671875000000000e-03
-6.000000000000000000e+00,-6.000000000000000000e+00,-2.500000000000000000e+01,-3.000000000000000000e+00,-6.000000000000000000e+00,-3.000000000000000000e+00,-1.000000000000000000e+00,0.000000000000000000e+00,3.803100585937500000e-01,1.611938476562500000e-01,-9.107055664062500000e-01,-4.638671875000000000e-03
1.000000000000000000e+01,5.000000000000000000e+00,6.000000000000000000e+00,1.000000000000000000e+00,1.000000000000000000e+00,2.000000000000000000e+00,5.000000000000000000e+00,1.000000000000000000e+00,3.803100585937500000e-01,1.611938476562500000e-01,-9.107055664062500000e-01,-4.638671875000000000e-03
8.000000000000000000e+00,7.000000000000000000e+00,7.000000000000000000e+00,1.100000000000000000e+01,4.000000000000000000e+00,0.000000000000000000e+00,-4.000000000000000000e+00,1.000000000000000000e+00,3.803100585937500000e-01,1.611938476562500000e-01,-9.107055664062500000e-01,-4.638671875000000000e-03
1.000000000000000000e+00,7.000000000000000000e+00,2.800000000000000000e+01,-1.000000000000000000e+00,-3.000000000000000000e+00,1.000000000000000000e+00,4.000000000000000000e+00,1.000000000000000000e+00,3.803100585937500000e-01,1.611938476562500000e-01,-9.107055664062500000e-01,-4.638671875000000000e-03
-2.700000000000000000e+01,-4.000000000000000000e+00,-7.000000000000000000e+00,1.000000000000000000e+00,-4.000000000000000000e+00,-3.000000000000000000e+00,-2.000000000000000000e+00,-5.000000000000000000e+00,3.803100585937500000e-01,1.611938476562500000e-01,-9.107055664062500000e-01,-4.638671875000000000e-03
6.000000000000000000e+00,9.000000000000000000e+00,9.000000000000000000e+00,-5.000000000000000000e+00,-4.000000000000000000e+00,-5.000000000000000000e+00,-5.000000000000000000e+00,-5.000000000000000000e+00,3.801879882812500000e-01,1.614990234375000000e-01,-9.107055664062500000e-01,-4.516601562500000000e-03
-1.000000000000000000e+00,-6.000000000000000000e+00,5.000000000000000000e+00,2.000000000000000000e+00,4.000000000000000000e+00,1.000000000000000000e+00,0.000000000000000000e+00,0.000000000000000000e+00,3.801879882812500000e-01,1.614990234375000000e-01,-9.107055664062500000e-01,-4.516601562500000000e-03
2.000000000000000000e+00,-1.200000000000000000e+01,-8.000000000000000000e+00,-1.300000000000000000e+01,-1.000000000000000000e+01,-7.000000000000000000e+00,-4.000000000000000000e+00,1.000000000000000000e+00,3.801879882812500000e-01,1.614990234375000000e-01,-9.107055664062500000e-01,-4.516601562500000000e-03
2.000000000000000000e+00,-3.000000000000000000e+00,-9.000000000000000000e+00,4.000000000000000000e+00,5.000000000000000000e+00,3.000000000000000000e+00,-1.000000000000000000e+00,1.000000000000000000e+00,3.801879882812500000e-01,1.614990234375000000e-01,-9.107055664062500000e-01,-4.516601562500000000e-03
0.000000000000000000e+00,3.000000000000000000e+00,4.000000000000000000e+00,6.000000000000000000e+00,1.000000000000000000e+00,-3.000000000000000000e+00,-2.000000000000000000e+00,-1.000000000000000000e+00,3.801879882812500000e-01,1.615600585937500000e-01,-9.107055664062500000e-01,-4.516601562500000000e-03
-9.000000000000000000e+00,1.400000000000000000e+01,3.100000000000000000e+01,6.000000000000000000e+00,4.000000000000000000e+00,0.000000000000000000e+00,1.000000000000000000e+00,-1.000000000000000000e+00,3.801879882812500000e-01,1.615600585937500000e-01,-9.107055664062500000e-01,-4.516601562500000000e-03
1.400000000000000000e+01,-3.000000000000000000e+00,-4.400000000000000000e+01,-1.300000000000000000e+01,-2.000000000000000000e+00,-3.000000000000000000e+00,1.000000000000000000e+00,-3.000000000000000000e+00,3.801879882812500000e-01,1.615600585937500000e-01,-9.107055664062500000e-01,-4.516601562500000000e-03
-3.000000000000000000e+00,-1.500000000000000000e+01,-1.000000000000000000e+00,-8.000000000000000000e+00,-5.000000000000000000e+00,-3.000000000000000000e+00,-3.000000000000000000e+00,-3.000000000000000000e+00,3.801879882812500000e-01,1.615600585937500000e-01,-9.107055664062500000e-01,-4.516601562500000000e-03
-7.000000000000000000e+00,4.000000000000000000e+00,5.000000000000000000e+00,1.000000000000000000e+00,0.000000000000000000e+00,1.000000000000000000e+00,-1.000000000000000000e+00,0.000000000000000000e+00,3.801269531250000000e-01,1.614990234375000000e-01,-9.107055664062500000e-01,-4.516601562500000000e-03
2.000000000000000000e+01,5.000000000000000000e+00,8.000000000000000000e+00,-5.000000000000000000e+00,-6.000000000000000000e+00,-3.000000000000000000e+00,-2.000000000000000000e+00,-1.000000000000000000e+00,3.801269531250000000e-01,1.614990234375000000e-01,-9.107055664062500000e-01,-4.516601562500000000e-03
-2.300000000000000000e+01,-5.000000000000000000e+00,-4.000000000000000000e+00,4.000000000000000000e+00,1.000000000000000000e+00,-1.000000000000000000e+00,-7.000000000000000000e+00,-4.000000000000000000e+00,3.801269531250000000e-01,1.614990234375000000e-01,-9.107055664062500000e-01,-4.516601562500000000e-03
4.000000000000000000e+00,-3.000000000000000000e+00,3.000000000000000000e+00,-4.000000000000000000e+00,7.000000000000000000e+00,1.000000000000000000e+00,4.000000000000000000e+00,-1.000000000000000000e+00,3.801269531250000000e-01,1.614990234375000000e-01,-9.107055664062500000e-01,-4.516601562500000000e-03
-1.000000000000000000e+00,-2.000000000000000000e+00,-2.500000000000000000e+01,3.000000000000000000e+00,7.000000000000000000e+00,3.000000000000000000e+00,2.000000000000000000e+00,1.000000000000000000e+00,3.800659179687500000e-01,1.616821289062500000e-01,-9.107055664062500000e-01,-4.394531250000000000e-03
-3.000000000000000000e+00,-2.000000000000000000e+00,8.000000000000000000e+00,-1.000000000000000000e+00,-6.000000000000000000e+00,-2.000000000000000000e+00,-2.000000000000000000e+00,-2.000000000000000000e+00,3.800659179687500000e-01,1.616821289062500000e-01,-9.107055664062500000e-01,-4.394531250000000000e-03
6.000000000000000000e+00,8.000000000000000000e+00,3.200000000000000000e+01,9.000000000000000000e+00,2.000000000000000000e+00,-1.000000000000000000e+00,0.000000000000000000e+00,3.000000000000000000e+00,3.800659179687500000e-01,1.616821289062500000e-01,-9.107055664062500000e-01,-4.394531250000000000e-03
7.000000000000000000e+00,5.000000000000000000e+00,-1.500000000000000000e+01,-1.000000000000000000e+00,-4.000000000000000000e+00,0.000000000000000000e+00,-2.000000000000000000e+00,0.000000000000000000e+00,3.800659179687500000e-01,1.616821289062500000e-01,-9.107055664062500000e-01,-4.394531250000000000e-03
4.000000000000000000e+00,0.000000000000000000e+00,1.000000000000000000e+01,-1.000000000000000000e+00,-2.000000000000000000e+00,-3.000000000000000000e+00,-2.000000000000000000e+00,0.000000000000000000e+00,3.798828125000000000e-01,1.622314453125000000e-01,-9.107055664062500000e-01,-4.211425781250000000e-03
-2.000000000000000000e+01,-1.000000000000000000e+01,-1.600000000000000000e+01,-2.000000000000000000e+00,0.000000000000000000e+00,-3.000000000000000000e+00,-7.000000000000000000e+00,-6.000000000000000000e+00,3.798828125000000000e-01,1.622314453125000000e-01,-9.107055664062500000e-01,-4.211425781250000000e-03
8.000000000000000000e+00,-7.000000000000000000e+00,-2.000000000000000000e+00,-7.000000000000000000e+00,-5.000000000000000000e+00,-3.000000000000000000e+00,-4.000000000000000000e+00,-2.000000000000000000e+00,3.798828125000000000e-01,1.622314453125000000e-01,-9.107055664062500000e-01,-4.211425781250000000e-03
-2.000000000000000000e+00,8.000000000000000000e+00,7.000000000000000000e+00,1.000000000000000000e+00,3.000000000000000000e+00,-1.000000000000000000e+00,5.000000000000000000e+00,-2.000000000000000000e+00,3.798828125000000000e-01,1.622314453125000000e-01,-9.107055664062500000e-01,-4.211425781250000000e-03
-1.700000000000000000e+01,-9.000000000000000000e+00,-1.300000000000000000e+01,-5.000000000000000000e+00,1.000000000000000000e+00,-1.000000000000000000e+00,0.000000000000000000e+00,-9.000000000000000000e+00,3.798828125000000000e-01,1.622314453125000000e-01,-9.107055664062500000e-01,-4.211425781250000000e-03
-2.000000000000000000e+00,6.000000000000000000e+00,-3.000000000000000000e+00,-2.000000000000000000e+00,-6.000000000000000000e+00,-3.000000000000000000e+00,-2.000000000000000000e+00,-1.300000000000000000e+01,3.798828125000000000e-01,1.622314453125000000e-01,-9.107055664062500000e-01,-4.211425781250000000e-03
7.000000000000000000e+00,3.000000000000000000e+00,2.000000000000000000e+00,5.000000000000000000e+00,2.000000000000000000e+00,-2.000000000000000000e+00,0.000000000000000000e+00,-7.000000000000000000e+00,3.798828125000000000e-01,1.622314453125000000e-01,-9.107055664062500000e-01,-4.211425781250000000e-03
-4.000000000000000000e+00,-1.000000000000000000e+00,5.000000000000000000e+00,0.000000000000000000e+00,-4.000000000000000000e+00,-3.000000000000000000e+00,-1.000000000000000000e+00,-2.000000000000000000e+00,3.798828125000000000e-01,1.622314453125000000e-01,-9.107055664062500000e-01,-4.211425781250000000e-03
2.000000000000000000e+00,5.000000000000000000e+00,-1.300000000000000000e+01,-8.000000000000000000e+00,-5.000000000000000000e+00,-2.000000000000000000e+00,-3.000000000000000000e+00,4.000000000000000000e+00,3.798828125000000000e-01,1.622314453125000000e-01,-9.107055664062500000e-01,-4.211425781250000000e-03
5.000000000000000000e+00,-2.000000000000000000e+01,-6.000000000000000000e+00,-2.000000000000000000e+00,5.000000000000000000e+00,3.000000000000000000e+00,-3.000000000000000000e+00,3.000000000000000000e+00,3.798828125000000000e-01,1.622314453125000000e-01,-9.107055664062500000e-01,-4.211425781250000000e-03
3.000000000000000000e+00,-9.000000000000000000e+00,-2.000000000000000000e+00,0.000000000000000000e+00,-4.000000000000000000e+00,-3.000000000000000000e+00,3.000000000000000000e+00,4.000000000000000000e+00,3.798828125000000000e-01,1.622314453125000000e-01,-9.107055664062500000e-01,-4.211425781250000000e-03
-7.000000000000000000e+00,1.000000000000000000e+00,4.000000000000000000e+00,-2.000000000000000000e+00,-6.000000000000000000e+00,-1.000000000000000000e+00,1.000000000000000000e+00,4.000000000000000000e+00,3.798828125000000000e-01,1.622314453125000000e-01,-9.107055664062500000e-01,-4.211425781250000000e-03
-8.000000000000000000e+00,2.000000000000000000e+00,-1.000000000000000000e+00,1.500000000000000000e+01,8.000000000000000000e+00,-2.000000000000000000e+00,-3.000000000000000000e+00,1.000000000000000000e+00,3.796386718750000000e-01,1.625366210937500000e-01,-9.107666015625000000e-01,-4.272460937500000000e-03
8.000000000000000000e+00,7.000000000000000000e+00,1.000000000000000000e+00,-4.000000000000000000e+00,-4.000000000000000000e+00,-1.000000000000000000e+00,8.000000000000000000e+00,4.000000000000000000e+00,3.796386718750000000e-01,1.625366210937500000e-01,-9.107666015625000000e-01,-4.272460937500000000e-03
1.200000000000000000e+01,1.100000000000000000e+01,5.000000000000000000e+00,1.000000000000000000e+00,1.000000000000000000e+00,2.000000000000000000e+00,5.000000000000000000e+00,5.000000000000000000e+00,3.796386718750000000e-01,1.625366210937500000e-01,-9.107666015625000000e-01,-4.272460937500000000e-03
-8.000000000000000000e+00,-1.000000000000000000e+01,-8.000000000000000000e+00,-5.000000000000000000e+00,-6.000000000000000000e+00,-1.000000000000000000e+00,-5.000000000000000000e+00,-4.000000000000000000e+00,3.796386718750000000e-01,1.625366210937500000e-01,-9.107666015625000000e-01,-4.272460937500000000e-03
0.000000000000000000e+00,-6.000000000000000000e+00,-1.000000000000000000e+01,0.000000000000000000e+00,-5.000000000000000000e+00,0.000000000000000000e+00,-2.000000000000000000e+00,-2.000000000000000000e+00,3.794555664062500000e-01,1.629028320312500000e-01,-9.107666015625000000e-01,-4.211425781250000000e-03
1.000000000000000000e+00,-3.000000000000000000e+00,7.000000000000000000e+00,-5.000000000000000000e+00,1.000000000000000000e+00,-2.000000000000000000e+00,-4.000000000000000000e+00,0.000000000000000000e+00,3.794555664062500000e-01,1.629028320312500000e-01,-9.107666015625000000e-01,-4.211425781250000000e-03
-3.000000000000000000e+00,3.000000000000000000e+00,-1.100000000000000000e+01,-2.000000000000000000e+00,5.000000000000000000e+00,4.000000000000000000e+00,4.000000000000000000e+00,-1.000000000000000000e+00,3.794555664062500000e-01,1.629028320312500000e-01,-9.107666015625000000e-01,-4.211425781250000000e-03
1.100000000000000000e+01,1.300000000000000000e+01,-2.200000000000000000e+01,-4.000000000000000000e+00,0.000000000000000000e+00,-4.000000000000000000e+00,2.000000000000000000e+00,0.000000000000000000e+00,3.794555664062500000e-01,1.629028320312500000e-01,-9.107666015625000000e-01,-4.211425781250000000e-03
-6.000000000000000000e+00,-1.400000000000000000e+01,3.000000000000000000e+00,-1.000000000000000000e+00,-1.000000000000000000e+00,1.000000000000000000e+00,1.000000000000000000e+00,0.000000000000000000e+00,3.791503906250000000e-01,1.629638671875000000e-01,-9.108886718750000000e-01,-4.150390625000000000e-03
-6.000000000000000000e+00,-9.000000000000000000e+00,-2.900000000000000000e+01,-3.000000000000000000e+00,-2.000000000000000000e+00,-4.000000000000000000e+00,-4.000000000000000000e+00,-2.000000000000000000e+00,3.791503906250000000e-01,1.629638671875000000e-01,-9.108886718750000000e-01,-4.150390625000000000e-03
-3.000000000000000000e+00,0.000000000000000000e+00,-1.300000000000000000e+01,-1.000000000000000000e+00,1.000000000000000000e+00,0.000000000000000000e+00,0.000000000000000000e+00,2.000000000000000000e+00,3.791503906250000000e-01,1.629638671875000000e-01,-9.108886718750000000e-01,-4.150390625000000000e-03
4.000000000000000000e+00,-1.200000000000000000e+01,1.100000000000000000e+01,-3.000000000000000000e+00,-7.000000000000000000e+00,0.000000000000000000e+00,-2.000000000000000000e+00,-1.000000000000000000e+00,3.791503906250000000e-01,1.629638671875000000e-01,-9.108886718750000000e-01,-4.150390625000000000e-03
-6.000000000000000000e+00,1.000000000000000000e+01,1.200000000000000000e+01,-1.000000000000000000e+00,-4.000000000000000000e+00,1.000000000000000000e+00,-2.000000000000000000e+00,0.000000000000000000e+00,3.791503906250000000e-01,1.629638671875000000e-01,-9.108886718750000000e-01,-4.150390625000000000e-03
0.000000000000000000e+00,6.000000000000000000e+00,-1.300000000000000000e+01,6.000000000000000000e+00,1.000000000000000000e+00,1.000000000000000000e+00,-4.000000000000000000e+00,1.000000000000000000e+00,3.791503906250000000e-01,1.629638671875000000e-01,-9.108886718750000000e-01,-4.150390625000000000e-03
-2.000000000000000000e+00,-1.400000000000000000e+01,2.000000000000000000e+00,7.000000000000000000e+00,8.000000000000000000e+00,2.000000000000000000e+00,-1.000000000000000000e+00,-2.000000000000000000e+00,3.791503906250000000e-01,1.629638671875000000e-01,-9.108886718750000000e-01,-4.150390625000000000e-03
1.000000000000000000e+01,1.100000000000000000e+01,-9.000000000000000000e+00,3.000000000000000000e+00,1.000000000000000000e+00,-2.000000000000000000e+00,0.000000000000000000e+00,0.000000000000000000e+00,3.791503906250000000e-01,1.629638671875000000e-01,-9.108886718750000000e-01,-4.150390625000000000e-03
-5.000000000000000000e+00,-5.000000000000000000e+00,1.600000000000000000e+01,-8.000000000000000000e+00,-3.000000000000000000e+00,-1.000000000000000000e+00,4.000000000000000000e+00,0.000000000000000000e+00,3.788452148437500000e-01,1.627197265625000000e-01,-9.110717773437500000e-01,-4.028320312500000000e-03
1.000000000000000000e+00,1.200000000000000000e+01,8.000000000000000000e+00,3.000000000000000000e+00,-4.000000000000000000e+00,-3.000000000000000000e+00,0.000000000000000000e+00,1.000000000000000000e+00,3.788452148437500000e-01,1.627197265625000000e-01,-9.110717773437500000e-01,-4.028320312500000000e-03
-6.000000000000000000e+00,-1.700000000000000000e+01,-3.200000000000000000e+01,-1.100000000000000000e+01,-8.000000000000000000e+00,-2.000000000000000000e+00,-1.000000000000000000e+00,-4.000000000000000000e+00,3.788452148437500000e-01,1.627197265625000000e-01,-9.110717773437500000e-01,-4.028320312500000000e-03
1.000000000000000000e+00,-1.000000000000000000e+00,1.000000000000000000e+01,-2.000000000000000000e+00,1.000000000000000000e+00,1.000000000000000000e+00,2.000000000000000000e+00,3.000000000000000000e+00,3.788452148437500000e-01,1.627197265625000000e-01,-9.110717773437500000e-01,-4.028320312500000000e-03
4.000000000000000000e+00,2.000000000000000000e+00,9.000000000000000000e+00,3.000000000000000000e+00,2.000000000000000000e+00,-2.000000000000000000e+00,-6.000000000000000000e+00,-7.000000000000000000e+00,3.786621093750000000e-01,1.627197265625000000e-01,-9.111328125000000000e-01,-3.723144531250000000e-03
2.000000000000000000e+00,7.000000000000000000e+00,1.600000000000000000e+01,0.000000000000000000e+00,-3.000000000000000000e+00,-2.000000000000000000e+00,-3.000000000000000000e+00,-2.000000000000000000e+00,3.786621093750000000e-01,1.627197265625000000e-01,-9.111328125000000000e-01,-3.723144531250000000e-03
1.000000000000000000e+01,4.000000000000000000e+00,-1.500000000000000000e+01,2.000000000000000000e+00,2.000000000000000000e+00,3.000000000000000000e+00,3.000000000000000000e+00,4.000000000000000000e+00,3.786621093750000000e-01,1.627197265625000000e-01,-9.111328125000000000e-01,-3.723144531250000000e-03
-1.300000000000000000e+01,-7.000000000000000000e+00,7.000000000000000000e+00,7.000000000000000000e+00,-2.000000000000000000e+00,-4.000000000000000000e+00,-4.000000000000000000e+00,0.000000000000000000e+00,3.786621093750000000e-01,1.627197265625000000e-01,-9.111328125000000000e-01,-3.723144531250000000e-03
1.500000000000000000e+01,1.300000000000000000e+01,-2.000000000000000000e+00,-3.000000000000000000e+00,3.000000000000000000e+00,3.000000000000000000e+00,6.000000000000000000e+00,1.000000000000000000e+00,3.783569335937500000e-01,1.629638671875000000e-01,-9.111938476562500000e-01,-3.601074218750000000e-03
-1.900000000000000000e+01,-3.800000000000000000e+01,-5.000000000000000000e+00,-2.000000000000000000e+00,-1.000000000000000000e+00,1.000000000000000000e+00,-1.000000000000000000e+00,-3.000000000000000000e+00,3.783569335937500000e-01,1.629638671875000000e-01,-9.111938476562500000e-01,-3.601074218750000000e-03
-4.000000000000000000e+00,8.000000000000000000e+00,2.200000000000000000e+01,-5.000000000000000000e+00,-5.000000000000000000e+00,-4.000000000000000000e+00,-7.000000000000000000e+00,-5.000000000000000000e+00,3.783569335937500000e-01,1.629638671875000000e-01,-9.111938476562500000e-01,-3.601074218750000000e-03
-5.000000000000000000e+00,-1.000000000000000000e+00,7.000000000000000000e+00,-2.000000000000000000e+00,-5.000000000000000000e+00,-3.000000000000000000e+00,-5.000000000000000000e+00,0.000000000000000000e+00,3.783569335937500000e-01,1.629638671875000000e-01,-9.111938476562500000e-01,-3.601074218750000000e-03
5.000000000000000000e+00,4.000000000000000000e+00,-1.200000000000000000e+01,-3.000000000000000000e+00,-5.000000000000000000e+00,-1.000000000000000000e+00,-4.000000000000000000e+00,0.000000000000000000e+00,3.782958984375000000e-01,1.630249023437500000e-01,-9.111938476562500000e-01,-3.601074218750000000e-03
5.000000000000000000e+00,3.000000000000000000e+00,-6.000000000000000000e+00,1.000000000000000000e+00,0.000000000000000000e+00,2.000000000000000000e+00,-4.000000000000000000e+00,0.000000000000000000e+00,3.782958984375000000e-01,1.630249023437500000e-01,-9.111938476562500000e-01,-3.601074218750000000e-03
0.000000000000000000e+00,1.700000000000000000e+01,1.000000000000000000e+01,5.000000000000000000e+00,2.000000000000000000e+00,0.000000000000000000e+00,3.000000000000000000e+00,0.000000000000000000e+00,3.782958984375000000e-01,1.630249023437500000e-01,-9.111938476562500000e-01,-3.601074218750000000e-03
1.000000000000000000e+00,1.400000000000000000e+01,1.700000000000000000e+01,6.000000000000000000e+00,3.000000000000000000e+00,2.000000000000000000e+00,-1.000000000000000000e+00,-3.000000000000000000e+00,3.782958984375000000e-01,1.630249023437500000e-01,-9.111938476562500000e-01,-3.601074218750000000e-03
-1.200000000000000000e+01,-4.600000000000000000e+01,-2.100000000000000000e+01,-9.000000000000000000e+00,-2.000000000000000000e+00,-6.000000000000000000e+00,-3.000000000000000000e+00,-4.000000000000000000e+00,3.781127929687500000e-01,1.627807617187500000e-01,-9.113159179687500000e-01,-3.784179687500000000e-03
6.000000000000000000e+00,-4.000000000000000000e+00,-1.000000000000000000e+00,-1.500000000000000000e+01,-7.000000000000000000e+00,0.000000000000000000e+00,-2.000000000000000000e+00,-1.000000000000000000e+00,3.781127929687500000e-01,1.627807617187500000e-01,-9.113159179687500000e-01,-3.784179687500000000e-03
-1.700000000000000000e+01,-5.000000000000000000e+00,1.500000000000000000e+01,1.300000000000000000e+01,2.000000000000000000e+00,-3.000000000000000000e+00,3.000000000000000000e+00,2.000000000000000000e+00,3.781127929687500000e-01,1.627807617187500000e-01,-9.113159179687500000e-01,-3.784179687500000000e-03
-6.000000000000000000e+00,5.000000000000000000e+00,-6.000000000000000000e+00,-2.000000000000000000e+00,1.000000000000000000e+00,-1.000000000000000000e+00,1.000000000000000000e+00,-1.000000000000000000e+00,3.781127929687500000e-01,1.627807617187500000e-01,-9.113159179687500000e-01,-3.784179687500000000e-03
5.000000000000000000e+00,2.300000000000000000e+01,9.000000000000000000e+00,1.500000000000000000e+01,3.000000000000000000e+00,1.000000000000000000e+00,-2.000000000000000000e+00,1.000000000000000000e+00,3.781127929687500000e-01,1.627807617187500000e-01,-9.113159179687500000e-01,-3.784179687500000000e-03
-7.000000000000000000e+00,-8.000000000000000000e+00,-1.000000000000000000e+00,-8.000000000000000000e+00,2.000000000000000000e+00,-2.000000000000000000e+00,-6.000000000000000000e+00,-3.000000000000000000e+00,3.781127929687500000e-01,1.627807617187500000e-01,-9.113159179687500000e-01,-3.784179687500000000e-03
7.000000000000000000e+00,6.000000000000000000e+00,-6.000000000000000000e+00,-5.000000000000000000e+00,-7.000000000000000000e+00,0.000000000000000000e+00,4.000000000000000000e+00,0.000000000000000000e+00,3.781127929687500000e-01,1.627807617187500000e-01,-9.113159179687500000e-01,-3.784179687500000000e-03
8.000000000000000000e+00,4.000000000000000000e+00,-3.000000000000000000e+00,-6.000000000000000000e+00,1.000000000000000000e+00,0.000000000000000000e+00,-4.000000000000000000e+00,-1.000000000000000000e+00,3.781127929687500000e-01,1.627807617187500000e-01,-9.113159179687500000e-01,-3.784179687500000000e-03
-8.000000000000000000e+00,-2.600000000000000000e+01,-1.200000000000000000e+01,-4.000000000000000000e+00,-4.000000000000000000e+00,0.000000000000000000e+00,2.000000000000000000e+00,-1.000000000000000000e+00,3.779907226562500000e-01,1.629028320312500000e-01,-9.113769531250000000e-01,-3.784179687500000000e-03
-2.200000000000000000e+01,0.000000000000000000e+00,-1.000000000000000000e+00,-4.000000000000000000e+00,-5.000000000000000000e+00,-6.000000000000000000e+00,-3.000000000000000000e+00,-5.000000000000000000e+00,3.779907226562500000e-01,1.629028320312500000e-01,-9.113769531250000000e-01,-3.784179687500000000e-03
0.000000000000000000e+00,0.000000000000000000e+00,4.000000000000000000e+00,-1.100000000000000000e+01,-2.000000000000000000e+00,-1.000000000000000000e+00,-6.000000000000000000e+00,-1.000000000000000000e+00,3.779907226562500000e-01,1.629028320312500000e-01,-9.113769531250000000e-01,-3.784179687500000000e-03
6.000000000000000000e+00,1.000000000000000000e+00,-8.000000000000000000e+00,2.000000000000000000e+00,1.000000000000000000e+00,2.000000000000000000e+00,5.000000000000000000e+00,1.000000000000000000e+00,3.779907226562500000e-01,1.629028320312500000e-01,-9.113769531250000000e-01,-3.784179687500000000e-03
-6.000000000000000000e+00,1.000000000000000000e+00,1.700000000000000000e+01,-2.000000000000000000e+00,-2.000000000000000000e+00,-1.000000000000000000e+00,0.000000000000000000e+00,1.000000000000000000e+00,3.779907226562500000e-01,1.629638671875000000e-01,-9.113769531250000000e-01,-3.784179687500000000e-03
0.000000000000000000e+00,4.000000000000000000e+00,-8.000000000000000000e+00,8.000000000000000000e+00,5.000000000000000000e+00,2.000000000000000000e+00,2.000000000000000000e+00,2.000000000000000000e+00,3.779907226562500000e-01,1.629638671875000000e-01,-9.113769531250000000e-01,-3.784179687500000000e-03
-1.000000000000000000e+00,-7.000000000000000000e+00,7.000000000000000000e+00,-5.000000000000000000e+00,-5.000000000000000000e+00,-6.000000000000000000e+00,-4.000000000000000000e+00,-3.000000000000000000e+00,3.779907226562500000e-01,1.629638671875000000e-01,-9.113769531250000000e-01,-3.784179687500000000e-03
-3.000000000000000000e+00,-1.300000000000000000e+01,-1.000000000000000000e+00,1.000000000000000000e+00,-1.000000000000000000e+00,-3.000000000000000000e+00,-5.000000000000000000e+00,-4.000000000000000000e+00,3.779907226562500000e-01,1.629638671875000000e-01,-9.113769531250000000e-01,-3.784179687500000000e-03
3.000000000000000000e+00,1.000000000000000000e+00,6.000000000000000000e+00,-5.000000000000000000e+00,-5.000000000000000000e+00,-5.000000000000000000e+00,-3.000000000000000000e+00,-4.000000000000000000e+00,3.779907226562500000e-01,1.629028320312500000e-01,-9.113769531250000000e-01,-3.784179687500000000e-03
1.200000000000000000e+01,1.500000000000000000e+01,-1.500000000000000000e+01,-8.000000000000000000e+00,-1.000000000000000000e+00,-1.000000000000000000e+00,2.000000000000000000e+00,3.000000000000000000e+00,3.779907226562500000e-01,1.629028320312500000e-01,-9.113769531250000000e-01,-3.784179687500000000e-03
-5.000000000000000000e+00,-1.300000000000000000e+01,1.300000000000000000e+01,1.200000000000000000e+01,3.000000000000000000e+00,1.000000000000000000e+00,0.000000000000000000e+00,0.000000000000000000e+00,3.779907226562500000e-01,1.629028320312500000e-01,-9.113769531250000000e-01,-3.784179687500000000e-03
-1.500000000000000000e+01,-1.500000000000000000e+01,-9.000000000000000000e+00,3.000000000000000000e+00,5.000000000000000000e+00,-1.000000000000000000e+00,-3.000000000000000000e+00,1.000000000000000000e+00,3.779907226562500000e-01,1.629028320312500000e-01,-9.113769531250000000e-01,-3.784179687500000000e-03
6.000000000000000000e+00,1.300000000000000000e+01,2.200000000000000000e+01,2.000000000000000000e+00,3.000000000000000000e+00,2.000000000000000000e+00,-1.000000000000000000e+00,3.000000000000000000e+00,3.779907226562500000e-01,1.629028320312500000e-01,-9.113769531250000000e-01,-3.784179687500000000e-03
9.000000000000000000e+00,9.000000000000000000e+00,-1.500000000000000000e+01,-1.000000000000000000e+00,1.000000000000000000e+00,-2.000000000000000000e+00,2.000000000000000000e+00,4.000000000000000000e+00,3.779907226562500000e-01,1.629028320312500000e-01,-9.113769531250000000e-01,-3.784179687500000000e-03
2.000000000000000000e+00,1.200000000000000000e+01,2.000000000000000000e+00,-4.000000000000000000e+00,-3.000000000000000000e+00,-1.000000000000000000e+00,-6.000000000000000000e+00,-2.000000000000000000e+00,3.779907226562500000e-01,1.629028320312500000e-01,-9.113769531250000000e-01,-3.784179687500000000e-03
-1.300000000000000000e+01,-1.000000000000000000e+01,2.300000000000000000e+01,4.000000000000000000e+00,-5.000000000000000000e+00,-4.000000000000000000e+00,-4.000000000000000000e+00,-3.000000000000000000e+00,3.779907226562500000e-01,1.629028320312500000e-01,-9.113769531250000000e-01,-3.784179687500000000e-03
-5.000000000000000000e+00,-4.000000000000000000e+00,-1.800000000000000000e+01,-1.200000000000000000e+01,-2.000000000000000000e+00,-1.000000000000000000e+00,0.000000000000000000e+00,-5.000000000000000000e+00,3.781127929687500000e-01,1.631469726562500000e-01,-9.112548828125000000e-01,-3.723144531250000000e-03
5.000000000000000000e+00,9.000000000000000000e+00,2.500000000000000000e+01,1.400000000000000000e+01,-1.000000000000000000e+00,0.000000000000000000e+00,3.000000000000000000e+00,-2.000000000000000000e+00,3.781127929687500000e-01,1.631469726562500000e-01,-9.112548828125000000e-01,-3.723144531250000000e-03
1.100000000000000000e+01,1.000000000000000000e+00,-1.800000000000000000e+01,-5.000000000000000000e+00,4.000000000000000000e+00,1.000000000000000000e+00,3.000000000000000000e+00,-1.000000000000000000e+00,3.781127929687500000e-01,1.631469726562500000e-01,-9.112548828125000000e-01,-3.723144531250000000e-03
-3.000000000000000000e+00,2.000000000000000000e+00,-6.000000000000000000e+00,-2.000000000000000000e+00,-2.000000000000000000e+00,3.000000000000000000e+00,1.000000000000000000e+00,-1.000000000000000000e+00,3.781127929687500000e-01,1.631469726562500000e-01,-9.112548828125000000e-01,-3.723144531250000000e-03
-2.000000000000000000e+00,-5.000000000000000000e+00,-3.000000000000000000e+00,1.000000000000000000e+00,1.000000000000000000e+00,-1.000000000000000000e+00,-3.000000000000000000e+00,3.000000000000000000e+00,3.781127929687500000e-01,1.631469726562500000e-01,-9.112548828125000000e-01,-3.784179687500000000e-03
2.000000000000000000e+00,-5.000000000000000000e+00,9.000000000000000000e+00,-6.000000000000000000e+00,-5.000000000000000000e+00,-4.000000000000000000e+00,-5.000000000000000000e+00,0.000000000000000000e+00,3.781127929687500000e-01,1.631469726562500000e-01,-9.112548828125000000e-01,-3.784179687500000000e-03
-7.000000000000000000e+00,-6.000000000000000000e+00,1.000000000000000000e+01,3.000000000000000000e+00,-3.000000000000000000e+00,-3.000000000000000000e+00,-4.000000000000000000e+00,-1.000000000000000000e+00,3.781127929687500000e-01,1.631469726562500000e-01,-9.112548828125000000e-01,-3.784179687500000000e-03
5.000000000000000000e+00,2.000000000000000000e+00,-1.500000000000000000e+01,-6.000000000000000000e+00,0.000000000000000000e+00,0.000000000000000000e+00,1.000000000000000000e+00,-1.000000000000000000e+00,3.781127929687500000e-01,1.631469726562500000e-01,-9.112548828125000000e-01,-3.784179687500000000e-03
4.000000000000000000e+00,1.200000000000000000e+01,-6.000000000000000000e+00,-1.000000000000000000e+00,-3.000000000000000000e+00,0.000000000000000000e+00,3.000000000000000000e+00,-2.000000000000000000e+00,3.781127929687500000e-01,1.632080078125000000e-01,-9.112548828125000000e-01,-3.784179687500000000e-03
-4.000000000000000000e+00,-9.000000000000000000e+00,-6.000000000000000000e+00,5.000000000000000000e+00,-1.000000000000000000e+00,-1.000000000000000000e+00,-3.000000000000000000e+00,-3.000000000000000000e+00,3.781127929687500000e-01,1.632080078125000000e-01,-9.112548828125000000e-01,-3.784179687500000000e-03
-5.000000000000000000e+00,-4.000000000000000000e+00,1.700000000000000000e+01,-2.000000000000000000e+00,-2.000000000000000000e+00,-1.000000000000000000e+00,2.000000000000000000e+00,-1.000000000000000000e+00,3.781127929687500000e-01,1.632080078125000000e-01,-9.112548828125000000e-01,-3.784179687500000000e-03
4.000000000000000000e+00,1.000000000000000000e+00,-2.300000000000000000e+01,-1.200000000000000000e+01,-2.000000000000000000e+00,-5.000000000000000000e+00,4.000000000000000000e+00,-4.000000000000000000e+00,3.781127929687500000e-01,1.632080078125000000e-01,-9.112548828125000000e-01,-3.784179687500000000e-03
-3.000000000000000000e+00,1.000000000000000000e+00,1.200000000000000000e+01,1.600000000000000000e+01,7.000000000000000000e+00,-1.000000000000000000e+00,2.000000000000000000e+00,-2.000000000000000000e+00,3.781738281250000000e-01,1.630859375000000000e-01,-9.112548828125000000e-01,-3.540039062500000000e-03
4.000000000000000000e+00,-2.000000000000000000e+00,-1.000000000000000000e+00,5.000000000000000000e+00,4.000000000000000000e+00,1.000000000000000000e+00,6.000000000000000000e+00,-1.000000000000000000e+00,3.781738281250000000e-01,1.630859375000000000e-01,-9.112548828125000000e-01,-3.540039062500000000e-03
-1.200000000000000000e+01,-1.000000000000000000e+01,-1.100000000000000000e+01,-2.000000000000000000e+00,1.000000000000000000e+00,-2.000000000000000000e+00,-6.000000000000000000e+00,-4.000000000000000000e+00,3.781738281250000000e-01,1.630859375000000000e-01,-9.112548828125000000e-01,-3.540039062500000000e-03
-1.500000000000000000e+01,1.000000000000000000e+00,-4.000000000000000000e+00,-9.000000000000000000e+00,-6.000000000000000000e+00,-2.000000000000000000e+00,-2.000000000000000000e+00,-2.000000000000000000e+00,3.781738281250000000e-01,1.630859375000000000e-01,-9.112548828125000000e-01,-3.540039062500000000e-03
1.000000000000000000e+00,3.000000000000000000e+00,-1.000000000000000000e+00,-5.000000000000000000e+00,-3.000000000000000000e+00,-4.000000000000000000e+00,-5.000000000000000000e+00,0.000000000000000000e+00,3.781738281250000000e-01,1.629638671875000000e-01,-9.112548828125000000e-01,-3.173828125000000000e-03
5.000000000000000000e+00,4.000000000000000000e+00,-8.000000000000000000e+00,-1.000000000000000000e+00,1.000000000000000000e+00,0.000000000000000000e+00,0.000000000000000000e+00,0.000000000000000000e+00,3.781738281250000000e-01,1.629638671875000000e-01,-9.112548828125000000e-01,-3.173828125000000000e-03
-1.300000000000000000e+01,8.000000000000000000e+00,-2.000000000000000000e+00,-3.000000000000000000e+00,-5.000000000000000000e+00,-2.000000000000000000e+00,-8.000000000000000000e+00,0.000000000000000000e+00,3.781738281250000000e-01,1.629638671875000000e-01,-9.112548828125000000e-01,-3.173828125000000000e-03
1.000000000000000000e+00,-1.000000000000000000e+01,-4.000000000000000000e+00,1.000000000000000000e+00,6.000000000000000000e+00,3.000000000000000000e+00,9.000000000000000000e+00,1.000000000000000000e+00,3.781738281250000000e-01,1.629638671875000000e-01,-9.112548828125000000e-01,-3.173828125000000000e-03
-4.000000000000000000e+00,2.000000000000000000e+00,1.000000000000000000e+01,-1.000000000000000000e+01,-9.000000000000000000e+00,2.000000000000000000e+00,2.000000000000000000e+00,-2.000000000000000000e+00,3.780517578125000000e-01,1.631469726562500000e-01,-9.113159179687500000e-01,-2.807617187500000000e-03
3.000000000000000000e+00,1.000000000000000000e+00,1.100000000000000000e+01,1.500000000000000000e+01,8.000000000000000000e+00,1.000000000000000000e+00,1.000000000000000000e+00,-3.000000000000000000e+00,3.780517578125000000e-01,1.631469726562500000e-01,-9.113159179687500000e-01,-2.807617187500000000e-03
3.000000000000000000e+00,2.000000000000000000e+00,-6.300000000000000000e+01,-1.400000000000000000e+01,-5.000000000000000000e+00,-2.000000000000000000e+00,2.000000000000000000e+00,-2.000000000000000000e+00,3.780517578125000000e-01,1.631469726562500000e-01,-9.113159179687500000e-01,-2.807617187500000000e-03
4.000000000000000000e+00,-9.000000000000000000e+00,1.200000000000000000e+01,1.100000000000000000e+01,2.000000000000000000e+00,2.000000000000000000e+00,-4.000000000000000000e+00,1.000000000000000000e+00,3.780517578125000000e-01,1.631469726562500000e-01,-9.113159179687500000e-01,-2.807617187500000000e-03
2.000000000000000000e+00,-1.000000000000000000e+00,-1.700000000000000000e+01,-8.000000000000000000e+00,-5.000000000000000000e+00,-5.000000000000000000e+00,-4.000000000000000000e+00,0.000000000000000000e+00,3.778076171875000000e-01,1.632690429687500000e-01,-9.113769531250000000e-01,-2.502441406250000000e-03
-1.900000000000000000e+01,-5.000000000000000000e+00,1.500000000000000000e+01,-4.000000000000000000e+00,-1.000000000000000000e+01,-4.000000000000000000e+00,-3.000000000000000000e+00,-2.000000000000000000e+00,3.778076171875000000e-01,1.632690429687500000e-01,-9.113769531250000000e-01,-2.502441406250000000e-03
-2.000000000000000000e+00,1.000000000000000000e+00,0.000000000000000000e+00,-1.100000000000000000e+01,1.000000000000000000e+00,0.000000000000000000e+00,-1.000000000000000000e+00,1.000000000000000000e+00,3.778076171875000000e-01,1.632690429687500000e-01,-9.113769531250000000e-01,-2.502441406250000000e-03
-2.000000000000000000e+00,1.400000000000000000e+01,4.000000000000000000e+00,5.000000000000000000e+00,-2.000000000000000000e+00,0.000000000000000000e+00,-2.000000000000000000e+00,3.000000000000000000e+00,3.778076171875000000e-01,1.632690429687500000e-01,-9.113769531250000000e-01,-2.502441406250000000e-03
1.700000000000000000e+01,-8.000000000000000000e+00,-7.000000000000000000e+00,1.000000000000000000e+01,1.100000000000000000e+01,3.000000000000000000e+00,3.000000000000000000e+00,1.000000000000000000e+00,3.776245117187500000e-01,1.631469726562500000e-01,-9.114990234375000000e-01,-2.380371093750000000e-03
-4.000000000000000000e+00,-5.000000000000000000e+00,9.000000000000000000e+00,-3.000000000000000000e+00,-3.000000000000000000e+00,0.000000000000000000e+00,0.000000000000000000e+00,0.000000000000000000e+00,3.776245117187500000e-01,1.631469726562500000e-01,-9.114990234375000000e-01,-2.380371093750000000e-03
9.000000000000000000e+00,-2.000000000000000000e+00,0.000000000000000000e+00,3.000000000000000000e+00,3.000000000000000000e+00,2.000000000000000000e+00,5.000000000000000000e+00,-2.000000000000000000e+00,3.776245117187500000e-01,1.631469726562500000e-01,-9.114990234375000000e-01,-2.380371093750000000e-03
-4.000000000000000000e+00,-7.000000000000000000e+00,-2.000000000000000000e+00,-1.000000000000000000e+01,-1.000000000000000000e+01,-6.000000000000000000e+00,-6.000000000000000000e+00,-5.000000000000000000e+00,3.776245117187500000e-01,1.631469726562500000e-01,-9.114990234375000000e-01,-2.380371093750000000e-03
-1.000000000000000000e+01,1.400000000000000000e+01,2.200000000000000000e+01,-3.000000000000000000e+00,-2.000000000000000000e+00,0.000000000000000000e+00,3.000000000000000000e+00,0.000000000000000000e+00,3.775634765625000000e-01,1.631469726562500000e-01,-9.114990234375000000e-01,-2.441406250000000000e-03
-6.000000000000000000e+00,-1.200000000000000000e+01,-3.600000000000000000e+01,-3.000000000000000000e+00,-1.000000000000000000e+00,-4.000000000000000000e+00,-2.000000000000000000e+00,-2.000000000000000000e+00,3.775634765625000000e-01,1.631469726562500000e-01,-9.114990234375000000e-01,-2.441406250000000000e-03
